##TITLE=Sample description
##JCAMP-DX=4.24
##DATA TYPE=INFRARED SPECTRUM
##DATE=24/8/2023
##SAMPLING PROCEDURE=Instrument type and / or accessory
##ORIGIN=Default
##XUNITS=1/CM
##YUNITS=ABSORBANCE
##RESOLUTION=4
##FIRSTX=4397.6552
##LASTX=599.8556
##DELTAX=-1.9287962
##MAXY=1.284317
##MINY=0.34224969
##XFACTOR=1
##YFACTOR=1.1961134e-009
##NPOINTS=1970
##FIRSTY=0.48750028
##XYDATA=(X++(Y..Y))
4398+407570275+406831143+407276790+408216919+408865556+409773469+410785232
4384+409950298+407487604+406388909+407040163+407486034+407061615+406213426
4371+405480996+405415442+406080325+406787639+406953655+406882794+407206876
4357+407727071+407483592+405960828+404543458+404831985+405460964+404686077
4344+403303964+402773602+403392266+404070329+403969644+403723100+403740043
4330+403603329+403615438+404015663+404051019+403342085+402055524+400917886
4317+400867930+401560942+401908346+401577536+401309241+401825450+402505806
4303+402416233+402074386+401982271+401344821+400290701+399986752+400650239
4290+401498528+401363384+400194825+399457935+399805214+400589195+401195301
4276+401269700+401027666+401069649+401197593+400747312+399684820+398762655
4263+398961634+399897951+400083351+399534876+399154807+398729193+397866702
4249+397031693+397113094+398353510+399654697+399594325+398419288+397660971
4236+397542869+397402916+397149247+396727544+396171120+395442453+395026855
4222+395821525+397088427+397838298+397904499+396942120+395653516+395136784
4209+395141667+395127191+395293057+395864704+396689348+397766938+398239918
4195+396877364+395065225+394842751+395349691+395176899+394842526+394905240
4182+394955869+394822494+394625907+394560179+394911892+395117698+394443148
4168+393594959+393523151+393813347+393728459+393753200+394581532+395650003
4155+396134868+395702476+394536857+393782900+394080995+394386714+393810906
4141+392716522+391876629+391854878+392491157+393194485+393588904+393406794
4128+392850221+392630611+392664123+391861356+390403423+389901541+390507871
4114+391175021+391485798+391235890+390493121+389968590+389969860+390126681
4101+390199785+390013264+389593704+389154535+388708813+388488681+388476721
4087+388450036+388679836+388948405+388655244+388145364+387942722+387745089
4074+387274027+386620606+386286060+386777552+387181390+386575483+385722261
4060+385383703+385297294+385197406+385506539+386387268+387060647+386782485
4047+385742493+384810137+384409190+384497591+385093706+385708981+385822423
4033+385553804+385045020+384233084+383375077+383162469+383654261+384090589
4020+384071329+383790676+383626106+383568575+383402759+383008763+382010056
4006+380921478+380730796+380969416+381178486+381568819+381642595+381222911
3993+380843241+380587753+380612345+380998368+381214863+381250119+381405296
3979+381353770+380945571+380565354+380316667+380050291+379900745+379845382
3966+379695811+379487813+379258411+379224850+379562037+379911409+379879392
3952+379584761+379148407+378631202+378397864+377899569+376937664+376976682
3939+377904901+378304030+377521021+375887281+375359935+376545088+377204339
3925+376596190+376342396+376511476+375388115+373533644+373711843+375792003
3912+377555455+378317186+378147907+376264260+372848605+370246007+369679194
3898+371632755+375095028+376750171+374677038+372669359+373403732+373214471
3885+371693750+371372533+371224707+372871054+375847291+375785724+373092956
3871+370656049+369774498+371203254+371819052+371146122+372410632+374454513
3858+375066798+372723676+366123661+364779095+370302741+374952609+376625043
3844+375930037+373947847+371079770+368301914+368261152+370261530+372184843
3831+373912193+375101556+375383156+375920693+375079780+371025753+369943253
3817+371499654+372977919+376401796+379815134+380245159+377494062+375775707
3804+375725925+373876762+373476886+375570325+377405884+379517837+381610927
3790+382561023+382602234+382064149+381340988+380950131+380084475+379764181
3777+381765630+384030043+384282118+382245637+380535604+380712158+381563512
3763+383110345+383912116+382831336+382667015+383965860+383659194+379825623
3750+377744966+380808882+382593762+381393510+383683263+387734674+388325606
3736+385035552+384537681+389586603+395770895+400261799+402461281+404884907
3723+409890524+416982680+426260315+436845415+446996030+457424109+471886433
3709+490576896+508861528+524469139+537168558+548737539+561472090+574273914
3696+584770960+591275523+592311429+586974828+580903753+579396836+579103325
3682+577580511+574642819+570048714+560708465+551825226+550331065+546627207
3669+540875854+540590965+541744026+541111709+539460827+537293636+533249774
3655+530057541+530217651+527732333+517891473+512493678+515793250+520229986
3642+523115504+524230892+523956767+523101103+522396977+522009933+519271618
3628+514999526+516584032+520597746+522029965+519098253+514683542+514241981
3615+515783183+516354556+516026762+514239639+513026880+514674174+516085962
3601+514758589+512734615+512524424+513030368+512986267+513268116+512717124
3588+509571882+507663369+509031554+510742933+511329106+511624061+512568077
3574+513828925+515206130+515886734+513000668+508346266+509118711+513222570
3561+516164248+518012016+519647650+519965827+518689830+517683225+518024026
3547+519177087+520578510+521849075+522822393+523480025+524017761+525308707
3534+527397761+528860976+529365126+530109864+531641299+533342412+534585071
3520+535295774+535819557+536499315+537310628+537726077+537492515+537761009
3507+538970431+539398736+538892344+539608130+541553718+543185863+544349140
3493+545146849+545028399+544285754+544105661+544992121+545864529+545632860
3480+544996556+545042751+546067245+548023647+550226069+551452582+551294565
3466+550783589+550363356+549451631+548915140+550027688+551875307+552602255
3453+551994505+551220465+550709040+550654823+551667657+553108198+553905958
3439+554320859+554888893+555252965+555202684+555217485+555095048+554147095
3426+552988303+552613168+552890931+553530773+554383398+555408839+556896871
3412+558371148+559134773+559030475+557981512+556865476+556666797+557055585
3399+557608720+558289573+558895679+559351691+559803318+560003244+559864063
3385+560098622+560823029+561518932+562036985+562402053+562758152+563024305
3372+563163286+563458540+564109943+564959927+565347220+565167875+564916523
3358+565247756+566807894+568621876+569078685+568301756+567722459+568443328
3345+569597436+569702731+569592901+570245251+570788469+571143970+571615081
3331+571912827+572331913+572519580+572315020+572648894+573018797+572634592
3318+572501940+573130719+573327755+572277646+571128422+571489704+572612617
3304+572929946+572924515+573275979+573271793+572533782+571943872+571907395
3291+572005215+572912106+575214691+577605477+578702178+578778222+578866424
3277+579373813+579761506+579352286+578952634+580220308+582853577+584512233
3264+584313503+583896161+584126883+584519957+584942731+585356535+585828145
3250+586520709+587335362+588733197+591080580+592781145+592735997+592547084
3237+593022132+593218918+592912651+592092916+590985700+591448290+593965251
3223+595503264+594078968+591529167+590470089+590752287+590505370+589967036
3210+590594420+592215851+592767092+591019636+589110873+588516976+587935637
3196+587199171+587280796+587900605+588313612+588411233+587897416+586342460
3183+584172429+582159069+581205336+581624074+582370805+582543922+581623625
3169+580053371+579358614+579177176+578586419+577979117+577077259+576001935
3156+575544179+575292877+574653782+573742107+572873537+572038951+570823301
3142+569437326+568452398+567427056+565748168+563777664+562388150+561949729
3129+561731963+561156454+560490251+559740879+558882623+558316084+557789909
3115+556562100+554917197+553750781+553280019+553072569+552741435+552319259
3102+551862450+551667856+551847451+551269849+549608851+548322439+548018116
3088+548040042+547874151+547239043+546224664+545530057+545434828+545381259
3075+544800866+543690212+543051168+543444491+543605000+542708075+541336550
3061+539910709+538758595+537828083+536444450+534955671+534059294+533122902
3047+531868433+530983368+530330919+529346040+528044530+526620034+525039116
3034+523185468+521397100+520447552+520359350+519973601+518534105+516502956
3020+514519147+513079602+512552330+512339548+511245886+509432054+508041793
3007+507048293+505862991+504569205+503410213+502616690+502475765+502723529
2993+502515581+501621347+500600191+499696538+498894942+498344548+498031654
2980+497569263+496712054+495880459+495322291+494457857+492973563+491616440
2966+491091311+490742188+489489762+487579405+485899372+484733055+484112399
2953+483699890+482799377+481372390+479832583+478546471+477809157+477402878
2939+476961666+476499275+475973847+475457489+475182765+474557225+472953334
2926+471155697+469907208+468615963+466908173+465444160+464567666+464130142
2912+464141205+464018070+463039072+461780018+461077039+460759759+460394990
2899+459901205+459419729+459056853+458572636+457688069+456579657+455705954
2885+455185460+454684848+453988696+453164874+452423226+451970253+451648588
2872+450950244+449702452+448494327+447906160+447626653+446977144+446018377
2858+445171832+444393707+443582194+442543148+441090796+439773340+439105193
2845+438808344+438503373+438178020+437871205+437425757+436702397+435935334
2831+435499853+435296040+435008410+434523844+433970212+433547687+433051959
2818+432450437+432089206+431811094+431306396+430790635+430507092+430135395
2804+429464807+428748224+428008618+427346302+426958709+426585119+426066967
2791+425671201+425530875+425429168+425265121+425083434+424731521+424239879
2777+423939243+423748984+423217477+422415881+421763531+421376835+421254697
2764+421163006+420733305+420181217+419969780+420035359+419949748+419532455
2750+418944588+418453146+418302952+418219982+417783977+417372017+417285708
2737+417320790+417430769+417297668+416708554+416179240+415928336+415642849
2723+415302571+415146249+415193988+415134264+414690087+414210928+414189750
2710+414315725+414155366+413843991+413499976+413202006+413148711+413256547
2696+413218874+412985013+412812694+412778285+412733013+412619869+412363808
2683+411992884+411659010+411376911+411260080+411375641+411462572+411432873
2669+411407159+411285619+410977583+410647995+410572126+410811568+411010746
2656+410863667+410471141+410200678+410275999+410402473+410384608+410519279
2642+410908416+411216752+411261301+411320676+411500943+411631004+411835390
2629+412127530+412200932+412116442+412199163+412422086+412644461+412929998
2615+413282435+413774973+414549885+415248130+415496119+415662806+415999322
2602+416235400+416513662+417069462+417623967+418101880+418650978+419166739
2588+419594646+419989564+420318355+420497849+420546884+420738438+421141379
2575+421358945+421335873+421406933+421496382+421481133+421583139+421713300
2561+421620314+421511381+421571977+421685095+421782965+421767517+421575714
2548+421403943+421344095+421199633+421031151+421149551+421411917+421451383
2534+421268949+421156677+421270892+421337219+421273683+421368463+421555283
2521+421685793+421836036+421968190+421958324+421807283+421750724+421918558
2507+422059831+421984037+421761637+421572774+421709912+422257365+422756482
2494+422846279+422828888+422850016+422641968+422378257+422373723+422483204
2480+422534331+422528152+422443188+422317164+422192185+421974021+421654100
2467+421313748+421020088+420896056+420900442+420820113+420519277+420085989
2453+419676171+419208349+418771422+418619684+418562078+418353880+418119272
2440+417972242+417736488+417274272+416745106+416223366+415732197+415408938
2426+415164736+414842448+414517793+414235396+413735158+412974972+412461952
2413+412158999+411519182+410812664+410471515+410203195+409783037+409281180
2399+408696726+408157644+407784453+407386968+406832762+406260966+405724376
2386+405015292+403916373+402369266+400441044+398274402+395921213+393323300
2372+390545594+387854569+385411833+382999195+380606639+378789892+377926902
2359+377889653+378574991+379945270+382071125+384937782+387188566+387168060
2345+385001168+382728109+381628717+381369641+381565655+381945823+382117643
2332+382007216+382129254+382567127+382886151+383203905+383678653+384110049
2318+384658848+385538780+386442756+387014702+387432642+388002197+388611168
2305+389079613+389497777+389952544+390331839+390615458+390883903+391104783
2291+391269353+391424679+391616083+391793061+391847876+391824406+391857394
2278+391976592+392028642+391934235+391740015+391542058+391556235+391761966
2264+392023509+392352325+392595330+392674488+392805322+393115003+393426652
2251+393581579+393814593+394323901+394947149+395501429+395828327+395978545
2237+396292860+396796810+397228355+397599503+398177379+399042461+399945441
2224+400742827+401564854+402532192+403593213+404506882+405201090+405999199
2210+407071333+408241611+409508114+410984435+412517215+414002008+415641752
2197+417583778+419751317+421959470+424017628+425992119+428230171+430927573
2183+433807610+436489465+439044348+441763876+444714475+447687946+450446891
2170+453081506+455825451+458719590+461656983+464440346+466926212+469123501
2156+471025835+472673827+474191957+475386478+475951622+476038230+475814086
2143+475110509+473897101+472199876+469713312+466297134+462382935+458281468
2129+453827091+449070184+444300670+439388338+434132664+428860545+423916918
2116+419173665+414509172+410057910+405816440+401638157+397549073+393707654
2102+390185059+386916458+383721609+380507848+377377580+374348845+371426127
2089+368812941+366541950+364343813+362117896+359946619+357841344+355840094
2075+353926249+352078480+350434425+348908248+347199261+345398161+343812733
2062+342336138+340738302+339128133+337662625+336287015+334960040+333704325
2048+332389585+331006150+329764040+328667687+327679022+326817154+325886542
2035+324844831+323990313+323459602+323112972+322824644+322474276+321963149
2021+321367857+320712717+319882567+318989279+318134313+317077801+315777561
2008+314520700+313399208+312291120+311202392+310238318+309362821+308443871
1994+307307354+305964732+304874235+304251161+303867106+303494737+302936371
1981+302242486+301518652+300712023+299966836+299406625+298742266+297688819
1967+296586835+296008910+295780804+295462154+295024754+294458190+293780824
1954+293223305+292829234+292384608+291735796+290824719+289601868+288673624
1940+288808046+289275096+289252173+288968729+288764094+288607547+288355323
1927+287843200+286933867+286177518+286134812+286146497+286214294+286933593
1913+287491735+287228373+286852192+287074966+287538054+287852469+288142715
1900+288349667+288170172+287724351+287573858+287554025+287148792+287085655
1886+287783825+288444646+288818809+289130134+289470312+289812956+290040713
1873+289818563+288594466+287057101+287529209+289706241+291445675+292136794
1859+292407705+292907370+293576389+294061627+294280339+294118759+293545468
1846+292718308+292574567+294229611+296179933+297147993+297736757+298375802
1832+298213225+297224485+297248479+298329383+299433061+300867423+302170952
1819+302634588+302544891+302217346+301358143+300193671+299746604+299917951
1805+299726820+298679777+297182576+296502894+296793389+296760176+295599416
1792+294594555+295842894+297751956+298442078+298134640+297680248+297671876
1778+298440060+299018111+298094052+295953148+295640627+297560028+299469912
1765+300349221+300016244+299699164+300161330+300531706+300902430+300473253
1751+297860839+294978859+294914002+296125217+296784394+296786313+296494372
1738+296368497+295270874+292612863+292551894+295246929+297971142+299598428
1724+299982209+299865851+298957689+295861731+293429883+296558581+301311027
1711+304517538+305715871+305360246+305267234+306368570+306732094+306451042
1697+308940521+314656019+320722459+324650685+327010427+328697786+329375699
1684+331519544+338391542+345772723+351564962+355991533+360403154+364706739
1670+369270497+376562579+384230218+389823006+395297392+402566227+409480183
1657+413807339+415429169+420255068+430500613+437421073+444040797+454807435
1643+465325511+473157297+478562068+482187690+488153968+498314749+506898050
1630+513015368+517990090+522528733+526943444+532546446+538065881+541350653
1616+544376846+549757200+554916400+558359836+560946363+563671522+566268065
1603+568619833+571125382+573674784+575922653+578370796+581741179+585742683
1589+589869415+594224178+599127939+604573822+610200096+614942502+618764212
1576+625866957+636218146+644497423+652419803+663004056+674062410+683896692
1562+691208133+694929831+702107423+717603709+732177258+745261230+757079421
1549+768185813+777477425+784453547+789148662+793384227+806462817+821121478
1535+830394553+838585926+848480256+856521436+861981321+866905912+871124484
1522+875201733+882549551+891419337+900136337+908479897+914195719+915893493
1508+913137189+913563551+924773743+934475622+939313007+939502966+938097507
1495+940102744+942801242+940976098+935618667+934984605+938440051+940976796
1481+941266120+940578638+938685424+934091119+927306003+922637050+923520669
1468+924824372+922366761+919483884+919987884+919723277+914030377+910661340
1454+917797073+926300394+932878309+938573900+945754183+953936686+961004449
1441+966787046+970560420+971923024+976755625+985527341+991965129+995949591
1427+999803194+1002896262+1006479576+1009870141+1009125154+1009179471
1416+1015369892+1021232021+1023741856+1024513155+1024092474+1022619342
1404+1022009599+1023072115+1022791262+1020004661+1017339848+1016174678
1393+1017055906+1018232239+1015755093+1009446968+1006497616+1009056386
1381+1012704781+1015265644+1016691136+1016677383+1016232284+1016675688
1369+1017032784+1016767578+1015610182+1013099151+1012131116+1013632053
1358+1014318339+1013519433+1012490105+1011773422+1010753063+1009667524
1346+1008616270+1006640334+1003733239+1000325731+997991703+998142694+999208300
1333+999615826+999664063+1000084246+1000835313+1002399736+1005072622+1006982879
1319+1007357316+1008914763+1013050515+1017893182+1022099894+1025772607
1308+1028837670+1031523511+1034623955+1038168600+1041873305+1045245432
1296+1047314454+1048732671+1050939926+1053546934+1055832126+1058004699
1285+1059563542+1059822668+1059547396+1059283088+1058726963+1058489066
1273+1058724771+1057841350+1055725287+1054061897+1052468172+1050068565
1261+1048206246+1047823636+1048202758+1048944357+1050690368+1053503580
1250+1056370212+1058620124+1060097640+1060804456+1060522906+1059439261
1238+1059191297+1060844820+1063133402+1064390761+1064558695+1064025393
1227+1062583058+1060851099+1060374108+1061726746+1063796166+1065297204
1215+1066170060+1066914350+1067838832+1069180108+1070693703+1071795587
1204+1072688874+1073569803+1073741823+1073186795+1072512370+1071298364
1192+1069617633+1068935433+1069352128+1069996156+1070711842+1070919641
1180+1070067316+1068867562+1068296987+1067604024+1065728150+1063400700
1169+1061268491+1059562844+1058427274+1057265791+1055736549+1053795196
1157+1051136164+1047785266+1044392210+1041346183+1038455731+1035364457
1146+1031713271+1027518918+1022971654+1018382532+1014080142+1009852102
1134+1005214643+999570977+993171460+987312222+981992364+976336938+970185385
1121+963601590+957401102+952304989+947830181+943763298+940091880+935813011
1107+930302397+925228509+922141321+920139274+918543257+917721428+917145272
1094+916565626+916858539+917625253+917712060+917972083+919939547+923212409
1080+925908715+927343676+928798569+930775800+932214647+933679407+936517236
1067+939534659+941915330+944103450+945702258+947497603+950495094+953834730
1053+956165270+956844280+956608774+957278117+959517863+961655653+962978192
1040+964375181+965356172+966070363+967669470+969235787+969518035+968965300
1026+968554984+968952244+969765202+970298204+971083555+972148165+972372110
1013+971943655+972059863+972622665+972779635+972246234+971143852+970679518
999+971554866+972234175+971882262+970554340+968160215+966129564+965210065
986+963871081+961852788+960456198+958802974+955347927+951627773+949607089
972+948188074+945825742+943641409+942673174+941834902+940381902+939183743
959+939657944+941325420+941951807+941269608+940759229+940900951+941672350
945+943193121+944882224+946230078+947312527+948367968+949982522+952118419
932+954454141+956806408+958072936+958361164+959396572+961124743+962216760
918+962561996+962500404+961848702+961036341+960538022+959083029+956345861
905+954514936+954046914+953293555+951695146+949787181+948248072+947597367
891+947531788+947028984+945970055+944697347+943183453+942110771+942438267
878+944485462+947207880+949657319+952438041+955465729+958924564+964129709
864+970080538+974418308+977156972+979362135+981042368+981892799+981633972
851+981004695+981128677+981131766+979605912+976524704+973391372+972157932
837+973169620+975877587+978838999+979171577+976216344+972338623+970524541
824+972494298+975908782+977746284+978677942+979742253+980656669+981168642
810+981647726+983854085+987831271+989591733+988360984+988912524+992599988
797+996372863+998626064+999892393+1001434492+1004324844+1008493783+1012886767
783+1016542438+1019888851+1024367745+1029486781+1032790140+1033629708
772+1033136870+1032404739+1033011692+1035155861+1036605272+1036630487
760+1036665768+1037742038+1040095999+1042559790+1043547459+1043413411
748+1043523041+1043888907+1043419092+1041785302+1039242877+1036321928
737+1034459011+1034678271+1034724117+1031530687+1027615691+1027017608
725+1027927639+1026915154+1024763610+1023095935+1021662370+1021496529
714+1022874183+1022649740+1019503052+1016023687+1014750382+1015762369
702+1016748543+1015771139+1013609529+1010868275+1006515156+1002016728
691+1000677545+1002891279+1005571439+1006057201+1005443969+1005229393
679+1004680444+1003750381+1003581550+1003963761+1001636909+997005729+1001560866
665+1013446380+1018676141+1018123605+1016297564+1014341162+1013877526
654+1014652013+1013884502+1013445582+1014941437+1015341687+1015140865
642+1015028643+1013995727+1015004624+1019089746+1023471668+1024786533
631+1021753263+1016894450+1010903356+1005863454+1006475490+1008384751
619+1004644167+1000447421+1003052734+1009349995+1012984936+1012466485
608+1011930094+1017252144+1024751850+1019787692+1005686352
##END=
