##TITLE=Sample description
##JCAMP-DX=4.24
##DATA TYPE=INFRARED SPECTRUM
##DATE=24/8/2023
##SAMPLING PROCEDURE=Instrument type and / or accessory
##ORIGIN=Default
##XUNITS=1/CM
##YUNITS=ABSORBANCE
##RESOLUTION=4
##FIRSTX=4397.6552
##LASTX=599.8556
##DELTAX=-1.9287962
##MAXY=1.4179575
##MINY=0.57322085
##XFACTOR=1
##YFACTOR=1.3205759e-009
##NPOINTS=1970
##FIRSTY=0.69892693
##XYDATA=(X++(Y..Y))
4398+529259197+529500987+529376278+529663294+530557019+531394279+532272162
4384+532530246+532067428+532370557+532996403+532276856+530568393+529633459
4371+529825375+529696197+528719694+528030974+528756931+530269777+531280313
4357+531828391+531821530+531220824+530837760+530499922+529584442+528241666
4344+526904802+526141202+525480602+524058251+523222255+524164049+525124935
4330+524474399+523594531+524282529+525469814+525056329+523865208+524673085
4317+527233117+528747904+528156541+526280896+524863015+524638376+524420237
4303+523946180+523557339+522859141+522182066+522327311+523380770+524536190
4290+524521791+523309998+522109398+521513701+521683771+522317607+522548610
4276+522667947+523355765+523928126+523666838+523082200+523011789+523121874
4263+522828088+522730505+522561112+521725025+521238015+521420136+521648611
4249+521449699+520577820+520058538+520537018+520579264+519453634+518767938
4236+519038885+518839252+518365647+518875811+519972736+520362344+519732209
4222+519451468+520264175+520182525+518179418+516269426+515566759+515731503
4209+516577023+517248863+517427283+517575101+517057534+516193012+516202445
4195+516329817+516222936+516410293+516008589+515173720+515219036+515475134
4182+514883590+514289970+514344765+514414273+514030442+513484169+513348673
4168+513388256+513165152+512977886+513160503+513754801+514130552+513913496
4155+513586762+513074656+512414958+512413152+512793237+512308574+511303681
4141+511227808+511912511+512029051+511268926+510467593+510329479+510846505
4128+511310045+511126163+510752713+510421420+509786772+509204752+508883433
4114+508505876+508463359+509238558+509934590+509318538+507951253+507345988
4101+507805917+508619346+508761658+507558982+506399726+506952679+507664012
4087+506790778+505911451+506386591+507101354+506851982+505725313+504919647
4074+505517736+506531521+506346692+505406116+505015244+505285063+505139547
4060+504262341+503683977+503516931+503113512+502828843+503267017+503802006
4047+503410051+502756536+503222378+504215671+504033460+503102950+503226440
4033+503854183+503439163+502383538+501502721+500801093+500415907+500674082
4020+501241433+501440570+501269778+501090320+501290089+501736161+501414662
4006+500329925+499362629+498534080+497988032+498164963+498808503+499615748
3993+500702472+501383474+500826368+499880016+499360553+499118853+499048668
3979+499258592+499731836+499667473+499046953+498729380+498359135+497786097
3966+497916944+498752941+499181546+499012650+498634867+497775490+497148515
3952+498179903+499852167+499768351+499307654+499576841+498138875+496153100
3939+496411635+497937571+499239410+499350443+497925926+496811534+496560853
3925+495432469+494081027+494316498+494821698+493888750+492354510+492107980
3912+493173897+494722445+496677844+498166858+497662155+495738351+493399438
3898+491930824+492875417+494523714+493335617+490539392+490993814+492651590
3885+492469876+492145984+490764843+489609965+491586035+493492868+493435050
3871+491231497+487832670+488130654+489733681+489003797+488778888+490294352
3858+492382764+492786951+485955898+479664121+482393004+486852556+489568621
3844+490108846+489129634+487386598+484611496+483007025+483792380+484910699
3831+486291253+487855103+488087369+488644384+489356349+485981625+483733343
3817+484423101+483737857+484867369+488039210+489654468+487492801+485225066
3804+485479765+483763584+482375130+484212139+485269389+485595673+486619026
3790+487181864+486678876+485622393+485160478+486209333+486706318+485417162
3777+485142288+486669849+488539896+488637208+486946889+486222061+486526995
3763+487590068+488438026+487535815+487575625+490298414+492521510+490484236
3750+488066110+491340950+494662460+493702747+495605879+501963147+507905170
3736+509169998+506655553+506395212+509486983+513518562+515218043+512920067
3723+509200238+506206050+504341193+504300752+506709986+509558974+510822222
3709+514689238+522065165+530374085+538601942+546543461+554699191+562709632
3696+569435745+574701731+577735187+575796308+572121750+572574277+574745241
3682+575798791+575191134+573254827+566519912+557729488+556057991+555497320
3669+553973144+555729451+558630435+560805281+562817640+565550450+569135866
3655+574365879+581526285+587885494+588085714+584850503+586067939+588705107
3642+588487058+586005517+584336592+583219312+582269123+582747873+580829170
3628+573421512+570221010+571557016+572553966+570043673+564301104+561133596
3615+560178532+558913569+558557225+557445677+554757281+554571233+556165187
3601+556144651+555265505+555583257+555792505+554636679+554055291+553772698
3588+549732995+544293419+543049082+544082998+544335530+543212698+541694480
3574+541103388+542760036+546593922+548978783+545647434+541598658+541051347
3561+541483653+541227149+541296206+542188938+542676806+542586355+543468661
3547+544917640+544549336+543067633+543113626+544318604+545032690+545196803
3534+545817955+546963355+548012345+549441285+551179808+551059838+549223507
3520+548209361+548127531+548155199+548575995+549116265+548563989+547403018
3507+548558122+551764356+552932865+551583092+550777336+551029327+551026348
3493+550623741+550499799+550245823+549680773+550199107+552201943+553848165
3480+553594820+552187455+551442812+551779386+551985203+552416201+554262372
3466+556112198+556440829+556248056+556223683+555795213+555062937+554625260
3453+555195364+556949730+558115801+557321103+556183738+556446967+557584333
3439+558095491+557854197+557625361+557294248+557324669+558447817+559796281
3426+560601179+560881154+560405021+559437725+559251677+560105458+560324319
3412+559385594+558883328+559322179+559765047+559892193+559752003+559293428
3399+559314461+560295432+560891038+560072283+558872902+558625560+559273297
3385+559907675+559898783+559438989+558942997+558850966+559721582+560564935
3372+559863532+558409768+557779002+558422722+559587214+560179841+560168918
3358+559744962+559330890+559794385+560437925+560369815+560088261+559926180
3345+559792444+559260434+558598073+558827811+559263006+558500851+556925267
3331+556076180+556354846+556742198+556703923+556298066+555628032+554864974
3318+554010877+553172759+552502996+551766658+550823284+550237969+550404157
3304+550962436+551437802+551619291+551337511+550430426+549114054+547804768
3291+546907658+546333672+545756932+545399054+545393773+545424510+544885369
3277+543945019+543448124+543086770+542575026+542587573+542918009+542633612
3264+541694210+540585009+539434102+538006065+536587371+536324322+537200761
3250+537740083+537184015+536008872+534994771+534954104+535651986+535577513
3237+534782725+534110389+533258008+532393892+532177287+532565406+532786705
3223+532428781+531716636+530984992+530334727+529853314+529844422+529981047
3210+530063148+530104988+529808449+529406970+529107136+528505888+527570097
3196+527045670+527292424+527810398+527147314+525463811+525354042+526672897
3183+526729180+525027262+524315613+525946804+526651909+524485277+522760565
3169+524762318+527948151+527722293+524951254+524644695+527981551+529922010
3156+527620829+525190156+527372224+531269480+529734427+523931647+522581062
3142+528496861+532152372+527231672+522253154+525299203+531536817+530382525
3129+523132029+521069615+528385828+534701210+529503831+520860503+521704850
3115+530835910+533618504+524497509+517331686+522461769+532322262+530746045
3102+519009186+513758818+521050297+529761057+525686464+514757347+512773423
3088+522796719+530344657+522657973+511538565+510818837+518442422+522352993
3075+516102606+509076522+510405713+517865412+519949356+512511773+505958347
3061+507212884+513309405+514823651+509272364+504688554+505070084+507678229
3047+507426871+504202808+502072013+501999120+502849650+503084535+502058247
3034+501010114+501184156+502180383+502222946+501306428+501731603+508856171
3020+537353544+592192128+634070008+622343349+584305404+553561375+535189078
3007+523991857+515942059+510661314+508372907+507137824+504639041+502093949
2993+501962470+505337781+509087806+507265421+502219155+500965791+505276623
2980+511362266+511692476+505890960+501856312+503639880+509938427+513744871
2966+509719611+503715030+503383466+511333831+519590530+516162229+506591415
2953+502567961+507207377+515688173+516268704+508430139+503347945+505876517
2939+513692830+517191947+510698777+503225628+502507118+509115203+516866702
2926+514879122+505764130+500732577+503225989+509489872+510409053+503700677
2912+497902004+497650736+502002821+506088969+504417968+500009238+498591402
2899+501286388+505455720+505716602+501334096+497629748+497818910+501210335
2885+503560803+501287516+497360696+496086209+498072887+500865546+500977481
2872+498617625+497037437+497579467+499152795+499844765+499128602+498561748
2858+499171030+500508390+501347185+500246740+497510816+495182239+494642646
2845+495446777+496026134+495671371+495158137+495203814+495533031+495634721
2831+495579971+495539079+495379255+495215368+495350278+495592293+495469570
2818+495019300+494712741+494681417+494749662+494891657+495071567+495138096
2804+494890123+494457049+494236473+494185154+494270866+494595254+494878884
2791+494991948+495067911+495151637+495219069+495089215+494686788+494437776
2777+494694867+495165448+495510282+495672364+495597574+495499179+495669655
2764+495832278+495850061+496172237+496655005+496651484+496370743+496484168
2750+496898781+497031614+496762969+496667914+497182321+497704898+497552702
2737+497079142+496860597+496969237+497386649+498228513+499087394+499193868
2723+498830213+498861672+499088974+498858332+498453062+498590905+499114791
2710+499190799+498802093+498711687+498989766+499328191+499877262+500492683
2696+500774147+500834402+500865997+500771123+500559889+500574017+501059537
2683+501576653+501560675+501395841+501624587+501905148+502073458+502370629
2669+502554555+502462795+502260679+502102254+502245062+502671005+502919791
2656+502840984+502889821+503255733+503530066+503526049+503696164+504375496
2642+505056001+505234692+505211447+505474948+505976176+506346150+506658938
2629+506993210+507060823+507008646+507270612+507954909+508765133+509165665
2615+509015093+508890384+509242846+509810965+510390683+511039549+511559282
2602+511942662+512462485+512905985+513075559+513460608+514189860+514721870
2588+514889322+515016108+515401563+516033233+516733056+517459013+518070281
2575+518462733+518827652+519150550+519302927+519309246+519245831+519452912
2561+520135403+520990628+521562448+521669328+521655742+521899157+522342296
2548+522691418+522783043+522852325+523267886+523957284+524547338+524961319
2534+525225903+525343706+525494548+525763510+526140570+526484096+526593052
2521+526629657+526778875+526968037+527178864+527350198+527359044+527368297
2507+527526180+527678602+527742379+527807780+527978437+528155232+528059500
2494+527883788+528128782+528606901+528838355+528832262+528800306+528974393
2480+529351815+529648896+529797436+529806734+529647587+529478058+529327532
2467+529108941+529058977+529244663+529258159+528987257+528792136+528749168
2453+528469960+527982815+527750864+527801100+527907890+527962188+527828181
2440+527443763+527036778+526804286+526610881+526357356+525991850+525518967
2426+525225226+525158471+525018009+524627318+524036271+523572279+523330850
2413+522948644+522501488+522299417+522159498+521823555+521265006+520574886
2399+519961768+519840624+520557554+522600425+527472063+536911353+551828854
2386+572571930+598321236+626545630+654519116+680725058+705379291+730510198
2372+757601514+785377353+811453936+834235730+851395375+860440227+861730917
2359+856932127+844894983+824672814+799825718+775954357+762045631+765214312
2345+780106087+787825043+781541391+771112599+762736292+759046206+761810475
2332+767201802+767289364+762138519+758748674+758763479+756820447+748255204
2318+734238333+720890728+715228409+716658703+715955495+706779705+690090686
2305+670786797+655078389+644399096+635261581+625457823+614564905+602325464
2291+589652001+578000041+567756801+558665099+551030952+545272810+541023679
2278+537604406+534658783+531993857+529621724+527849440+526543629+525185281
2264+523817725+522725811+521841610+520988145+520159099+519589491+519341969
2251+519056940+518624769+518328636+518093210+517768416+517636305+517776540
2237+517964077+518110181+518245361+518421073+518656454+518984091+519400781
2224+519832094+520344922+521092543+521938425+522539628+522899356+523359692
2210+524086642+524868205+525499062+526166839+527076993+528080352+528992176
2197+529915645+530984405+532009429+532833871+533742807+534937133+536184854
2183+537335174+538338171+539146139+539964082+540835419+541637384+542573040
2170+543723314+544738950+545572148+546743997+548297555+549501766+550189719
2156+550868103+551512907+551852821+552119436+552529987+552810684+552763337
2143+552722940+552876401+552851350+552334551+551480319+550651770+549852919
2129+548749180+547317261+545898567+544605620+543150727+541409631+539725271
2116+538277464+536730902+534852910+532748294+530640068+528770156+527090218
2102+525377196+523614842+521884488+520205544+518575706+516959726+515341759
2089+513824896+512372711+510901750+509584521+508538419+507658821+506711024
2075+505654586+504900194+504716448+504842466+505020660+505192536+505182741
2062+504939417+504705525+504812993+505460279+506457634+507483696+508444943
2048+509509370+510794644+512228729+513746766+515112742+516233272+517415412
2035+518728715+519830288+520601290+521365296+522118109+522552491+522691147
2021+522783268+522863068+522385039+521092679+519654396+518453841+517233742
2008+515782596+514055041+512026523+509822023+507721559+505828628+504217432
1994+502931977+501331478+499094345+496935837+495070709+493369378+491830263
1981+490302657+488784620+487398423+486300371+485445101+484695674+484106974
1967+483337190+482233631+481463938+481109400+480741863+480470509+480404928
1954+480337902+480281573+480381051+480651637+481221336+482046590+482617236
1940+482989332+483650700+484553723+485482924+486260155+486982772+487928583
1927+489083190+490283790+491321046+492100172+492600949+492849825+493248099
1913+493825922+494211919+494323358+494287656+494252406+494255385+494142862
1900+493977938+493939979+493712677+493171098+492674745+491986882+491238764
1886+491147365+491216016+491060886+491131567+491142761+490785650+490811603
1873+491733312+492761044+492778466+492606590+493672281+495219024+496079078
1859+496080387+495824063+495858953+496290853+497085551+498136528+498890604
1846+498629812+497259006+495877459+494956923+494173103+493717507+493432296
1832+492146706+489193456+486614377+485627854+484372866+482420717+480768809
1819+479443545+477604144+475227678+472897611+470378111+467907357+465850720
1805+464437488+463788396+462088374+458731116+456372975+455183479+453320562
1792+450705962+448985583+448496903+448236382+447287141+445902659+444666221
1778+443563610+442445427+440797355+438538692+438146873+439428581+439649970
1765+439150953+438729750+438391957+438465302+438356842+438378146+439435532
1751+440170109+438935206+437817836+438182845+438397419+437467360+436323450
1738+436392868+436852120+436071820+435602006+436041264+435991705+435910552
1724+436167372+436493745+436553369+435554930+434068849+434264511+435279785
1711+436194679+436650094+436344934+436173826+436805360+436313881+434292405
1697+434191798+435924499+438194265+440414517+442186576+443188716+442823661
1684+442409138+445087109+447970806+449315117+449580693+450043014+451439953
1670+453214991+455647650+458675600+461098194+462810720+465047040+467870076
1657+470340243+471219524+470247309+472258450+475430245+477665889+480602304
1643+484607344+488193302+490713073+491854861+492678942+496135858+500602497
1630+504328826+507564579+510705005+513926270+518221891+522787692+526097782
1616+529468490+534702203+540190119+544890379+549115724+553568190+558382777
1603+563358723+568375020+573534215+579011570+585049234+591636105+598398237
1589+605206859+612000360+618741278+625228942+630951246+635342193+637986492
1576+640401007+644974165+649844900+654183219+659273719+665096494+671054494
1562+676437200+680296317+685636911+695853432+706678828+717183763+726885108
1549+735900396+744100856+750974427+754620370+756499039+767256506+781265433
1535+790925480+797936082+805145640+812838147+820251176+826507295+831142334
1522+836012437+842908125+850415757+857524935+864965496+872533971+878068015
1508+877853803+875355472+883068650+892498687+898039502+899658687+901234272
1495+905924105+910650317+912021709+910272624+911027287+915196710+919678288
1481+922508635+924009837+925301068+925042894+920825448+917180227+919948288
1468+923562636+923692716+923430299+926235460+928465598+924427519+919031860
1454+923566788+930481342+934826341+936615777+938928783+943527893+948398268
1441+951814201+953183788+953097218+955538137+960532002+964935135+969882510
1427+975320958+977798888+978527734+980022707+979609087+979320581+983713334
1414+988898753+992421205+994664070+995692344+995306346+995321873+997421027
1400+998657194+997124127+994562335+992480242+993429799+996567157+996812152
1387+992101918+988617469+990228079+994241784+997633615+998914646+998053735
1373+997417146+999155218+1001261233+1002011924+1001813509+1000494654+999259570
1360+1000013963+1001546217+1002139476+1001750409+1001267371+1001019488
1348+1000496279+998715599+996868390+995477229+992013543+988271371+988293397
1335+990628971+992634515+993272909+993372387+993870591+994495896+995437510
1321+996482303+996776224+997199323+998950845+1001732897+1004912953+1009194130
1308+1016736065+1026310084+1032402001+1032803435+1031613577+1033323214
1296+1036989828+1039461440+1041071056+1043380632+1045830127+1047354257
1285+1048800303+1050971133+1052982273+1054437888+1055807926+1057121275
1273+1058118585+1058541503+1057611083+1055157526+1052813016+1052001843
1261+1052208473+1052104301+1051749356+1051902636+1052326998+1053517127
1250+1056738978+1060384560+1060975111+1059678192+1060448652+1062692149
1238+1063662920+1063389490+1062790183+1062113244+1061745120+1061043897
1227+1059310339+1058326117+1060011742+1063103242+1064298968+1063068849
1215+1061958700+1062279071+1063769981+1065711614+1067625803+1069614467
1204+1070940453+1070253673+1068502964+1068228541+1069672240+1071335026
1192+1072129408+1072766448+1073741823+1073015866+1071148436+1070475649
1180+1070627123+1071383231+1072688093+1073177541+1072025777+1069659512
1169+1067294691+1066073870+1065356308+1063630694+1061241409+1059610218
1157+1059147400+1058844993+1058187913+1057765898+1057042920+1055090365
1146+1052101593+1049097204+1046930166+1045260970+1043621113+1041603744
1134+1038256958+1033567486+1028923962+1025732984+1023834320+1021033492
1123+1015929046+1009854731+1004420255+999754344+995120660+990515410+987136127
1109+984741065+981027600+975144389+969248359+965494723+962850063+959241763
1096+955303343+951708674+947858900+945512494+945355062+944594803+943121314
1082+942402489+941638528+940959783+940442802+938125734+934516171+932503405
1069+931639154+929921122+928504595+928443662+928459098+927514145+925840707
1055+924724329+924287690+923425695+922666428+921811294+919893222+919335620
1042+921155116+922274022+922173731+922218505+921798476+921094816+921893892
1028+924350699+925922943+924960116+923351673+923331723+924175664+924387168
1015+924540628+925141109+925580456+926368068+928363411+930404792+930662606
1001+929950099+930190400+930884040+930819135+930174783+929137934+927939410
988+927256241+926726533+925901549+925166746+924172956+922658665+920824455
974+918782351+917363206+916409948+914757904+912776733+911273907+909907118
961+908239638+906824374+906585337+907446068+908236659+908432546+908825946
947+909752033+910983145+912701086+914800782+916729415+918372523+920202761
934+922534723+925512573+928861435+931847047+934557244+937065234+938894841
920+940654577+943099108+945267319+946238180+946706053+946581299+945145905
907+943274955+941926040+941294867+941585900+942828837+943913078+942757523
893+939670085+937512526+937280711+937624913+937537260+936992205+936519458
880+936703700+937467932+938692815+940694928+942878306+944823007+947888148
866+952694701+958408745+964058607+968850085+972963810+976338309+978344755
853+978972768+978641836+978705387+979889467+981130689+982136666+983092361
839+982880948+982024550+982500908+982683345+981129425+980779626+982745632
826+985219500+987455415+989789092+992819479+996379304+1000466851+1005288027
812+1008500490+1008440009+1008098876+1009652796+1012129552+1015367562
800+1017434941+1015949718+1014602608+1016870569+1020767645+1023834050
789+1026217737+1029681062+1033978128+1037338183+1040621238+1044232065
777+1045820468+1045206627+1044997560+1046280217+1048564065+1051035767
766+1052023689+1051095526+1050001174+1049612920+1048812039+1046939915
754+1045708984+1047761107+1052870609+1055785268+1053462062+1050014354
743+1047349022+1044729727+1043899056+1043892467+1042963220+1042794865
731+1043676449+1043673380+1041751697+1038099616+1034387686+1033362211
719+1034625729+1035278116+1035729559+1036751785+1036222618+1033638981
708+1032093095+1034342189+1037913478+1036981162+1030889967+1025889874
696+1026108871+1027926381+1027846762+1028556109+1031907769+1035344194
685+1036380862+1035839148+1036418957+1037819236+1038146918+1038140960
673+1038356075+1036021495+1029343540+1026045140+1028581114+1028830622
662+1028834053+1028380713+1023500319+1022035587+1030029688+1036437011
650+1030470299+1020484014+1018369333+1022092367+1022008235+1015118776
638+1006724866+1001688394+1002143629+1007676229+1016528714+1023341894
627+1022698444+1017791510+1009835774+1003518541+1008475756+1017099044
615+1021596420+1024951781+1021169981+1014790371+1020740834+1030145054
604+1025065703+1013482529+1005452952
##END=
