##TITLE=Sample description
##JCAMP-DX=4.24
##DATA TYPE=INFRARED SPECTRUM
##DATE=24/8/2023
##SAMPLING PROCEDURE=Instrument type and / or accessory
##ORIGIN=Default
##XUNITS=1/CM
##YUNITS=ABSORBANCE
##RESOLUTION=4
##FIRSTX=4397.6552
##LASTX=599.8556
##DELTAX=-1.9287962
##MAXY=1.5161251
##MINY=0.49736324
##XFACTOR=1
##YFACTOR=1.4120015e-009
##NPOINTS=1970
##FIRSTY=0.7080406
##XYDATA=(X++(Y..Y))
4398+501444642+502451335+503267774+502448295+501421763+501582889+502288182
4384+502075935+500910396+500704524+502803812+505578253+506258387+504642436
4371+502548086+500821706+499792557+499778837+500166563+500699542+501547430
4357+502519508+502866034+501446457+499752750+500288600+501559461+501080303
4344+499947013+500125447+500943913+500790300+499638902+498459178+497990658
4330+498341320+499359241+500841969+501960188+502109115+501860439+501831523
4317+501763434+500896339+499460932+498685313+498877213+499621088+499942708
4303+498988570+497792088+497520913+498427012+499832997+500116372+499813410
4290+500253183+500079182+499034835+499040661+499637213+499632992+499902563
4276+500290753+499307193+497210142+496037679+496864249+498494173+499329312
4263+499050370+498709627+499211623+500155503+500861935+500791524+500126376
4249+499657095+499536915+499844394+500130428+499276462+497443832+495880309
4236+495718128+496832294+497495881+497020268+496040761+494812197+494361743
4222+495409298+496576104+496719797+496566184+496898737+496944201+496219785
4209+495450202+494743854+494306276+494777287+495449147+495278143+494638364
4195+494208595+494135314+494631062+495369112+495539356+495570425+496227679
4182+496701392+496795189+497613612+498283488+497233570+495319596+494000317
4168+493404735+493392916+493762996+493796302+493651132+493964140+494519113
4155+494878007+494840775+494719709+494545243+493943498+493243567+492846766
4141+492866437+493344118+493974694+493864602+492700498+491920868+492225688
4128+492462206+492033366+491583292+492179000+493390130+493027859+491641335
4114+491845940+493027099+493473753+493269739+492797588+492470353+492248736
4101+491860462+492083852+493096835+493502120+492883153+492325183+492467778
4087+492824899+492234341+490749419+489898914+490153457+490479679+490621092
4074+491491437+492441438+492181237+491667253+491782917+491862024+491315451
4060+490111371+488987664+489052968+490310954+491363869+491379784+491205318
4047+491469444+491658600+491449899+491117726+490888848+490827935+490832831
4033+490698426+490658914+490725864+489963753+488738904+488850177+489982326
4020+490548992+490770567+491129757+490880659+490016012+489117258+488108919
4006+487863915+489155123+489987687+488821599+487521653+487690927+488650088
3993+489565981+489875317+489209451+488323825+488182158+488785507+489412326
3979+489465683+489291893+489433559+489474463+488841059+487788734+487250267
3966+487749476+488292840+487779490+486849160+486689173+487230131+487428574
3952+486800489+485910557+486076918+487576657+488162825+487162253+487045957
3939+488264516+489411186+489304261+487003533+484490685+484739445+486193045
3925+486403266+486293765+486705636+486026896+484384984+484457041+486313394
3912+487688225+488273465+488398204+486209508+481918316+479886273+480517524
3898+482375524+485144773+486494994+484480553+483153338+485256088+485794387
3885+483931195+483725492+483365880+483439373+485057477+484730834+482839950
3871+481264143+480712717+482847337+484189369+483139788+483620677+485860577
3858+487961132+487291973+479132942+474253007+479341136+485105304+487427519
3844+486075314+483355580+480883890+478380286+477845534+479222644+480505198
3831+482380758+484740163+486008786+486632397+484660127+478454834+476807983
3817+478658638+479522102+482757424+486850131+487887006+484849283+482756960
3804+483433336+482452731+482158761+483614683+483950993+484941560+487187581
3790+488913919+489218189+488279417+487722460+488177810+487318019+485850952
3777+486893104+488722947+489052123+487422918+485347057+484676295+485263560
3763+486915266+487239840+484851140+483951964+485508437+485622243+480977645
3750+476545546+478607814+480897778+480144405+481871038+484978665+485046713
3736+480903139+476956995+477971455+482164417+485737231+486584865+485769439
3723+485547568+486154801+487124937+488140199+488570643+486490055+482902425
3709+483909371+488264009+492496399+495518630+498061618+502326722+507765809
3696+512595384+516042445+516778553+514436414+514603028+518599533+521551226
3682+521524800+519462110+516164483+508771277+501498674+500914701+499114153
3669+495335679+495272908+495646619+494140379+492247849+490547472+487454493
3655+484938521+485028772+482621076+474888986+472268875+475735101+478651968
3642+479484660+478853155+477394869+475013809+472337598+470299560+465347103
3628+457353082+455782468+457290818+456395525+451751602+446418765+445094969
3615+444724636+442520491+439888475+436627109+433855200+433345311+432489403
3601+429764350+427286666+425706849+423499495+421193955+420078311+418232510
3588+413829581+411010056+411607917+412100752+410830947+409177046+408192220
3574+407323226+406842548+406386944+402522524+395816460+393986236+395621099
3561+395807849+394869752+394528587+394164713+392913016+391795219+391582973
3547+390814656+388865181+387520110+387378022+387413945+386803800+385681444
3534+385051290+384923301+384196480+382518180+380291915+378314158+377922253
3520+379025487+379780928+379096489+377564119+376284942+375391929+374564725
3507+374001986+373070812+371665334+371227460+371262623+370587766+369856977
3493+369409773+368500339+367229647+366409747+366182177+366116114+365881115
3480+365607533+365393809+364761714+363536063+362446169+362200743+362493278
3466+362285211+361044068+359439261+358535610+358449285+358773986+359205022
3453+359036128+358099509+356868370+355634657+355123163+355382815+355743819
3439+355914444+355377412+354252565+353419726+353253787+353556960+353720113
3426+353566711+353485114+353386462+353012414+352695058+352769943+353099309
3412+353365356+353517280+353765787+353903992+353665025+353383317+353260225
3399+352916105+352347477+352239876+352851330+353767180+354285955+354172318
3385+354196337+354886011+355792828+356340456+356885002+358035387+359114728
3372+359611785+360179844+360832961+361170031+361752484+363121870+364833898
3358+366056214+366571549+367162867+368272601+369302933+369794966+370063271
3345+370578226+371179126+371840644+373056713+374612468+375959945+376751859
3331+376515636+375927230+376476589+377789283+378395164+378335939+378304364
3318+378178401+377828414+377875017+378746924+379714021+379978020+379739180
3304+379588395+379908200+380556294+381285522+382079588+382302430+381598066
3291+381237399+382221846+383584266+384045948+383906519+384209439+385137827
3277+386199185+387140828+388079220+389121793+390086104+390555469+390483581
3264+390481133+390953199+391812105+393050124+394292997+394797948+394734291
3250+394863125+395197788+395405518+395800166+396765195+397753145+398024109
3237+397695862+397320420+397387834+398219681+399230300+399539003+399501644
3223+399619671+399740780+400053662+400421843+400269961+399954884+399949945
3210+400051509+400429483+401000201+401096953+401006111+401494514+402326192
3196+402494875+402216143+402805308+403768184+404318555+405279236+406305684
3183+406477533+406457060+406934234+407724923+408423040+408834447+409079028
3169+409161850+408904309+408594973+408656730+408970246+409324496+409774316
3156+410570367+411662414+412563870+413170173+413445950+413104870+412537402
3142+412561168+413150249+413496015+413384573+413280222+413137332+412818793
3129+412887389+413587363+414337824+414765567+415026907+415234552+415285841
3115+415138180+415148438+415705014+416507861+416927330+416713607+416115112
3102+415969647+416971781+418229766+418203130+417339961+417119399+417474536
3088+417765763+417940524+418036769+417921528+417552672+417482767+418023261
3075+418632646+418793646+418619940+418614199+418799514+418894197+418862200
3061+418744890+418729145+418856163+418964439+419079638+419229874+419221896
3047+419006694+418920580+418990822+418910956+418914755+419246084+419500670
3034+419556939+419619794+419587586+419536171+419555335+419496406+419653185
3020+420330490+420959926+420944899+420652659+420682292+420839662+420626614
3007+420651857+421698398+422900283+423280073+423293792+423729176+424695766
2993+425580463+426028215+426608516+427630616+428799026+430251825+431791413
2980+432640398+432890129+432901696+432819887+432985277+432861594+431856167
2966+430973960+431018833+431317658+431050872+430290787+430021300+430676317
2953+431414072+431867691+432479778+432967632+432813302+432520556+432594470
2939+432644450+432351915+432080149+432263437+432801947+433263502+433360170
2926+433058728+432513844+432051402+431731470+431418757+431357929+431438049
2912+431237495+430990001+431111448+431672583+432344021+432794306+433090936
2899+433274267+433381783+433782130+434547238+435059618+435043830+434965779
2885+435034923+434975403+434864510+435187143+435789816+435953898+435522567
2872+435058478+435178996+435763391+436015824+435686732+435374610+435545657
2858+435930765+435841907+435249196+434798785+434602199+434473492+434725925
2845+435527632+436227564+436384849+436534662+436973550+437374361+437662337
2831+438035921+438585153+439257520+439958591+440533235+440914966+441211005
2818+441516837+441896204+442319895+442731766+443197163+443687803+444074853
2804+444387650+444593396+444589006+444737975+445382692+446125934+446589263
2791+446960188+447347575+447518284+447395149+447356566+447799802+448544310
2777+449073448+449313893+449665400+450292430+450919122+451338549+451655906
2764+451852702+451864226+452001671+452403369+452943947+453540288+453912606
2750+453901251+453799391+454150053+455003344+455760390+456216458+456532970
2737+456839478+457333495+457958583+458588400+459206776+459525694+459438989
2723+459506867+460031320+460651934+461108382+461528906+462074592+462581949
2710+463014040+463573191+464047031+464224198+464420151+464850891+465280787
2696+465632969+465938463+466016093+466040407+466281063+466673896+467034985
2683+467191299+467434150+468022766+468581580+468853305+468903200+468945455
2669+469250992+469590975+469596673+469510728+469608409+469751932+469947969
2656+470344939+470904513+471532007+472007451+472043121+471767555+471695624
2642+472044260+472518649+472797634+472834739+472980373+473513268+473942025
2629+473949792+474018979+474226582+474326457+474582183+475093592+475648733
2615+476238785+476658212+476798401+477186886+477838695+478151239+478353523
2602+478831415+479166417+479252193+479460049+479767106+480009366+480307051
2588+480732599+481037756+481008080+480820275+480797607+480977602+481200571
2575+481468327+481730722+481660818+481288289+481200106+481581964+481991218
2561+482145590+482157874+482191054+482191265+482064457+481909452+481813206
2548+481889612+482301229+482777517+482968615+483164356+483575805+483839129
2534+483762428+483525023+483353132+483416578+483798816+484367296+484804411
2521+485002473+485011929+484914755+484919778+485064949+485258283+485471627
2507+485693836+486033861+486433448+486562704+486480009+486554556+486661819
2494+486547465+486460168+486486467+486354045+486098868+485969528+485994518
2480+485965434+485789701+485668466+485659390+485648415+485724271+485827651
2467+485675304+485380025+485172169+484898081+484530618+484367550+484424790
2453+484272317+483812619+483648284+483949515+484043524+483671670+483138353
2440+482614998+482278477+482211569+482249012+482241118+482102702+481929883
2426+481840687+481736548+481641231+481561069+481320244+481057638+480996472
2413+480969624+480745263+480388268+480091259+479814680+479534175+479412813
2399+479339490+479125428+478879116+478706339+478554921+478395272+478264876
2386+478020590+477368950+476114426+474127255+471332847+467940873+464666167
2372+461838918+458770633+455332900+452231520+449693978+447643487+446472713
2359+446741651+448247596+450728742+454335199+458401650+461064480+460678317
2345+457592978+454544659+453267256+453318629+454184372+455146362+455611927
2332+455992181+456720100+457656804+458579999+459377274+460388863+461802615
2318+463360565+464995301+466543036+467722633+468634769+469588906+470667614
2305+471695118+472433801+472941622+473487350+473962582+474289648+474698648
2291+475118962+475450122+475778833+476042622+476125190+475947558+475767858
2278+476011975+476430094+476611609+476721911+476904820+477030614+477098366
2264+477258353+477517708+477758491+477945705+478148622+478436809+478750240
2251+479121629+479668834+480183198+480388015+480370835+480395445+480648426
2237+481198334+481833131+482184848+482267586+482397348+482645433+482875156
2224+483130332+483558498+484110093+484535261+484690267+484837843+485232323
2210+485771086+486345138+486773008+486912733+487102902+487596370+488147417
2197+488520157+488766216+489134439+489662817+490076081+490402387+490892056
2183+491434914+491828549+492203863+492710207+493276070+493860930+494386733
2170+494791682+495263875+495903062+496567915+497094689+497516945+498044437
2156+498653906+499194316+499718431+500264159+500691226+500801149+500675270
2143+500707605+500921244+501018376+501009343+500986843+500911113+500654079
2129+500141319+499588162+499045600+498337225+497571315+496912836+496284033
2116+495538385+494571541+493428881+492402897+491663496+491071587+490374948
2102+489315363+488084942+487089900+486237073+485366517+484413519+483239242
2089+482055128+481121042+480340821+479573602+478745681+477828437+476788143
2075+475689891+474755678+473984744+473114526+472022985+470979398+470204665
2062+469476282+468687028+467955774+467264581+466583307+465916977+465190704
2048+464418124+463730730+463076768+462388572+461769520+461258744+460858946
2035+460473880+459896703+459142021+458367668+457665753+457123191+456757712
2021+456451964+455979475+455216688+454491091+454123881+453927127+453678704
2008+453371479+452977591+452383993+451562489+450784885+450397371+450230799
1994+449726777+448832329+448150295+447901619+447763119+447561046+447242423
1981+446802143+446323026+445849820+445453990+445222790+444993405+444315931
1967+443289060+442759247+442769758+442731977+442592843+442281692+441650103
1954+441040127+440726697+440442984+439976616+439470273+438857890+438324320
1940+438472529+438821038+438679794+438289156+437920511+437517843+437077267
1927+436548171+435654186+434585441+434005858+433601965+433182791+433404662
1913+433771492+433348012+432484844+432098300+432163941+432268123+432336676
1900+432250731+431818387+431230361+431048424+431013809+430430934+430049118
1886+430413838+430698521+430723258+430761925+430765682+430699746+430638917
1873+430373862+429075183+426833510+426232272+427875493+429528465+430084113
1859+429885966+429667556+429693391+429725852+429631295+429244625+428437600
1846+427120727+425979122+426648660+428021296+428465291+428397413+428420335
1832+427684100+425880217+425101389+425788784+426432952+427130225+427836235
1819+427997615+427772494+427534286+427107008+426374361+426092674+426477867
1805+426775468+426365032+425088557+424005585+424093641+424270809+423184798
1792+421914824+422963012+424946679+425766242+425432170+424712356+424115170
1778+424144804+424099847+422545864+419898188+419844029+422432100+424736164
1765+425746444+425270536+424547641+425049257+425852145+426556552+426706028
1751+424925953+422409094+422377688+423863624+424685424+424455195+424184948
1738+424740765+424338138+421701227+421514984+424428854+427268050+428964079
1724+429404190+429265647+428232487+424615477+421063010+422900537+426553132
1711+428887927+429332682+427945989+426504377+426327758+424611045+420936329
1697+420385578+423236509+427005443+429284517+429529056+428589608+425443314
1684+420934261+422476424+426638234+429042637+428832881+427421325+426513790
1670+425489284+426168320+428766607+429726570+428785307+429225419+430867288
1657+431175485+428023491+422056153+422511798+424300822+423960502+426688129
1643+431984917+435479341+436464505+435260509+434778227+439777962+445805750
1630+449848308+452742887+455656378+458962363+463812876+468980830+472217629
1616+475543032+481721773+487916344+492542917+496518104+500841631+505219191
1603+509541198+514078956+518531021+522494177+526307224+530417956+534584789
1589+538705525+542878775+547043244+551064864+554756423+557605032+559128874
1576+562226877+568954766+574590142+578367604+583662238+590521535+596873517
1562+601378391+602280691+604516285+616335722+628665723+639082172+648195721
1549+657140925+664715688+669896094+673552658+679280143+695183422+711525208
1535+722692793+733675992+746548049+757815932+767204160+776199724+784334483
1522+793226203+805535393+818984669+832372736+844906076+855202388+861817567
1508+864638147+873243242+889730072+902368438+911493004+918910989+927088973
1495+936457108+943233119+945617640+947624440+955479243+964700561+971113710
1481+975719388+979820623+982011386+980031434+975994532+976553515+981817460
1468+986012407+986768186+987030328+989464492+989887211+983550552+978279515
1454+983175702+989368922+992274012+991838713+992443201+995823608+999183247
1441+1001116174+1000238991+995909722+994768455+998177398+1000207331+1002203409
1427+1005465958+1005717546+1004720309+1005215889+1002478046+998696026
1416+1001147496+1005499390+1007576686+1007533038+1006618032+1005415302
1404+1004967508+1004711529+1001683684+997394687+994722865+992681535+993726726
1391+996766222+995372944+989305771+986588191+988238039+990020689+991081751
1377+991913261+991803592+990587101+989321137+988155808+987480655+987458874
1364+986817153+986584476+987915617+988749828+988661181+988799639+988752445
1350+987300997+985336326+985218299+987012008+987518647+984581137+981426400
1337+981444130+982371124+982158456+981857478+982478092+983959088+986310852
1323+989025984+991334775+992849964+994191236+997039930+1001232344+1004856742
1310+1007689057+1010887948+1014059402+1016402723+1019135500+1022593579
1298+1025251892+1027054045+1029410536+1032637204+1035583156+1037926477
1287+1039772869+1040301458+1040135139+1040672256+1041542686+1042276176
1275+1043501785+1045129851+1045652953+1044007411+1041391226+1039397680
1263+1037876328+1036878332+1037126206+1038444936+1040301374+1041585743
1252+1041642646+1041893981+1043317653+1045265946+1046670790+1046160436
1240+1044672095+1044896076+1046697131+1048432418+1049219519+1048794604
1229+1047592719+1045668741+1043866336+1044076893+1046293660+1049085451
1217+1051597370+1052943286+1052486374+1051491247+1051624133+1052349604
1205+1052697691+1053353679+1054415924+1054567300+1053784504+1053108254
1194+1052256398+1051507035+1052527996+1054747549+1056147665+1055916339
1182+1054516475+1053912325+1054941052+1055685519+1055357947+1055543261
1171+1055589273+1053326241+1050447914+1050037436+1051733465+1052389453
1159+1050529131+1048138447+1046786538+1045635477+1043473249+1041489497
1148+1041204814+1041323516+1041200592+1040988430+1038812103+1034771065
1136+1032082442+1031310791+1029975260+1027426869+1025072234+1023032508
1124+1019980517+1016320154+1013704054+1011483825+1008590302+1005815734
1113+1003421673+1001212757+999626482+997861815+994580439+990511624+987573439
1099+986175011+985346541+985329403+986742774+989189179+992929409+996996113
1086+998228645+996666853+995345336+994684705+993975782+994431596+995791273
1072+995457876+993963540+994840217+998268240+1001316854+1002970923+1003514203
1059+1002388133+1000076893+998299731+998258869+999712512+1000859942+1001058005
1045+1001451598+1002375891+1003167804+1003019806+1002518655+1003320699
1034+1004708574+1004660029+1003809018+1003607156+1003236949+1002122445
1022+1001095828+1000184198+998783491+997004049+995954468+996409607+997633696
1009+998141433+997266951+996292593+996611216+997232758+996326448+994471192
995+993965144+995212788+996076717+994563216+991761716+990457423+990797490
982+991330132+991265209+990007603+988349396+987519154+987464783+987713839
968+987371408+986069226+984688527+983495675+981671573+978834783+976255407
955+975915932+977646575+978937445+978333547+977054750+976833724+977314022
941+976980878+975802885+974479343+973948811+975616051+978572050+980300921
928+981140113+982961429+984436516+983620794+982899376+984574890+987079971
914+988810530+989762852+989557698+988070369+987471284+988688113+988975076
901+987370733+986261294+987381455+989752721+990610402+989259168+987904135
887+987639123+987292133+986498277+986532807+987897043+988957431+988131916
874+986598913+986144702+986755269+987704130+988904411+990953171+993675817
860+996297490+999049094+1002226457+1005157044+1007123742+1007633504+1007350172
847+1007976273+1009644948+1012184475+1015770121+1019071590+1021491569
835+1023257756+1022765470+1019497771+1016533752+1015766997+1016395378
824+1018060676+1019480126+1019974270+1022669224+1028206456+1031273813
812+1030462903+1030962872+1034210309+1036170422+1034687146+1033433001
800+1036025885+1039621155+1041305449+1042523122+1043012031+1041600433
789+1039844630+1039127602+1039318827+1039899760+1040940392+1042304544
777+1043433231+1044395516+1043702887+1041683930+1041744885+1043349988
766+1043759959+1042331475+1040060507+1038612859+1038564145+1038997587
754+1038859466+1037800767+1035840317+1034495415+1035140259+1036667098
743+1036620073+1034361684+1033842466+1036068182+1036598967+1034549447
731+1031457945+1028137987+1027245691+1029293353+1029731861+1027406269
719+1027002207+1029026315+1028278134+1024224600+1023057836+1025324499
708+1025651395+1024966111+1026983380+1029853771+1029995607+1026721745
696+1023554091+1023933247+1025168395+1025314874+1025889898+1027318550
685+1029688888+1029368070+1027574192+1029299685+1029653513+1028320262
673+1030137780+1031062579+1029156246+1030084338+1032157666+1030819686
662+1028616005+1027748446+1030346733+1035825120+1036564859+1031055488
650+1025914888+1026095052+1034071175+1044427176+1045260289+1036462282
638+1029427337+1034417574+1055186731+1073741823+1069012630+1054174382
627+1040734140+1028240226+1029470394+1033158449+1010925096+988642523+990025416
613+997984063+1011686785+1038181696+1055051312+1045982636+1028816348+1015366566
600+1005780275
##END=
