##TITLE=Sample description
##JCAMP-DX=4.24
##DATA TYPE=INFRARED SPECTRUM
##DATE=24/8/2023
##SAMPLING PROCEDURE=Instrument type and / or accessory
##ORIGIN=Default
##XUNITS=1/CM
##YUNITS=ABSORBANCE
##RESOLUTION=4
##FIRSTX=4397.6552
##LASTX=599.8556
##DELTAX=-1.9287962
##MAXY=1.4432336
##MINY=0.53480297
##XFACTOR=1
##YFACTOR=1.344116e-009
##NPOINTS=1970
##FIRSTY=0.67203236
##XYDATA=(X++(Y..Y))
4398+499980906+499603620+499196268+498242099+496953526+496824749+497912041
4384+499122256+499855233+499601003+498889268+498581958+497978558+496748830
4371+495396711+494533627+494591852+495042174+495683179+497024079+498951351
4357+500215313+499527036+497459324+496140153+496536951+497153256+496774329
4344+496314694+496502938+496566972+496141705+495558570+494760274+494213368
4330+494107695+493835417+493315429+492739389+492967898+494700275+496536241
4317+496754773+495842200+494997652+494298200+493765397+493240797+492334876
4303+491840652+492327869+492747327+492680411+493034815+493545446+493485226
4290+493283767+492976280+492308623+491922468+492241884+492617086+492321084
4276+491656355+491568508+491793292+491353169+490796197+490636999+490344013
4263+490307517+490902226+491110159+490708749+490729902+491104838+490975306
4249+490280821+489787973+489968057+490322018+490651234+490971803+490587111
4236+489434411+488462904+488030719+487845712+487900389+487836887+487257078
4222+487098456+487980431+488727332+488614918+488331111+488326321+488340867
4209+487883449+487260005+487391487+487639641+486823740+486167214+486951985
4195+487603456+487047016+486464724+486297721+485970234+485736315+486137769
4182+486291424+485233666+483842834+483426081+484179190+485038061+485155264
4168+484915669+484371691+483669667+483990857+485208257+485735783+485131230
4155+484187172+483483374+482863921+482353512+482437678+482844054+483104891
4141+483333444+483326127+482653948+481526613+480734835+480802284+481143030
4128+480814966+480331696+480952835+482449075+483259078+482421093+480740999
4114+479866341+480090460+480099551+479392605+478866098+479054520+479740313
4101+480283405+480315466+480166423+479569807+478158177+477297842+477949667
4087+478697499+478455908+477796766+477416332+477517926+477828207+477918981
4074+477756856+477620229+477388838+477153012+477446530+477701824+477189419
4060+476527483+476112504+475400192+474623182+474676795+475442675+476111040
4047+476021641+475286403+474978428+475435269+475565510+474681495+473505735
4033+472791118+472674535+473303700+474623492+475811801+475751404+474651252
4020+474107406+474706594+475035766+474368110+473685509+473221219+472816217
4006+473140777+473789542+473381437+472272106+472032288+472704512+473522409
3993+474308156+474219422+472653870+471056568+470954220+472000050+472976169
3979+473946878+474849207+474117650+472547709+472125457+472052022+471589860
3966+471783381+473123305+473985369+473368222+472650190+472025149+471191022
3952+471765731+474027985+475091286+474621496+474360172+472787969+470219825
3939+469087036+469367872+470850986+472191664+471181710+469917615+470821762
3925+471973532+471682141+472023198+473638326+473518728+470716044+468477648
3912+468025153+468892007+471303481+473916502+474244210+472751429+470726731
3898+469039941+469460242+470800787+469204416+466284484+467893050+471088674
3885+471000694+469696334+467860412+466381467+467454479+468869879+469770700
3871+469650925+467579443+466961985+466627758+464260895+463377679+465445036
3858+468775823+470607843+465462730+459390720+460871484+464223335+466391799
3844+467108501+467156748+466331047+463194579+460769846+460861373+460951571
3831+461311163+462605280+463641619+464913696+465570443+462869974+461132365
3817+460746565+459164916+460168130+463215997+465031520+464010214+463801571
3804+466126617+464817423+461234003+460202719+459771953+460736631+462657828
3790+463648138+464073361+464035446+463448497+463524992+463204689+461798691
3777+461977356+463716340+465012363+464379252+462997732+463052631+463339409
3763+464167461+465760239+465682592+464839684+466556806+469471239+468744383
3750+466619643+469803915+472628816+470918124+472400972+478547525+484962098
3736+486500599+480694038+476778120+479916052+485689310+488892295+487239074
3723+482923254+478945431+477000732+477667235+480490273+482907512+482081944
3709+481767228+484755141+489415742+494640764+500133275+505676117+511328535
3696+517404669+523104225+526479224+526254440+525697114+527681547+530005706
3682+531164215+531441282+531136145+527111494+522024561+523280009+524434217
3669+522721884+523803987+526416343+528236124+530162642+533072242+536173322
3655+540138552+546461775+552591743+551875174+547433548+548494366+552004040
3642+554209887+554480701+553920891+553431058+554093615+556484291+556394936
3628+549775267+545693367+545828175+546427629+545864405+543405083+541386505
3615+540406217+539698473+539795810+538332962+534467642+532785596+533660476
3601+533727614+532904840+533432411+534113282+533163326+532942001+534015235
3588+531693427+526298031+524017508+524389783+524507297+523445725+522064693
3574+521206132+522049660+525979813+529968057+526848440+521035271+519200503
3561+518470852+517132214+517631227+519871396+520259901+519146890+521021613
3547+524451112+522951324+517555308+514405271+514958739+517025165+517478592
3534+516504734+516771247+518505973+520945739+523412821+523386081+520691599
3520+518935675+518608676+517804260+517249550+518627079+520585881+520204293
3507+519408391+521413311+523538716+522443265+519855476+518276178+518317818
3493+518821088+518191834+516767122+516584422+518328417+520509430+521017445
3480+519864035+519105472+518706767+517675483+516951375+517216114+517673354
3466+517620495+517074477+516906188+517496995+517449812+516466287+516327621
3453+517405378+518203541+517669008+515787633+513877744+513382634+513978540
3439+514848054+515389505+514734842+513265120+512578484+513298157+514567085
3426+515619389+516101639+515426089+513977653+513154745+513359929+513820761
3412+513996810+513710298+512888233+512259201+512620612+513695708+514173258
3399+513370838+512554405+512577730+512612408+512321328+512456092+513318866
3385+514018716+513401924+511694558+510299158+509906706+509993799+509881385
3372+509825422+510168030+510352283+510626246+511626222+512125900+511010494
3358+509765113+509699305+509497757+508328250+507443969+507605739+508128432
3345+508026661+507205527+506747045+507638643+509347251+510211266+509490662
3331+508311754+507639264+507150761+506659686+506409492+506327587+506093047
3318+505804584+505950745+506440578+506346079+505176838+503850217+503040480
3304+502458409+502377923+503168592+503823610+503041234+501329566+500228705
3291+500321297+501169171+502206353+502689712+502095579+501250012+501009618
3277+500828469+500076380+499605748+500237840+500934498+500888335+500402359
3264+499379590+497984234+497217023+497160085+496926786+496508038+496465334
3250+496971708+497192279+496280283+495137294+494625687+494225563+493856126
3237+494187205+494974548+495364960+494756859+493160976+491728770+491343546
3223+491519152+491419331+491601589+492421924+492363611+491230112+490752074
3210+491651565+492269733+490937924+489170249+489305234+490440729+490503787
3196+490273460+491202042+492396071+491746597+489780567+489392815+490754336
3183+491266430+489735646+489180182+491506691+492977787+491159825+489073089
3169+490239403+492445738+491112598+487671969+487471308+491030250+492727416
3156+490145703+488045485+491158850+495694398+493868764+488164906+488228319
3142+495852133+500138330+493974039+486895534+489386873+497108112+497147358
3129+489558665+486905335+494796725+502342625+496974457+486796956+486890878
3115+497622557+502627762+493152284+484127883+488164596+497963436+497272499
3102+487191980+483501911+491668727+500670025+496131550+484372445+482310009
3088+493152107+501538342+493970359+482606056+481874942+489638796+493316405
3075+486509823+479253273+480999131+489307141+491844421+484275861+477689230
3061+479141790+485581685+486792920+479679560+473624180+473948075+477937118
3047+479190924+476258221+474047230+474363675+475212126+474729299+473100822
3034+472161022+472851382+474184345+474418397+473592252+473807147+481069240
3020+511379798+570418556+616663865+605331135+565828463+534405337+515644665
3007+503319143+493372235+486382021+482768757+480168418+476841267+474074103
2993+473616376+476979712+481402713+479979110+474191396+471726974+475840448
2980+482670134+483029239+476288287+471463832+473225032+479818670+483037886
2966+477914857+471605380+471590126+480002835+488278074+484064869+474044969
2953+470502346+475862488+484816514+485410868+476821268+470712851+472962067
2939+481308081+485180319+478441718+470717951+469990607+476423494+483929040
2926+481950284+472853866+468074509+471811761+479816675+481225245+473313146
2912+466319606+466457163+472087941+476176094+473049116+467497361+465947064
2899+469346409+474521854+474925658+469761477+465653767+466312732+470463278
2885+473068007+470282396+465986221+465080787+467321312+469550883+468773828
2872+465948749+464295883+464923274+467047748+468302353+466829261+464253135
2858+463303002+464517918+465768177+464753434+462305597+460700357+460706166
2845+461799933+462698759+462558407+461983387+461898733+462407058+462846604
2831+462684435+462177928+461980815+462369099+462885229+462815563+462056379
2818+461340298+461298525+461628141+461719447+461480605+461230811+461058974
2804+460663640+460192342+460195225+460551004+460783016+460886207+460904432
2791+460767495+460727186+460878535+460925186+460923589+461081280+461097199
2777+460958710+461190013+461499718+461223582+460698273+460601601+461010683
2764+461439586+461566634+461568186+461503531+461359677+461331872+461499319
2750+461641355+461541757+461488543+461889953+462417257+462398233+461928887
2737+461705434+461961969+462436281+462843988+462973076+462870905+462799111
2723+462932855+463231961+463559847+463831016+463948840+463961124+463962144
2710+463810928+463547120+463486811+463769332+464245862+464651307+464889705
2696+465075732+465259896+465384461+465468849+465613901+465873186+466096329
2683+466181782+466332732+466472196+466319872+466192779+466534811+467154619
2669+467614343+467754783+467686802+467667822+467907285+468439157+469055728
2656+469428801+469593232+469782585+469912027+469991937+470370553+470973599
2642+471428755+471848967+472288424+472495382+472668105+473180244+473831049
2629+474259554+474589302+474948407+475192658+475405381+475820005+476408550
2615+476889914+477102547+477229728+477510121+477963059+478526372+479113543
2602+479535972+479766565+480003500+480407526+480999574+481675789+482269079
2588+482558651+482620734+482823079+483145954+483372601+483555834+483877334
2575+484460513+485207813+485896267+486385480+486735139+487172778+487752721
2561+488218386+488376342+488513723+488917128+489309536+489564696+489988589
2548+490611590+491165767+491472811+491618263+491902824+492422900+492928742
2534+493289266+493547264+493657505+493733335+493968097+494336204+494824263
2521+495508105+496261259+496731403+496795880+496629232+496514956+496795304
2507+497393738+497921752+498258019+498407639+498379835+498406974+498711978
2494+499004698+498968601+498835079+498924301+499382073+499928269+500001571
2480+499843792+500056691+500321341+500162542+499941395+500102012+500438589
2467+500653351+500692508+500347061+499850887+499846630+500126978+500183163
2453+499981881+499730845+499833149+500195535+500191633+499736743+499307618
2440+499182698+499221677+499215070+499046648+498660759+498259704+498050086
2426+497927650+497730892+497368195+496998004+496891976+496925633+496810913
2413+496464713+495953594+495449615+495139112+494845238+494339175+493909030
2399+493602252+493361060+493983706+496429991+501373955+509777707+522699268
2386+540296685+561380984+583901878+605779905+625744008+643838043+661065713
2372+678455197+696742133+715635972+733144744+746456851+754348995+758577899
2359+758808404+750397247+733237824+713449416+695694751+685442174+688135903
2345+698966693+701577630+692939383+683400758+676345756+673047607+675954280
2332+681636054+682200432+678279680+677870155+681895250+682872567+676421409
2318+665215816+654932153+651727261+655029934+656142058+649300799+636111039
2305+621160966+609074330+600841040+593753312+585864183+576767233+566624055
2291+556577592+547327963+538616503+530820232+524593814+519627100+515344805
2278+511706753+508754937+506222446+503821349+501706453+500108176+498883016
2264+497868228+496948072+496030222+495202658+494547063+493976789+493350639
2251+492663870+492107608+491898212+491976347+492058651+491960649+491831207
2237+492005704+492394209+492681253+492974728+493432145+493941224+494420947
2224+494851358+495230418+495599545+495941665+496325381+496971442+497889026
2210+498741023+499349568+499953368+500645591+501350275+502147286+502961191
2197+503671197+504364706+505107305+505938018+506822964+507605385+508345500
2183+509108010+509735002+510469753+511639792+512863533+513630477+514009759
2170+514455735+515218023+516031530+516619720+517134387+517630960+517891087
2156+517913615+517935565+518158487+518492493+518698519+518642201+518378881
2143+518143631+517851399+517303873+516543314+515614555+514654932+513612517
2129+512449352+511470794+510632853+509589330+508154640+506362975+504664566
2116+503370450+501955405+500068975+498232033+496826478+495684953+494448086
2102+492911004+491199603+489508423+487952139+486583036+485404660+484275684
2089+482863611+481068929+479295268+477929446+476916787+476004835+474883486
2075+473492077+472215078+471222507+470434321+469946705+469469200+468447450
2062+467222511+466380092+465756071+465107439+464596364+464414550+464361780
2048+464214954+464148703+464443729+465004780+465310582+465338342+465453949
2035+465747912+466322178+467029789+467679751+468460930+469447958+470397471
2021+471240555+472102664+472340618+471350397+470025462+469182377+468558711
2008+467783430+466721991+465400292+464017708+462711885+461467878+460400497
1994+459626413+458512869+456506530+454209023+452128051+450446095+449200802
1981+447998170+446592437+445207991+444172316+443305463+442454086+441972368
1967+441386971+439879556+438167224+437101528+436498216+436009269+435246449
1954+434138626+433312835+432960693+432691919+432628683+432937057+432704690
1940+431583962+430651789+430264658+430112422+429973623+429782230+429713407
1927+430018721+430740567+431328403+431359222+431109827+430807572+430731654
1913+430952225+431328314+431747417+431855752+431720855+431809545+432055525
1900+432298447+432718792+433079670+433041489+432925217+432665267+432133705
1886+432028165+432319732+432746197+433461612+433782448+433335274+433281572
1873+434497331+436104389+436304695+435449327+435757302+437071772+438060973
1859+438138089+437747810+437592337+437957871+439148043+441250655+443163160
1846+443808777+443348389+442546057+441877869+441427724+441508121+442175290
1832+442118218+440196356+438395200+438238574+437785769+436326335+435200064
1819+434764199+433629280+431533852+429700591+427861477+425854029+424161386
1805+423273158+423715587+423175244+420043965+417534977+416447197+414996987
1792+412854376+410903380+410037014+409932005+409235835+407878173+406636827
1778+405442886+404270674+402776562+400756077+400548720+401778315+401483466
1765+400466372+400026826+399860000+400032502+399914145+399796188+401133541
1751+402734257+402083008+400670624+400566857+400442204+399153232+397884525
1738+398197955+399373005+399898802+400123276+400228728+399504798+399166447
1724+399785501+400575460+401388124+402335597+403048086+403103295+402885207
1711+402996867+403498319+404071743+405068748+406690085+407207102+405766603
1697+405096996+405530068+407010432+409502836+411958566+413343677+413407534
1684+413817325+416497795+418658454+419344779+419332407+419701933+420867582
1670+422189148+423936202+426362487+428550596+430308293+432393345+435041975
1657+437687102+438993058+438013702+439433402+442424198+444317812+445739331
1643+447951075+450306409+452413544+453608593+453422168+454743955+457725216
1630+460385553+462428344+464491710+466608202+468887262+471324988+472914485
1616+473912954+476516131+479980440+482762105+484792878+486832875+489232553
1603+491893555+494644888+497525220+500525949+503471778+506521241+509918679
1589+513504848+517001884+520610891+524524414+528497537+532164591+535081641
1576+538115849+542620090+547127613+551200112+555915257+561210079+566353861
1562+570980184+574958051+580171366+588205680+596559898+604823254+612677128
1549+619884145+627143621+635024413+640466503+641906913+648319048+658550118
1535+666916885+673947276+680548718+687008346+693703179+700020327+705320691
1522+711591233+719773570+728501748+736789049+744327854+752651030+761474239
1508+766539665+766085839+770859121+778600936+784926465+789856816+795336511
1495+801627273+807777197+813806058+819161588+824238099+829607110+835303296
1481+841686740+847634095+851917721+854863107+857236710+860467056+866039964
1468+872147405+877000684+881964382+888073065+893064346+894661825+896259393
1454+902621817+909406404+914635994+918831018+924133245+930679612+936386884
1441+940674944+943846312+946477913+951157361+958223272+964428537+968752250
1427+972609544+975831819+978828291+981858641+983964136+987404499+992919315
1414+997317439+1000092363+1002576828+1004231601+1003826822+1003438715
1402+1005755025+1008021136+1006522457+1002944802+1002227834+1005678752
1391+1007725888+1003975554+998128329+997355398+1000599580+1004175727+1007133529
1377+1008889941+1009448509+1010799963+1013514135+1014863815+1014225604
1366+1013289395+1011865393+1011611563+1013594044+1014601293+1014259572
1354+1013944635+1013009490+1010683691+1008416959+1007847837+1008243127
1342+1007537866+1005112468+1002928927+1002401932+1003050432+1003775914
1331+1004068590+1004920632+1005968767+1005961317+1005407006+1005229716
1319+1005948369+1008179891+1011848896+1015649606+1018638184+1022733432
1308+1030137074+1037955251+1042091296+1043032915+1042786092+1042871766
1296+1043984556+1046105393+1049047409+1051316713+1052115985+1052694863
1285+1053919757+1055220392+1056050971+1057050327+1058510692+1059718824
1273+1060234288+1060389141+1060659290+1060295484+1058301650+1055428635
1261+1053530143+1053541495+1054164895+1054311145+1054792641+1055659317
1250+1056286088+1057186111+1058531800+1059191208+1058145468+1056112877
1238+1055322119+1056602444+1058676187+1060903098+1062733033+1063420644
1227+1063815048+1063667823+1062011631+1060587096+1061112583+1062787134
1215+1064128034+1064380533+1063566450+1063086905+1063880323+1065037015
1204+1066475296+1068264700+1069855262+1071554734+1072376533+1070954571
1192+1069084725+1069102463+1070720607+1072646416+1073741823+1073349548
1180+1072249530+1071800582+1072333164+1072737057+1072260793+1071131862
1169+1069553539+1068282261+1067637486+1066886196+1065609684+1064369181
1157+1063824537+1063193333+1061973671+1060296460+1057363579+1054115673
1146+1052101529+1050289154+1048361039+1047348646+1046567201+1044564409
1134+1041328032+1037771308+1033270748+1027262196+1022063115+1019081721
1123+1016754148+1013986141+1010786837+1007124838+1003694053+1000399939
1111+995352873+988843224+983328408+979161409+975315202+971708368+969363677
1097+968758902+967579506+964355812+961131674+959290298+958911947+958816517
1084+956950397+953991441+951987497+951410659+950576000+948041158+945088056
1070+942762080+940702615+938503021+935927649+933873950+933257024+933086207
1057+932086763+930324232+928332970+927014952+926736200+925764161+923106041
1043+920965957+920517276+919938664+918941880+918919885+919044406+917730645
1030+916280124+916577235+917624572+917730645+916694217+915679074+916046604
1016+917600271+919082188+919766606+920525347+921717869+922225086+922438473
1003+923120852+924059101+924976773+925626958+926575317+927233661+926010097
989+923978127+922867022+922051076+920476745+918863035+918332050+918456659
976+917719825+915319614+912622915+911017364+909939695+908857326+907433944
962+905080474+902387055+900451934+899521668+899431736+899782770+899885562
949+899831461+900262670+901405171+903235816+905382906+907542057+909800186
935+912333786+915312519+918435906+921291537+924037992+926718462+928967634
922+931071886+933055166+934087514+934785680+935717809+935883925+935695725
908+936589540+938476148+940309099+941052674+939405705+935872395+933774883
895+934405999+935324027+934560674+932965057+932423074+932648612+931880382
881+930359264+929261906+928954596+930734510+934755525+937217996+936479920
868+936849756+940326837+943878949+947043754+951454915+956422781+961075090
854+964496562+966037546+967244968+969554715+972747989+975761666+977880197
841+980192161+984037305+987863113+989273192+988499108+987210623+986995462
827+987763338+988780697+991694776+997153363+1003415301+1009439108+1014207068
814+1016949177+1018297261+1018418854+1017444420+1017370098+1019378122
802+1021693634+1023320558+1025574519+1028585535+1030968717+1032712623
791+1035061039+1037131412+1037584262+1039482665+1044663565+1048601300
779+1048985326+1049085634+1050487376+1052070576+1053109488+1053374226
768+1053102038+1053917717+1056424798+1058269190+1058728248+1058577209
756+1057542644+1057513465+1058655168+1057704591+1054101305+1050411014
745+1049793024+1051106253+1050626441+1049802957+1050895881+1053364116
733+1055333649+1053159065+1047076457+1042440113+1042019990+1043792011
721+1045547978+1046504763+1043838573+1038007932+1036282208+1039714145
710+1042571995+1043908194+1043719994+1041873386+1042022296+1044098877
698+1043472727+1039956623+1038145313+1040362911+1044068013+1044125839
687+1039493663+1035761510+1035418547+1034892617+1033818762+1034866542
675+1036672797+1038747339+1041324662+1040150321+1037652375+1039942788
664+1040911013+1039872545+1042109744+1047120447+1047452679+1039707050
652+1031934016+1031109024+1031671849+1029097275+1027687995+1025086282
640+1016853037+1007770676+1000829109+998907202+1006596247+1016839290+1013957761
627+994930709+976291321+978001259+1002979214+1029089116+1038108063+1039019084
613+1032795814+1023616782+1029686973+1042920634+1044303041+1036083986
602+1021567340+1010068716
##END=
