##TITLE=Sample description
##JCAMP-DX=4.24
##DATA TYPE=INFRARED SPECTRUM
##DATE=24/8/2023
##SAMPLING PROCEDURE=Instrument type and / or accessory
##ORIGIN=Default
##XUNITS=1/CM
##YUNITS=ABSORBANCE
##RESOLUTION=4
##FIRSTX=4397.6552
##LASTX=599.8556
##DELTAX=-1.9287962
##MAXY=1.327947
##MINY=0.14497784
##XFACTOR=1
##YFACTOR=1.236747e-009
##NPOINTS=1970
##FIRSTY=0.1814253
##XYDATA=(X++(Y..Y))
4398+146695563+146615885+146783169+146966273+146920789+146787976+146973237
4384+147320961+147373662+147059650+146664008+146505483+146681418+146983008
4371+147086024+147265465+147775907+148129018+148176574+148228889+148479767
4357+148810177+148686775+147863501+146964309+146729769+146906608+146843581
4344+146529279+146244521+145919653+145338123+144833706+144810789+144983471
4330+145062486+145207323+145343124+144966795+143967322+143142036+143168181
4317+143395757+143036513+142556880+142664330+143212364+143643080+143742566
4303+143605331+143512557+143684298+143756181+143381371+142944907+142998681
4290+143512026+143943007+143868559+143519147+143602934+144214922+144520693
4276+144217922+144155064+144621757+144849887+144528681+143952598+143435553
4263+143149831+142831216+142339835+142274820+142926943+143580728+143663900
4249+143303765+142864531+142630521+142629955+142825674+143036333+143048068
4236+143022525+143004850+142742827+142345353+142247361+142524216+142956570
4222+143410046+143695106+143681395+143405396+143101480+143195026+143476880
4209+143442301+143521063+144071928+144474956+144368434+144192957+144233477
4195+144334336+144510259+144886382+145422319+145833372+145752152+145331750
4182+145034424+145043666+145057136+144691712+144341879+144431906+144345578
4168+143691540+143136216+142972234+143035574+143497532+144121617+144495825
4155+144618564+144396760+143860016+143358671+143104335+143118625+143395600
4141+143727433+143827388+143685178+143443903+143252835+143238955+143450072
4128+143751325+143834075+143587752+143350418+143381274+143301307+142986692
4114+143032899+143416131+143490544+143266715+143111456+143063189+143149771
4101+143340032+143564534+143973948+144307564+144146546+143837196+143829750
4087+143938441+143772290+143423902+143350104+143513376+143540811+143475579
4074+143600632+143982081+144422436+144792957+144966133+144638059+143989624
4060+143768506+144256333+144843152+144869117+144461438+144154654+143971394
4047+143602018+143359864+143787134+144522741+144707110+144194764+143597608
4033+143300464+143274487+143293475+143056876+142786515+142832686+142806781
4020+142464358+142318135+142472648+142618702+142856169+143083576+142966511
4006+142618449+142244566+141795283+141374556+141255238+141205742+140856017
3993+140452748+140345755+140592030+140882464+140788496+140457615+140259800
3979+140154615+139939522+139635221+139424610+139273122+139083621+139001521
3966+139014148+138759499+138328301+138334013+138738619+138875612+138431920
3952+137658949+136756889+136362801+136851821+136588292+135529371+136022716
3939+137469050+137758833+136232158+133668911+132638544+133923078+134734761
3925+133897089+133521688+133955356+133361489+132532853+133599269+135665786
3912+137038877+137381167+135986726+131726592+126306701+123855254+125190139
3898+128882166+132384113+132964654+130688214+130018307+131390350+130568438
3885+128570539+128047735+127744446+129353269+131474161+130170157+126757454
3871+124004501+123806180+125843828+125890070+125231815+127388287+129552542
3858+129311255+125228911+117225134+117614451+125219646+130558353+131764787
3844+129807901+126328955+122251504+119477790+121005080+124452627+126892616
3831+128572081+129444224+129311219+128926493+126067270+120911028+121126483
3817+123910028+126320256+130390226+133473505+132755645+128926059+126644956
3804+125545478+123095164+123933414+127168868+129823432+132759959+135112233
3790+135952942+135607277+134325262+133322319+133265847+132574397+132237131
3777+134219294+136189807+135790622+133221736+131604961+132297073+133629524
3763+134721278+133710045+130785470+129980089+130597668+128438847+122578420
3750+120439166+123917510+126072873+126370680+129182623+131977169+130497194
3736+124998408+123173360+128294010+134583261+138050182+138137607+137371661
3723+138105823+140124168+143041333+145819612+146634476+144346240+143954839
3709+152335680+165038524+177818395+190684812+204729396+217319224+225157488
3696+228400316+227645684+222942340+217043092+216984680+221870899+226019908
3682+227348323+226015643+222814913+218458643+218725593+223067549+225608446
3669+230212316+238195213+244691424+248691511+251625098+253803523+255288377
3655+258043354+260508248+258194903+253697494+259591007+271512566+281035404
3642+287309245+291703203+295268791+298306816+301059842+302873914+301932840
3628+302712365+310558196+318888167+323248895+323861836+325504624+330879947
3615+336424843+341211371+346187015+350738402+355870896+361743082+366201139
3601+369035180+371849678+374789699+377377922+380753888+384320585+385188330
3588+384122794+387066718+393059343+397566246+399977330+401420857+402727777
3574+404031805+404825162+403903101+400197363+397739506+400914596+405414149
3561+408117775+410152941+412124393+412786491+412312015+412245843+412671740
3547+412806251+413590524+415904736+417906792+418336544+418381606+419171662
3534+419933668+419457312+417732954+416276751+415976113+416192748+417059674
3520+418625471+420046781+420624009+420016852+418212828+415735766+414145100
3507+413759012+412883266+411930361+412997006+414899732+415580579+415562458
3493+415398114+414533646+413015079+411721582+411234622+410931092+410424903
3480+410355503+410605248+410365045+409762467+409405007+409456142+409659234
3466+409167407+407356058+404999916+403724467+403920620+404363168+404063300
3453+403323584+402655557+401437966+399956197+399793130+400502917+401103037
3439+401479607+401239983+400958694+401300780+401547561+401508716+401614455
3426+401766317+401722363+401477390+401593009+402642641+404410543+406194373
3412+407487726+408558516+410077998+412249699+414782378+417372699+419642138
3399+421462838+423469135+426175267+429305560+432332717+434980485+437321928
3385+439562837+441698922+443800018+446302431+449259947+452014466+454176239
3372+455922863+457428321+459149016+461063164+462385241+463185225+463871276
3358+464644319+465631684+466733463+467968452+469092593+469902553+470256832
3345+470156395+470329317+470774154+470253652+468637153+467537929+467267556
3331+466662665+465725374+464874690+464140685+463738066+463309567+462173859
3318+460762526+459935601+459662723+459553176+459816560+461091840+463019339
3304+464547641+465837186+467978235+471404348+475264020+478785751+482407389
3291+486124742+489199516+491974277+494909623+497432567+499218566+500454664
3277+501553695+502900833+504453281+506266221+508103451+509460420+510592417
3264+511406715+511289939+510883995+510737291+510499787+510440749+510595164
3250+510975903+511532985+510959131+509866075+510423591+511590770+511449994
3237+510960432+511181405+511396835+511051472+510070517+509190916+509622837
3223+510353564+509709250+508529733+508063594+507736400+507066349+506652067
3210+506486567+506141011+505919701+506205013+506734962+506877329+506527725
3196+506284438+506436348+506827978+507499427+508313869+508607856+508084510
3183+507382362+507035456+506759252+506180482+505530818+505522432+505927460
3169+505608219+504808379+504213030+503319453+502255314+502029184+502435947
3156+502441056+502099163+501836646+501393978+500703059+500028430+499362909
3142+498530876+497548813+496710755+496012800+494990783+493653621+492402680
3129+491487029+491022866+490592439+489865084+489132284+488570768+488188873
3115+488139955+488360157+488085640+486686162+484630852+482991750+482236973
3102+481711506+481034033+480601823+480239929+479648677+479191502+478909563
3088+478566176+478412194+478447954+478324190+478223656+478425881+478625696
3075+478743484+479286783+479897892+479335942+477286559+474511219+471589753
3061+468581440+465536114+462701591+460416392+458563932+456778753+455198256
3047+453909963+453016048+452732808+452687264+452793822+453390232+454090308
3034+454242748+453795935+453094027+452377324+451653199+450876156+450337628
3020+450495466+451232700+452000200+452658829+453953580+456584239+459979555
3007+463415885+467135937+471384588+476134705+481978890+489795058+499871508
2993+512361500+527351014+543547419+557970307+568243440+574888235+579792335
2980+583739143+586281991+586232977+582411427+574898019+565251514+555125664
2966+545449615+537015929+530145583+524478803+520160317+517604312+516499737
2953+516250908+516379684+516587163+516969491+517865334+519323561+520703953
2939+521469671+521686836+520946710+518589074+514937024+510852187+506668068
2926+502366788+498094907+493606872+488510958+483066066+477732408+472951639
2912+468620141+464179000+460067558+456968495+454387139+451619511+448856653
2899+446475546+444510311+443096038+442125782+441325558+440815851+440460849
2885+439826992+438870375+437561167+435595257+433063397+430335914+427102195
2872+423058709+419011415+415681980+412834445+410127301+407447869+404953504
2858+402811106+400662634+398102412+394941731+391178762+387325259+384005825
2845+381198412+378257234+374989466+371932380+369367362+367254193+365303127
2831+363008048+360658195+358938295+357611302+356201825+354879724+353778860
2818+352766555+351848832+350910071+349854583+348925100+348067741+346956540
2804+345680851+344534829+343631010+342847509+341869566+340497825+338938244
2791+337545538+336322525+335059246+333773894+332648740+331667279+330588995
2777+329336680+328067160+326988852+326217183+325571904+324826091+323958273
2764+323093443+322557446+322387897+322106826+321588540+321079098+320559632
2750+319993657+319434406+318898457+318501188+318124474+317422085+316545447
2737+315955568+315673967+315377690+314924154+314580767+314459967+314198269
2723+313723527+313273004+312913905+312685607+312518564+312259999+311934565
2710+311604479+311244272+310899343+310576920+310116853+309515793+308923794
2696+308346205+307675286+306884941+306179684+305744992+305375556+304702565
2683+303752190+302795357+301781894+300624764+299556794+298691554+297863208
2669+296962618+296010484+295003046+293904616+292797343+291886343+291266053
2656+290773094+290262134+289780862+289254913+288680962+288291742+287988429
2642+287617763+287357512+287244543+287258207+287428310+287588822+287704369
2629+287901389+288047033+288055660+288218703+288683757+289188886+289569841
2615+289919951+290275966+290606461+290820855+290892087+291054382+291389649
2602+291677202+291743229+291575174+291385070+291315212+291152868+290803938
2588+290461419+290130683+289629121+289010204+288466375+287900425+287134154
2575+286293975+285470184+284518844+283480490+282603250+281906571+281150614
2561+280221733+279285599+278557763+278038803+277518445+276919674+276437221
2548+276191235+276031253+275755651+275398047+275158881+275076275+275131120
2534+275377925+275716276+276069929+276469945+276816079+277150840+277631847
2521+278138084+278538172+278906042+279280153+279625493+279996760+280483093
2507+280981233+281319126+281449011+281407660+281416166+281678996+281956670
2494+281892740+281530990+281134589+280880000+280714596+280453694+280157851
2480+279970229+279758028+279387869+279009733+278770832+278524051+278195339
2467+277943931+277712404+277299135+276744366+276272925+276060459+276015662
2453+275825630+275372455+274837277+274394995+274065054+273719763+273269673
2440+272865922+272627286+272359709+271988561+271694935+271358946+270907097
2426+270698630+270747741+270691955+270526117+270475248+270545636+270606699
2413+270588554+270480790+270409462+270576650+270924663+271159950+271189180
2399+271216265+271376922+271536736+271513554+271400056+271434395+271498735
2386+271203205+270429198+269235367+267569397+265467145+263061964+260350579
2372+257388967+254519720+252052489+249979732+248191684+246715095+245797565
2359+245649727+246383925+248301279+251622520+255620101+258313004+258178300
2345+255817989+253603924+252652947+252498290+252816929+253367144+253873405
2332+254169561+254587939+255501277+256581417+257487862+258513180+259983191
2318+261659017+263055747+263956289+264471587+264878687+265414516+266055048
2305+266642348+267157140+267584506+267841456+268002185+268214796+268436709
2291+268557364+268618644+268675104+268703707+268688333+268593583+268407238
2278+268153035+267863288+267617736+267453176+267294398+267035978+266694230
2264+266435496+266346794+266278213+266048445+265732239+265545895+265495483
2251+265380852+265188170+265135613+265210652+265161205+264914882+264631762
2237+264499034+264528216+264575519+264545734+264425489+264327798+264424067
2224+264618942+264657377+264577109+264625641+264818396+265016163+265179904
2210+265274269+265366466+265586258+265874149+266195318+266571092+266893491
2197+267110849+267280904+267397197+267444934+267484430+267518311+267480502
2183+267360690+267243987+267202563+267113620+266803993+266324263+265891499
2170+265670671+265591150+265449915+265211424+264894519+264470020+264057763
2156+263702472+263338770+263065796+262888198+262652333+262295958+261830783
2143+261371584+261047884+260794886+260512754+260182307+259731060+259168652
2129+258664801+258301967+257999208+257650399+257215900+256758026+256389047
2116+256113157+255881702+255696393+255510410+255305655+255172348+255179023
2102+255267967+255319101+255333487+255445419+255726756+256085686+256483702
2089+256990204+257474657+257807056+258194421+258783649+259457266+260127968
2075+260758330+261335871+261909726+262491893+263001817+263475692+264162562
2062+265012837+265732191+266326167+266935324+267605302+268248340+268760505
2048+269200426+269627455+270023158+270415920+270908422+271491072+271981959
2035+272297803+272564777+272845343+273062508+273289818+273520815+273519634
2021+273239358+272798353+272481183+272635792+273036989+273192007+273040627
2008+272806642+272633744+272496100+272300911+272024924+271766528+271536037
1994+270952400+270029037+269603502+269812402+270087980+270225551+270206876
1981+270098365+270010362+270014049+270116800+270248733+270218322+269711242
1967+269127724+269392169+270211575+270720896+270775429+270467754+270010434
1954+269698277+269430170+268918463+268014234+266663747+264928039+263775679
1940+264083475+264652317+264493732+264032630+263694544+263422870+263060157
1927+262427071+261198637+260026542+259828293+259784532+259902874+260980749
1913+261839819+261519493+260975110+261375005+262354201+263117340+263599383
1900+263875876+263765944+263413786+263436533+263546610+263209175+263541477
1886+264905219+266126858+266899033+267447416+267953774+268489289+268841472
1873+268422877+266337902+263785921+264572772+267870542+270129499+270807068
1859+270950496+271187566+271595172+271958488+272071794+271639005+270402980
1846+268476710+267758176+270132776+272850066+273935772+274414899+274857832
1832+273947001+271838531+271658139+273467126+275445952+277808769+279926107
1819+281072924+281763722+282236705+281946669+281397154+282138460+283854071
1805+284976453+284646657+283379811+283092956+284044368+284265485+282872755
1792+282454111+285660047+289331374+291098914+291623947+291838534+292431811
1778+293802757+294355309+292519308+290001690+291529992+296268277+300640524
1765+302976689+303187131+303694019+305689834+307985178+310379057+311159811
1751+308871382+306981042+309391764+313399828+316412840+318457138+320614887
1738+322910786+323170555+322180949+325779864+332562159+339209339+344129608
1724+347139608+349264295+349649973+346947624+346497365+354133356+363373171
1711+370147634+373788237+375153544+377361247+381195159+383926882+386105789
1697+391582971+401913335+412640847+419272437+423280404+425927257+426617549
1684+430401989+441999127+453549949+462421676+469818646+477667345+484956455
1670+492594254+504898889+517290612+525485397+532254053+540418764+547587484
1657+551039910+550060546+551079719+560694368+567766650+574737097+589250736
1643+604881721+616960613+625393624+631207446+642601009+662749427+680295380
1630+694504092+708804758+723538647+738900947+756867254+772963800+785264001
1616+799823811+817272700+831238269+840934174+848711545+856525061+863755615
1603+869642115+874428812+877888130+879485977+879478748+878421646+876420505
1589+873567765+870345757+866507724+861263467+854478618+846107682+834203785
1576+821841075+818537425+817492950+812904237+810604771+812135338+813166416
1562+812156062+804569880+793608383+801495155+814463817+824206953+832303276
1549+841573332+850007211+854800848+857442399+864027818+886414639+910104644
1535+925344288+939475069+956562401+970141545+977583481+981990500+985631802
1522+988844749+993542479+998407444+1003690257+1009630350+1011799496+1008193184
1508+998617669+993055905+1004358139+1015043481+1018104326+1014905066+1013854904
1495+1019956545+1024486942+1021724037+1018213921+1023867255+1031971578
1483+1036324041+1037866464+1038013169+1035032616+1027519642+1018177004
1472+1015806596+1022169163+1026595267+1024314020+1020884582+1020817109
1460+1018421544+1007407900+999524115+1006905133+1014681250+1016732513
1449+1014892150+1014511894+1016578097+1017186025+1015781149+1012985182
1437+1008525631+1007611763+1010290424+1010944715+1011496159+1014422637
1425+1015403881+1013806902+1012618228+1010172829+1009035434+1013335847
1414+1017070454+1017342465+1016773189+1015718689+1012488970+1009528081
1402+1008684095+1005805908+1000336003+997365957+998847269+1002328468+1002847621
1389+997102814+988632789+986379205+990198153+994118888+995408867+993794634
1375+990215888+989128327+992254620+994451913+993687352+991622017+988106792
1362+986107194+988669321+991598787+991529772+989433592+987545517+986491403
1348+985987961+986258719+986453425+984122633+979388083+976615635+978000847
1335+980682882+982024333+982549462+983970434+985436613+985797303+986580274
1321+988657079+990947291+992860620+994398417+996417871+999893769+1003860577
1308+1007483180+1011040237+1014132794+1016813094+1020074236+1023621462
1296+1026805011+1029817565+1032289278+1033962694+1035127174+1036234592
1285+1037760243+1039104875+1039435009+1039063042+1039051282+1039672416
1273+1039813337+1039169841+1038639121+1038210478+1037421531+1036357199
1261+1035124186+1034157015+1033803748+1033953730+1034549031+1034773136
1250+1034538042+1035336628+1036953175+1037837258+1037802751+1037491606
1238+1037309237+1037035780+1036434889+1036204036+1036861798+1037708000
1227+1038375111+1039294858+1040153399+1040581850+1040791111+1040396204
1215+1039049065+1037638021+1037259115+1037350684+1036618800+1035376630
1204+1034302467+1033321608+1032993306+1033407587+1033754782+1033758348
1192+1032726404+1030743481+1029807444+1030157048+1030005717+1029334172
1180+1029299279+1029571001+1029445502+1029131561+1028703111+1028433509
1169+1029441839+1031529344+1032699607+1032552517+1032395017+1032617869
1157+1032977884+1033475831+1034309407+1035239950+1035236094+1034045492
1146+1032909158+1032752814+1032945593+1032418632+1031698218+1031521729
1134+1030647092+1029087704+1028420882+1028178849+1027362045+1025720630
1123+1023322462+1021030805+1019319411+1017862582+1016480743+1015599455
1111+1015737678+1015907901+1014918368+1014614645+1016790635+1019652051
1099+1021010948+1020942608+1021190907+1022516261+1024321924+1027558101
1088+1032621821+1036753745+1038507935+1040488352+1044145558+1047715724
1076+1049995526+1050990361+1051158753+1051788176+1053872597+1056085119
1065+1056104396+1054624627+1055030908+1058527433+1062466674+1065348428
1053+1067878457+1069184436+1069059323+1069347720+1070088569+1070033627
1042+1069870440+1070190163+1070696593+1071547808+1071540097+1070441740
1030+1070341687+1071499035+1072450687+1072598838+1072545631+1072713734
1018+1072657635+1072561439+1072944201+1072828052+1072056744+1072538016
1007+1073741823+1073608709+1072823521+1072328562+1071745984+1071447466
995+1071671668+1071334787+1069974155+1068312016+1067224551+1067203634
984+1067192935+1065719623+1063244151+1061596085+1061426247+1061522637
972+1060824970+1059366695+1058042112+1057198416+1055980343+1054117040
961+1052017872+1050768858+1050836716+1050247006+1048251168+1047287177
949+1048518070+1049603703+1048997029+1048109475+1047554369+1047121580
937+1047487185+1048228516+1048360762+1048133283+1047642469+1046745276
926+1046395961+1047455570+1049116166+1049762746+1049178144+1048499563
914+1048240854+1048728873+1050048348+1050615117+1049193567+1046165880
903+1043048743+1042027112+1042424718+1041509115+1039515687+1037888344
891+1036382839+1035387040+1036120081+1037605827+1037587224+1035643436
880+1033324114+1032326484+1032828287+1033995563+1035364774+1036593064
868+1036582654+1035458657+1036180614+1039246857+1041402412+1042414019
856+1043613778+1043395552+1041604445+1040429265+1040560066+1041549021
845+1042191841+1041704208+1041213778+1041718762+1043140409+1045114464
833+1046414371+1044817199+1040788123+1038357954+1039429322+1042124273
822+1044417472+1045705235+1046721468+1048987197+1051497755+1050988723
810+1047644300+1044955132+1045144056+1047367952+1048173092+1045886832
799+1044369278+1046614861+1050348986+1053366842+1054370062+1053159026
787+1051953773+1051003856+1049128215+1047273972+1046849280+1046574860
775+1045223480+1045236397+1046675490+1045345799+1041024277+1037765159
764+1036783626+1036324427+1035884024+1035859252+1035622616+1034816126
752+1035014495+1036552677+1036408671+1033989876+1032088691+1031612046
741+1032865879+1036343512+1038756909+1037037033+1034201450+1032795129
729+1031765305+1031569249+1032527360+1032975667+1031470932+1028497801
718+1026936100+1028114171+1030694033+1033385321+1035080618+1034378036
706+1031733304+1031114580+1033021259+1032548854+1030286499+1030727481
694+1032666257+1033879124+1035510129+1037670215+1038400076+1036352283
683+1034321744+1035570373+1036283558+1032240023+1028012288+1029290026
671+1030333441+1024584007+1025774705+1039506915+1047507909+1044009360
660+1035987353+1035414414+1044076832+1049708190+1044140546+1036516724
648+1036483469+1038861877+1038434776+1038635169+1038955857+1032993017
637+1024954527+1025956495+1028066170+1024103505+1028275527+1039800999
625+1039062174+1026005846+1015140063+1007115551+1002467365+1008199449
613+1017491965+1021327202+1018896936+1006525648+990613013+989097772+1006734041
600+1028374037
##END=
