##TITLE=Sample description
##JCAMP-DX=4.24
##DATA TYPE=INFRARED SPECTRUM
##DATE=24/8/2023
##SAMPLING PROCEDURE=Instrument type and / or accessory
##ORIGIN=Default
##XUNITS=1/CM
##YUNITS=ABSORBANCE
##RESOLUTION=4
##FIRSTX=4397.6552
##LASTX=599.8556
##DELTAX=-1.9287962
##MAXY=1.2830886
##MINY=0.34225553
##XFACTOR=1
##YFACTOR=1.1949693e-009
##NPOINTS=1970
##FIRSTY=0.48395142
##XYDATA=(X++(Y..Y))
4398+404990656+404910425+404551840+404393447+404541764+404564085+405038540
4384+405834944+405623778+404261490+402890898+402543286+403032705+403303103
4371+403415033+403807985+403660790+402756297+402381427+403098372+403978548
4357+404191983+403765512+403066150+402667088+402804930+402779915+401956801
4344+400847503+400425247+400611797+400751335+400842839+400973200+401020211
4330+400980183+400868029+400409859+399425459+398795779+399058370+399338769
4317+399260882+399029415+398750688+399043556+399545121+399064231+398330277
4303+398315288+398238573+398054717+398454053+398562542+397956903+398147144
4290+399208134+399250307+397950967+396990560+397449951+398510467+398722381
4276+397780603+396492337+395567294+395475565+396539124+397951616+398541891
4263+398353845+397835172+397055378+396412355+396380257+396390832+395687404
4249+394782887+394605839+395168531+395613732+395337374+395058123+395457235
4236+395579988+395003829+394506454+394107018+394135274+394966444+395745614
4222+396061526+395737408+394693702+393966033+394022097+394322647+394602497
4209+394516953+393949323+393808263+394445925+394710586+394011149+393203597
4195+392955346+392965871+392820098+392736076+393098651+393661592+393893233
4182+393854826+394036712+394349233+394190491+393670645+393480953+393662590
4168+393771801+393663762+393362788+393101519+393366454+393753895+393262455
4155+392506430+392727022+393301786+393285924+392967866+392690461+392575962
4141+392485455+392027984+391348224+390791867+390496405+390551946+390849054
4128+391218138+391699751+392169667+391890441+390542843+389287746+389302685
4114+389986335+390060207+389542232+389138980+388956421+388759920+388574293
4101+388696598+389154942+389431025+389087180+388372106+387863558+387774473
4087+387784349+387631318+387656707+388065495+388325393+388002896+387308173
4074+386589931+386011551+385597226+385088554+384464509+384190944+384144008
4060+384070485+384434956+385148883+385519464+385490559+385210110+384560453
4047+383995267+384073677+384311080+384214961+383846999+383272860+382753588
4033+382344101+382104654+382162738+381990504+381662520+381904935+382390963
4020+382478028+382283297+382113358+381969879+381802632+381537971+381097359
4006+380949715+381324262+381520413+381204002+380607566+379942595+379573611
3993+379530340+379466918+379402723+379529742+379752404+379922544+379800638
3979+379105590+378194264+377658956+377528545+377519293+377659903+378237260
3966+378742416+378420518+377929952+378187605+378723537+378581679+377581991
3952+376506237+375772882+375292167+375242337+375001094+374724885+375862715
3939+377370153+377281641+375616334+373478543+372647698+374079194+375751783
3925+375705095+375296531+375570246+374827787+373228721+373355265+375238571
3912+376858238+377317255+376453639+373859224+370707005+369265110+369466025
3898+371530967+374901709+376698798+375418736+374557115+376047519+375975094
3885+373460112+371509095+370205840+371246977+373773257+374138700+373154101
3871+372110594+371231814+372003901+371867879+370776937+372263674+374699222
3858+375378384+372345951+364498860+363233888+369759093+375250866+377358655
3844+376571904+374222672+370922984+367802015+368283204+371520767+374475338
3831+376127775+376087922+375230067+375474626+374766984+371327907+371175949
3817+373150609+373985594+375980556+378423810+379087135+377273885+376017043
3804+375674818+373091676+372330937+374374855+376090166+378152490+380233045
3790+381445719+381892914+381291615+380524491+380842574+380905372+380812721
3777+382072531+383188413+382906718+381481607+380793268+381756768+383065809
3763+384699018+385494100+384024721+383182203+384371833+384069363+379952422
3750+378266565+381805151+383858871+383571090+386603498+390888608+391898247
3736+388617239+386675499+390960285+397614030+402562764+404929254+406948706
3723+411366496+418415562+427739190+438536337+449165739+459396004+473619434
3709+493421802+512167918+526884907+538784744+550464112+562899107+573988649
3696+582660274+588804349+590550286+586004006+582239540+584203152+585560377
3682+583334797+579396599+575031482+566848527+558823741+557793925+554685875
3669+549343715+549150531+550139994+549042093+546977824+545226999+542617396
3655+540329017+540030438+537067737+528445043+525225661+529691485+533976446
3642+535658936+536330416+537454005+537716022+536553477+535891325+533901277
3628+530191977+531969389+536522303+539290872+538267492+534686333+533789646
3615+534516193+534300863+534428754+534331289+534225146+535530995+536451922
3601+536447982+536462148+535838902+534726486+535091056+536939446+536962042
3588+533592223+532532729+535759992+539163280+540935454+541649730+542241802
3574+542964308+543518521+543200987+540112689+535786079+536439951+540389721
3561+543383697+545374443+547306331+548387523+548494913+549098756+550644177
3547+551813955+552044299+552933803+555251959+557508265+558673304+559625805
3534+560805110+561401022+561122095+561071417+562282495+563422793+564044693
3520+565840659+568073072+569349941+570481062+571271305+570703675+570602220
3507+572376738+573340163+572214679+571906223+573418375+575413810+577216660
3493+578315508+578663668+578688658+578474075+578219789+578085014+578317204
3480+579520351+581242346+582625508+583872998+585081532+585544814+585389688
3466+585902302+586601864+585990239+585505459+586050793+585581925+584393692
3453+584985863+587108441+588225995+587538104+587039508+588042737+589451039
3439+590189108+590574179+590634583+590020116+589833965+591111632+592222052
3426+591583942+590657976+590616776+590212751+589500669+590125012+591721560
3412+592807041+593013543+592525221+591945969+592061390+592491353+592273827
3399+591583044+591527977+592526767+593488397+593257454+592239411+591926516
3385+593199843+594872906+595491563+595391954+595263114+595409062+595943573
3372+596799457+597614142+597409984+596306896+596086428+597355665+598934206
3358+599808447+599478044+598602906+598982540+600153863+599963373+598833200
3345+598364980+598759478+599982377+601463902+602066349+602018963+602098022
3331+602233396+602508382+603054265+603155820+602384381+601419659+601118985
3318+601451333+601950229+602989471+604339115+604985056+605179636+604898664
3304+603675765+602217584+601371874+601532986+602037219+601367635+599719013
3291+598912758+599592418+600750125+601443352+601611945+601401852+601108560
3277+601722279+603379430+604723737+605538321+606513219+607146740+607805401
3264+609716689+611570566+612144132+612741041+613539415+613659974+613661470
3250+614419342+615780557+616795358+616917813+616743982+616912127+617581112
3237+618837930+619847943+619304255+617980299+617705762+618119414+617994565
3223+617666457+617733046+618201416+618685049+618442634+617245921+615457038
3210+614197477+614324670+614567684+613835451+612896566+612572298+612798203
3196+612492940+610807906+608849980+608116550+608113407+607858423+607655512
3183+607164846+605628304+604274371+604029063+603793830+603367409+602885771
3169+601819993+601218544+601425296+600880410+599836579+599388111+598945330
3156+597979460+596890837+595595812+593813163+592042186+590503948+589100983
3142+588439978+588122544+587015166+585849579+585375672+584764098+583441689
3129+582040221+581291577+580302115+578569096+577464911+576685840+574897156
3115+573325997+573259608+573212272+572019799+570763431+570150510+569423664
3102+568050327+566869477+566721733+566905739+566485004+565662439+564949759
3088+564378537+563903633+563447883+562646766+561601987+560996498+560929160
3075+560656518+559740279+558551996+557271785+555777641+554244889+552763364
3061+551485148+550756456+550423560+550110316+549636908+548755335+547493230
3047+546139347+544825168+543744775+542836517+541777672+540494867+539068309
3034+537767598+536622012+535479768+534322810+532653488+530568818+529180069
3020+528538517+527724431+526593660+525420690+523983608+522275829+520925237
3007+520132650+519240652+517955204+516614639+515275320+514233883+513802424
2993+513393511+512608805+511492199+510001546+508679735+508251319+508595239
2980+508984201+508723729+507533451+505871960+504694052+504106021+503183647
2966+501667256+499937779+498079463+496373729+494949665+493549444+492573399
2953+492316219+492177903+491903964+491394992+490370863+489283188+488470499
2939+487586332+486430671+485168117+484232924+483643347+482796739+481438966
2926+479929258+478649047+477525409+476265648+474874755+473641381+472824203
2912+472370048+471734931+470518865+469369987+468972796+468995242+468905408
2899+468344163+467338888+466485497+465903202+465128721+464096213+463161069
2885+462452978+461678197+460769041+460203905+459965829+459313104+458183430
2872+457126680+456231240+455442593+454792612+454091553+453238611+452519896
2858+452049680+451304828+449844451+448034469+446635744+445864555+445281312
2845+444640259+444094575+443729756+443416711+443032438+442503265+441746591
2831+441026030+440597663+440146203+439442251+438659989+438013349+437686887
2818+437515500+437012714+436246762+435638230+435111202+434618341+434315821
2804+433911048+433201510+432620462+432406777+432204915+431810317+431321995
2791+430774915+430227885+429830394+429613966+429299026+428783221+428270957
2777+427549198+426551805+425921127+425927212+426007568+425649033+424945431
2764+424288965+424067051+424219084+424219383+424004701+423695198+423115148
2750+422469456+422014902+421705549+421589429+421492064+421099511+420543503
2737+420051490+419537081+419032200+418767139+418649273+418485219+418467263
2723+418661993+418606926+418096657+417571075+417357540+417290951+417083901
2710+416797192+416718881+416678828+416258318+415708943+415660735+416047526
2696+416271810+416190207+416009343+415703157+415389165+415341655+415300379
2683+414899721+414305605+413942755+413943628+413887713+413573421+413380986
2669+413442437+413455281+413230075+412963318+412845403+412777791+412729907
2656+412788341+412896754+412901817+412795573+412729133+412772653+412862711
2642+412935610+413032900+413212667+413380063+413413432+413380961+413471168
2629+413720915+413955749+414091297+414260339+414649325+415203812+415587437
2615+415803341+416199859+416815399+417392132+417708094+417862223+418009168
2602+418073114+418285127+419001474+419906290+420321987+420318945+420570887
2588+421116271+421587683+421842468+421817080+421775779+422029916+422456038
2575+422888594+423203634+423197150+423029704+423109012+423380408+423546058
2561+423576634+423558727+423513287+423440513+423458918+423636789+423725674
2548+423518075+423222489+423088911+423037834+423039181+423210069+423376268
2534+423310277+423173108+423147569+423103625+423063273+423215755+423441111
2521+423594740+423541569+423186426+422985710+423235806+423658536+424137231
2507+424509184+424473819+424148055+423870276+423933224+424328270+424578766
2494+424548489+424598718+424681219+424525744+424274700+424210604+424384634
2480+424529086+424430175+424308967+424311212+424306573+424213747+423882995
2467+423369284+422995436+422765741+422522727+422249885+422000936+421803113
2453+421518700+421133030+420851011+420671095+420460104+420122469+419535435
2440+418967955+418786443+418676508+418341940+417933875+417476902+416964364
2426+416532456+416240511+415898411+415343301+414756866+414276649+413887887
2413+413616168+413286538+412780011+412385762+412234302+412044959+411576290
2399+410897703+410344263+409982685+409457927+408784477+408358904+408038751
2386+407308014+406161231+404765175+402872367+400394446+397826143+395469330
2372+392806506+389658626+386955025+385031815+383355336+382114804+381604460
2359+381227545+380895646+381627804+384029609+387431126+389910045+389622189
2345+386898536+384583846+383958730+383954340+384205135+384419393+384128545
2332+383879521+384238156+384619111+384643702+384814964+385506146+386561774
2318+387672918+388714205+389586226+390112456+390391807+390761964+391307922
2305+391813726+392224784+392625318+392893720+393026649+393243327+393527690
2291+393729902+393909644+394147196+394360930+394523837+394628260+394589478
2278+394412580+394234709+394188845+394218598+394301773+394480741+394577981
2264+394653624+395019765+395492998+395677528+395780854+396194082+396698340
2251+396945643+397130372+397530357+397967702+398273539+398636488+399161172
2237+399697129+400137466+400619852+401236190+401795067+402209217+402694970
2224+403400917+404221362+405078170+405998724+406972474+407975529+409041357
2210+410246823+411568908+412903014+414231658+415687420+417347963+419100335
2197+420921042+422862707+424924332+427058882+429128188+431177344+433426267
2183+435906782+438605570+441558844+444551224+447369773+450104374+452834487
2170+455664408+458748566+461868688+464596057+466908427+469149469+471434705
2156+473525710+475266210+476704041+477763135+478330366+478461051+478161225
2143+477398465+476154068+474361493+471940834+468776819+464966762+460841716
2129+456531217+451971868+447197139+442325943+437344812+432221923+427211663
2116+422493248+417940209+413521272+409272524+405142614+401170499+397404835
2102+393797514+390385946+387147810+383898700+380680689+377701428+375022642
2089+372599115+370268015+367901226+365708965+363807977+361817056+359634198
2075+357664352+355993159+354384466+352674991+350777245+348878327+347368869
2062+346183105+344896909+343429001+341932187+340467871+339032883+337584104
2048+336165851+334869679+333620368+332347764+331229787+330311403+329295180
2035+328132610+327090475+326242446+325459610+324598288+323682697+322937022
2021+322320385+321443500+320296269+319359379+318705532+318001107+317189041
2008+316314626+315311147+314251853+313290124+312437057+311618832+310738331
1994+309610129+308307572+307344870+306862159+306515870+306074285+305472887
1981+304810485+304162050+303444132+302737811+302197191+301563545+300494873
1967+299405352+299026865+299081808+298838046+298213453+297413608+296638104
1954+296115166+295741069+295265018+294639751+293808756+292678708+291841179
1940+292004360+292476646+292473553+292059552+291534519+291153863+290948782
1927+290646337+289888690+289037669+288786874+288690980+288679059+289312057
1913+289806339+289503146+289137353+289360340+289839210+290178391+290347957
1900+290411803+290228670+289720671+289336373+289088945+288541491+288329503
1886+288741808+289000658+289091115+289301507+289549833+289762046+289885024
1873+289565445+288170387+286413650+286715846+288704872+290201735+290757893
1859+291029014+291458428+292029076+292505775+292697962+292534880+292106215
1846+291473042+291384082+292921073+294784951+295848884+296646734+297427275
1832+297333925+296454996+296717164+298126089+299438348+300835776+302041491
1819+302517892+302532731+302327277+301591303+300522856+300112895+300357330
1805+300345035+299481294+298038750+297260627+297430093+297409543+296414195
1792+295660688+297155855+299239627+300085760+300050770+299930186+300114042
1778+300933839+301453610+300360747+298230163+298178138+300250638+302329621
1765+303514786+303468872+303350832+304047925+304690774+305232417+304912264
1751+302479210+299806858+299815113+301044422+301790647+301886964+301734881
1738+301900856+301163784+298842859+299012849+301859231+304716212+306454493
1724+306895753+306870764+306233052+303617339+301685999+304997783+309787600
1711+313116493+314570385+314600163+314877344+316305099+317345414+317949880
1697+320770549+326591204+332887586+337213274+340125871+342248050+343262727
1684+346082648+353641134+361454805+367656092+372558762+377624464+382717176
1670+387934811+395694288+403979147+410432575+416743771+424441497+431710108
1657+436811300+439718235+445609969+455672389+462420157+469291577+480489955
1643+491357832+499436938+504825984+507986009+512978662+522333888+530498588
1630+536079172+540253899+543978412+547272363+551012189+554684877+556324870
1616+557371295+560888459+564492063+566306535+567216290+568478045+569873528
1603+571177133+572722005+574307479+575501448+576725046+578722326+581530600
1589+585016888+589135251+593783036+598825369+604055798+608827285+613043661
1576+619943263+629743864+638128084+646324307+656639617+667441752+677322560
1562+684659406+688951250+698021365+714068693+728465455+741700919+753311453
1549+763632399+771821988+777441728+781686735+788155426+803728549+818408527
1535+827618155+836374726+846218025+853460150+858566728+864734545+871591700
1522+877110284+882693611+889857425+899046852+908349705+914117787+915689494
1508+913461171+914301842+924904259+933368935+936885450+937427541+938131543
1495+941063767+943616707+941926785+937073895+936590362+939441781+941293513
1481+941612244+941254906+939442879+934261281+925887786+921025419+923501843
1468+926045605+924078851+920934638+921006365+920709082+915358992+912164200
1454+918958406+927083002+933423403+938790852+945009447+952136749+959288492
1441+966271443+972156542+976274306+980862835+986596500+991937412+997974645
1427+1004055073+1007656982+1010630607+1014157497+1014859403+1015835049
1416+1021539684+1026073743+1026822836+1026706317+1026770761+1025587816
1404+1024764203+1025753117+1024678709+1020625190+1017128228+1016185104
1393+1019038319+1021665680+1018742334+1011663814+1007811808+1009492254
1381+1013984813+1017829835+1018553390+1016877433+1016304117+1017435487
1369+1017523674+1017384709+1017856072+1016492662+1014566709+1015099424
1358+1016680010+1017275174+1016267705+1014427844+1012813440+1012320629
1346+1012245311+1010740641+1007243180+1002413734+998789479+998622482+1000613278
1333+1002512395+1003271663+1003254704+1003401550+1004210897+1005883761
1321+1008240075+1010533840+1012839876+1015488984+1018393475+1021955181
1310+1025725484+1028849645+1031774987+1035298884+1039469221+1043610129
1298+1046850011+1048886797+1050402539+1052113810+1054142116+1056884798
1287+1060347443+1062826361+1062664851+1060876367+1059707088+1059354938
1275+1058935250+1058150245+1056796910+1055667834+1055198667+1053514331
1263+1050662512+1049803385+1051180562+1052037993+1051963573+1052570408
1252+1054171445+1055467817+1055964120+1056932982+1058970266+1060679941
1240+1060933628+1060810027+1061857300+1063014707+1062637717+1062108992
1229+1062698370+1063708832+1064665125+1064829328+1064296813+1064607164
1217+1065940248+1067334783+1068382056+1069011038+1069423643+1069853904
1205+1070222116+1071237865+1073070044+1073741823+1072780443+1072413029
1194+1073230058+1073305177+1072133005+1070688191+1069115087+1068244887
1182+1068618785+1068600728+1067409503+1066705102+1067510758+1068327986
1171+1067513152+1065150653+1062064999+1059307053+1057789016+1056878613
1159+1055578450+1054067396+1051874388+1048293828+1044200604+1040963715
1148+1038580166+1035862324+1032139607+1027319438+1021777310+1016154777
1136+1010676097+1005044985+999045062+993456846+987850973+980677183+972842088
1123+966422977+961899991+957833902+952937617+947701451+942226761+936119997
1109+930738781+927474657+925040730+922069500+919920685+919023649+917779651
1096+916343915+915523794+915034275+914901695+915098620+915726106+917470197
1082+920259966+923209549+925510796+927188149+929069210+931406370+933885788
1069+936184641+937776300+939337732+942590184+947137711+950529826+951856326
1055+952796956+954599706+956579629+958415698+960143828+960962553+961047947
1042+961339044+962096517+963070367+963881310+965129997+967335076+969792646
1028+971685679+971955527+970966215+970953545+972104269+973029536+973823420
1015+974657607+975050659+975666972+976597327+975959965+973909313+972796398
1001+972516574+971650464+970506923+969860882+969738178+969306819+967859710
988+965707105+963354581+961325876+959684936+958329806+957330517+955481877
974+952306340+949578622+948326643+947629525+946241574+944113908+942221474
961+941305384+941138986+941356661+941727167+941228271+940351087+941184975
947+943357633+945208666+946878238+948976375+950750394+951368004+951817420
934+953552134+956485655+959267144+960568404+960724228+961548040+963031461
920+963203246+961864876+960799147+961356003+962947862+963312782+961138927
907+957760380+955373838+954469221+954119066+953831759+953467438+951837072
893+948869732+947154172+946825066+945585058+944437028+945432426+947179710
880+947240164+946458151+947682896+951240412+955395187+959353735+963150972
866+967577691+973280630+978745144+982484322+984631242+985696671+986437583
853+986912936+986389499+984939298+983377567+982331790+981983131+981994205
839+981681260+980649350+980495920+982972544+984471328+980982047+976183725
826+974714770+975638341+976603213+977939389+980751404+984227316+986582434
812+988171200+991029603+994562678+996466185+995809868+994230080+995001519
799+997427166+998953283+1000653581+1003300594+1005394441+1006272323+1007036280
785+1009351393+1014029705+1020131382+1025320162+1028599150+1031262024
773+1033745133+1034977659+1034923689+1034733647+1035626194+1038033884
762+1040687581+1042168508+1042215394+1040533952+1038574979+1038457662
750+1038385536+1037787978+1038953765+1040314980+1039886115+1038355209
739+1036090673+1034417011+1034944938+1035972857+1034582811+1031445581
727+1028229043+1025594799+1025218208+1025948146+1024601097+1022585859
716+1022298353+1022393424+1021211675+1019702317+1019908320+1020175575
704+1017154266+1014288680+1015186314+1015301137+1011467088+1008188699
692+1008563295+1008360784+1006069911+1007193500+1011291612+1013560038
681+1013750578+1012088589+1009808191+1010997422+1017016099+1022216650
669+1019428378+1014680834+1017842904+1020481737+1018875812+1017376130
658+1019344580+1023357996+1024609975+1023246366+1023035774+1024999635
646+1028739511+1028436243+1019299988+1009134616+1005113419+1005416189
635+1009173323+1014353923+1015138031+1011164020+1003690752+992475913+983114402
621+982075209+987687966+995900350+1003487443+1002318763+994859362+993379233
608+995693948+994600387+993604689+999610198+1011961196
##END=
