##TITLE=Sample description
##JCAMP-DX=4.24
##DATA TYPE=INFRARED SPECTRUM
##DATE=24/8/2023
##SAMPLING PROCEDURE=Instrument type and / or accessory
##ORIGIN=Default
##XUNITS=1/CM
##YUNITS=ABSORBANCE
##RESOLUTION=4
##FIRSTX=4397.6552
##LASTX=599.8556
##DELTAX=-1.9287962
##MAXY=1.3813179
##MINY=0.38678846
##XFACTOR=1
##YFACTOR=1.2864525e-009
##NPOINTS=1970
##FIRSTY=0.58926779
##XYDATA=(X++(Y..Y))
4398+458056391+457857764+457681376+457637313+457875787+458429183+458983738
4384+459065329+459117314+459797059+459887037+458412225+456882880+456318503
4371+455897803+455371836+455190073+455341766+456141837+457049399+456324248
4357+454389493+453042327+452460298+451996740+452024957+453174607+454334172
4344+454434204+454147869+454042833+453813116+452928257+451790977+451542450
4330+452232249+452990991+453373698+453517700+453570148+453531785+453192584
4317+452653551+452655775+452816456+452045482+451171650+451723656+452889198
4303+452970141+452875808+453758166+454033010+452983902+452062996+451460117
4290+450817484+450837175+451302401+451455900+451412950+451282292+451067216
4276+450730796+450120642+449419445+449125743+449291799+449137233+448437473
4263+448002920+448285224+448829122+449328077+449899450+450063514+449784731
4249+449461144+448522725+447344626+447040870+447073535+446772558+446673546
4236+446907525+446848729+446566610+446665020+446981935+446992499+446840575
4222+446966923+447260440+447153412+446528756+446066079+446426361+447182787
4209+446861146+445394535+444617075+444574727+444308917+444515606+444787023
4195+444185533+443932279+444578758+445074516+445185622+445305391+445155830
4182+444401304+443646222+443344921+443190634+443192812+443550453+444176035
4168+444822282+445014979+444469691+443720030+443538082+443494344+442852962
4155+442379026+442734861+443179144+443122062+442650906+441837862+440896060
4141+440495469+441055166+441854727+441958512+441782495+442154591+442752699
4128+442867696+442287103+441293593+440630528+440526326+440257458+439902690
4114+440125225+440172392+439784171+439775229+439665143+439322930+439238142
4101+438802523+438471338+439200890+439855894+439574702+439232165+439135515
4087+438813504+438204555+437718990+437880644+438311027+438173605+437882868
4074+437846358+437371727+436332719+435200722+434459447+434459725+434593765
4060+434459401+434439941+434392821+434197112+434279445+434893908+435783910
4047+436177505+435735585+435341805+435422655+435202205+434635187+434344635
4033+434279028+434204433+434131876+433978979+433592241+433161255+433001640
4020+432849993+432407610+432035050+431965087+431969026+432039405+432364242
4006+432803799+432820201+432254295+431865889+432089954+432339593+432173213
3993+431675184+431105479+430841059+430951887+431247674+431505932+431336169
3979+430887855+430845878+431207040+431292339+430819932+430201160+429965698
3966+430248836+430581736+430509689+430260234+430016896+429675981+429307405
3952+429161087+429102800+428792094+428705452+428471334+427590506+427704947
3939+429010367+429658652+428720047+426830929+426246583+427862617+429152145
3925+428182636+426652410+426292221+426030488+425319190+425167359+426065793
3912+427523601+428961764+429606760+428138712+424625546+421820757+421080734
3898+422409922+425293939+427520034+427026499+426179169+427449052+427180277
3885+424348060+422600349+421332876+421619581+423940380+424753655+423734107
3871+422011462+420495183+421474931+422225750+421272180+421960033+424163100
3858+425625634+423845398+416506829+414231808+419614076+424357882+425915166
3844+424567537+422432486+420471785+417782550+416835188+418686962+421088147
3831+422865742+423265129+422516580+422403436+420954663+416540930+416542459
3817+419297903+420560743+423217453+426092110+426146412+422873063+420537484
3804+420761734+419961849+420089078+422035416+423489332+425178849+426481906
3790+426432840+426159802+425816246+425239545+425310063+424985272+424142807
3777+424681793+425724322+425828895+424660944+423688470+424037215+424376832
3763+424900437+425211606+423811065+422681709+423473672+423874541+420874183
3750+417894073+419646602+421068826+419762387+421186974+424118436+423851560
3736+419349008+415648333+417229247+421903415+425939723+426915533+425344998
3723+423983376+424179131+425981468+428475319+429960741+428344661+425511285
3709+427898154+433804444+439670425+445099072+451199311+458245613+464818305
3696+470118658+473928492+475287797+473303095+472074726+474164603+475841008
3682+475171873+472936465+469875968+463814742+457872173+456855961+454681110
3669+452320373+454409231+456888903+457560772+458122647+459376406+459896304
3655+460816561+463286921+462688860+454883074+448826435+449104291+449870215
3642+448272946+445060524+441624269+437695453+433909433+431248369+425883289
3628+418063094+416952919+418680846+418128562+413721686+407382742+404300793
3615+402701022+399708633+396517061+393131494+390327076+389654652+388755985
3601+386050025+383379902+381334250+378842855+376872076+376586320+375736303
3588+371524140+367783573+367568219+367509910+365950958+364369604+363413601
3574+362534417+361917314+361026918+357453125+351889812+350521101+352752895
3561+354173683+353853988+353250229+352432551+350808155+349538527+349255180
3547+348535820+347035387+346103569+346278637+346927385+347097449+346619390
3534+345999576+345063195+343621117+342776242+343079281+343008021+342029431
3520+341397779+341193267+340564279+339474422+338555948+338111294+338079024
3507+338268593+337791044+336498666+335896158+336255721+336340626+335541713
3493+334261452+333140273+332548074+332260766+332026068+331949156+331885402
3480+331785324+331693863+331288222+330425926+329440178+328580083+327954710
3466+327800538+327653525+326885586+325976749+325358789+325041503+325195976
3453+325444967+325028298+323824370+322769354+322705415+322786613+322407126
3439+322382199+322632187+322355743+321888271+321943407+322212159+321897190
3426+321058339+320352068+319991555+319874866+320136413+320655917+320879982
3412+320608241+320091981+319683999+319506545+319482035+319626686+319808703
3399+319833537+319782224+319838495+319970960+320174128+320608681+321143776
3385+321557364+321834826+322075153+322544271+323240325+323806068+324256398
3372+324829068+325500659+326132149+326489488+326706533+327359406+328450074
3358+329453452+330235615+331087208+331722613+331715709+331790420+332531278
3345+333617499+334701079+335497929+336134284+336871087+337568647+338129179
3331+338688019+339440692+340392733+341504715+342698844+343680677+344328638
3318+344752350+345205575+345760546+345972703+345964294+346729453+348169654
3304+349100638+349590234+350469719+351636859+352771173+353944661+354973198
3291+355406778+355658201+356545354+357596269+358216315+358865596+359922419
3277+361316311+362690002+363794015+364819725+365989182+367510025+369124785
3264+370067398+370515665+371184406+371920306+372740277+373917750+374996302
3250+375770519+376410442+376948803+377391812+377791639+378494735+379301779
3237+379676239+380017131+380967829+382339852+382986006+382558935+382401636
3223+383003658+383763211+384656387+385374913+385222224+384492857+384013708
3210+383867483+383757906+383802872+384177726+384674063+384733531+384321611
3196+384202490+384225356+383817907+383536344+383722439+383981438+384104891
3183+384060666+383906495+383794903+383735458+383537410+383355531+383685419
3169+384398848+384717523+384311743+383789621+383700755+383799606+383952179
3156+384238908+384104706+383400821+383034910+383286797+383571209+383692091
3142+383718524+383566947+383343878+383400126+383662160+383715049+383588538
3129+383248966+382636241+382469861+383139343+383998905+384333496+383965105
3115+383463949+383550174+384080867+384480138+384553390+384350917+383995639
3102+383686299+383620878+383930217+384491884+384957202+385027025+384764921
3088+384554803+384696789+385302379+386004665+386226575+386227455+386479296
3075+386655452+386497435+386328182+386158883+385843173+385764153+385842154
3061+385556745+385318318+385574235+385797582+385597101+385298441+385317970
3047+385455948+385076879+384400794+384165262+384198135+384090250+383806162
3034+383221236+382613839+382397559+382434857+382634342+382871055+382801973
3020+382485521+382268453+382175927+381875298+381387416+381182626+381378613
3007+381694254+381868117+381952187+382198839+382444911+382434718+382451096
2993+382705508+383033056+383463347+384016952+384528000+385021835+385389438
2980+385478443+385650916+386130666+386475589+386368816+386160412+386171485
2966+386067863+385568629+384966190+384403412+383860556+383563750+383591943
2953+383760385+383835467+384020566+384682519+385246850+385138779+384774327
2939+384463482+384224776+384219101+384304746+384099887+383563773+382983434
2926+382684751+382808853+383015288+382817355+382344022+382030420+381834618
2912+381684153+381984388+382748273+383243290+383115644+382866120+382959920
2899+383368991+383859212+384120737+384048365+383950488+384109177+384351936
2885+384429080+384552023+384912954+385323808+385649549+385768462+385546621
2872+385029666+384416941+384168019+384420578+384692782+384826521+384974345
2858+385035202+384916313+384581352+384054829+383619094+383566089+383885367
2845+384383952+384864560+385068145+384922800+384881795+385377183+386122419
2831+386631475+386953185+387248277+387407546+387482604+387623733+387553192
2818+387127303+386976074+387406619+387916787+388367858+388882705+389212176
2804+389282740+389362710+389680088+390150781+390392915+390254612+390075027
2791+390258180+390744301+391168290+391485252+391860962+392173383+392324520
2777+392456799+392478344+392328597+392271793+392361725+392486591+392672477
2764+392997732+393549923+394218132+394625117+394653843+394664917+394807806
2750+394817582+394790756+395071392+395448956+395653514+395895046+396235590
2737+396424535+396421245+396542312+396917560+397317132+397701877+398129480
2723+398529377+398865751+399130820+399367718+399587983+399799723+400122059
2710+400618651+401258319+401980458+402561144+402786923+402771957+402746567
2696+402932870+403411115+403971276+404480007+404776860+404743686+404778991
2683+405162486+405581935+405731311+405746091+406020750+406554316+406909872
2669+407076067+407407716+407833141+408073839+408250598+408615606+409069896
2656+409389545+409642057+410101769+410719058+411074104+411158291+411408162
2642+411928152+412498692+413049447+413492386+413624666+413700697+414078261
2629+414488814+414819814+415454848+416326271+416987576+417368430+417655414
2615+418018105+418581045+419264636+419915470+420464418+420910276+421412197
2602+422090645+422840723+423521858+424183487+424987820+425745913+426110690
2588+426284576+426654958+427226100+427936795+428682054+429215852+429562003
2575+429892956+430248095+430645721+431098900+431619307+432082818+432322219
2561+432507410+432975786+433669894+434130810+434232047+434316465+434688469
2548+435373867+435953997+436126169+436332673+436884123+437385025+437686140
2534+438100399+438618861+439028348+439381634+439815816+440308192+440690436
2521+440824754+440856585+441078332+441482908+441935392+442521731+443175854
2507+443550453+443596322+443588770+443618330+443706362+444018319+444522788
2494+444952059+445238950+445483447+445645704+445715434+445807405+446012890
2480+446196876+446098280+445910495+445945846+446042079+446071222+446160690
2467+446242467+446080952+445803744+445780949+446000843+446172459+446119547
2453+445801752+445420203+445311183+445314936+445014886+444549336+444269951
2440+444199479+444198136+444189610+444116915+443865097+443437587+442960685
2426+442488232+442060953+441767483+441570848+441374953+441172665+440850654
2413+440331961+439810349+439465820+439225678+438889397+438366580+437731175
2399+437171617+436809945+436559286+436285831+435961827+435659970+435362515
2386+434995330+434616376+434109775+433069609+431319072+429093627+426460686
2372+423350566+420372448+418114338+416085110+413919109+412148695+411151850
2359+410819136+411220793+412654230+415139463+418195790+420389637+420121696
2345+417389604+414406898+412905445+412647095+413107641+413837425+414152950
2332+414062925+414405230+415169347+415846266+416590784+417495149+418425646
2318+419428978+420383521+421189847+422012296+422836923+423478537+423895530
2305+424160320+424308260+424314793+424242375+424321928+424721037+425267900
2291+425656214+425810269+425835335+425885282+426075709+426280452+426303109
2278+426237826+426333781+426609830+426860953+427108415+427501315+427940733
2264+428307039+428606718+428918999+429286370+429711888+430196527+430554724
2251+430731668+430971810+431448943+432136703+432816958+433353860+433809262
2237+434167182+434439524+434845444+435565591+436416489+436999908+437302367
2224+437654680+438178562+438825921+439481758+440036684+440584474+441132773
2210+441597118+442179611+443037042+443930194+444666558+445353623+446103470
2197+446924251+447769728+448584347+449422457+450351749+451275852+452193746
2183+453253326+454352473+455245302+455979627+456869861+457936900+458960525
2170+460001479+461028857+461908759+462817896+463786479+464531599+465054277
2156+465671195+466348531+466893124+467369330+467647510+467498319+466974669
2143+466295341+465690979+465146432+464342377+463048123+461460908+459936752
2129+458510497+456963452+455128544+452939052+450462206+447968494+445674986
2116+443539889+441430089+439243007+437001391+434865599+432837993+430791252
2102+428800758+426892181+424898213+422892291+421104271+419532670+417953517
2089+416173466+414243113+412384528+410748479+409246470+407701696+406084828
2075+404494556+403017751+401622168+400223990+398787171+397278861+395661669
2062+394044662+392609650+391338238+390098379+388833268+387534103+386183879
2048+384805486+383491957+382250523+380971628+379676077+378624883+377847122
2035+376987236+375995093+375095801+374275715+373493807+372724176+371920631
2021+371190569+370448715+369463615+368452476+367709371+367062870+366378908
2008+365718971+364889062+363772655+362605561+361549341+360658945+359853082
1994+358807171+357412121+356071210+355088195+354359430+353757848+353123439
1981+352326288+351447521+350647937+349943311+349190569+348349077+347446704
1967+346522138+345780214+345272456+344778481+344176250+343472528+342697593
1954+341904194+341118811+340411475+339803869+339106842+338096908+337083267
1940+336732368+336746777+336490975+335992228+335437488+334865907+334311607
1927+333729392+332894780+332003875+331594920+331302585+330868356+330800502
1913+330849267+330411702+329751000+329614481+329905241+329977335+329799997
1900+329678791+329467653+328925632+328356413+327902701+327349398+327206856
1886+327618891+327832924+327823681+327903999+327912964+327722792+327502782
1873+327184755+326050348+324270854+324110914+325689881+326944243+327311336
1859+327293567+327205674+327190848+327226315+327116345+326751406+326156357
1846+325173644+324311395+324925602+326139307+326665807+326795168+326935277
1832+326339718+324728388+323966588+324535945+325049171+325514952+325976819
1819+326022294+325713997+325203018+324329881+323183822+322533406+322480193
1805+322310407+321547008+320152167+318965103+318586265+318097572+316506396
1792+314849891+315275432+316520666+316753279+315923972+314743372+313827401
1778+313613182+313339032+311642820+308849175+308353810+310198727+311686581
1765+312090161+311390146+310632492+310850487+311104413+311268407+311036651
1751+309087371+306632231+306614440+307889141+308449719+308099491+307723386
1738+307979397+307408302+305090098+304908799+307084090+309011547+310008300
1724+309976377+309502812+308448097+305225968+301845405+303267004+306475372
1711+308444831+308591149+307071487+305603463+305378449+304067492+301356875
1697+301078231+303402990+306475187+308250581+308300783+307499392+305111967
1684+301893985+303476126+306719128+308203299+307560458+306364058+305733194
1670+304722102+305087457+307230107+308074726+307394935+307758344+308834511
1657+308652470+305623201+300662836+301581171+303527115+303510899+305502319
1643+309329250+311767084+312212224+310961083+310679543+315029661+320044073
1630+323428921+325897358+328332482+331122305+335483334+340315033+343744755
1616+347814283+354286364+360428463+365175768+369281551+373739763+378468025
1603+383186672+387951536+392506607+396514235+400384950+404727006+409325791
1589+413953534+418692244+423551093+428444368+433145363+436967012+439583875
1576+443673002+450313895+455878946+460842554+467547339+474851854+481325393
1562+485991453+487898409+491891396+502731919+513389289+522679571+530798009
1549+538751458+545730347+550720225+553833310+557873139+570655738+584149264
1535+593252964+602223597+612735159+621671275+629028979+636279933+643029522
1522+650789161+660797227+671172663+682685657+693717117+701892961+707076463
1508+709624291+717023602+731267808+741963449+749023513+754124357+760247762
1495+768581740+775580552+779979736+784737442+793417848+802731250+809760548
1481+815583996+821250747+825601838+827539558+828726413+834312638+843780327
1468+851536213+856484346+861893580+868321112+871871113+870839750+874390400
1454+886287584+896882451+904383045+910507283+918299309+927185802+933901244
1441+938366314+941781580+945001045+951482414+960696386+968041303+973796178
1427+980743190+987016898+990827751+991933895+990484334+992402688+999648360
1414+1005833942+1009018472+1011037923+1012660397+1012693201+1012144623
1402+1013014100+1012665309+1010908100+1011293679+1012567083+1013307478
1391+1012915782+1009495142+1004406621+1002917122+1005822823+1010057990
1379+1013772008+1015445262+1014189557+1013605582+1016094104+1017589256
1368+1016539174+1015024841+1012697741+1010906524+1011932605+1013141422
1356+1012940246+1012453013+1011911014+1010394920+1008592861+1007433621
1344+1006254086+1004516337+1002122889+1000325556+1000930196+1003250439
1333+1005627484+1006611681+1005643516+1004580924+1005827826+1008818779
1321+1010474056+1009855516+1010451909+1013782943+1017464065+1021325977
1310+1026264287+1031138288+1034939689+1037942040+1040524061+1042837446
1298+1045331064+1048159297+1051255702+1054155750+1056170290+1057785351
1287+1059327855+1060584672+1061902092+1063281320+1064414244+1065475723
1275+1066322497+1065954709+1063899859+1060922899+1058382856+1056800691
1263+1055207685+1053404699+1052735286+1053602725+1054363413+1054207365
1252+1054441900+1055553789+1057210086+1059062276+1059942317+1059447763
1240+1058738041+1059451933+1061976224+1063908107+1063041224+1060729507
1229+1059464814+1060076218+1061441361+1061916177+1061707958+1062300459
1217+1064200280+1066017350+1066607998+1066977176+1067500085+1067275187
1205+1066897669+1067515653+1068740315+1070032530+1071681136+1073426391
1194+1073741823+1071620811+1068680176+1067259804+1067968229+1069380539
1182+1070060330+1070710191+1071282861+1070624475+1069343751+1068484003
1171+1068111675+1067769926+1067101347+1066073413+1064809553+1063273999
1159+1061680252+1060379048+1058890290+1057043474+1054978431+1052616768
1148+1050815636+1049847100+1047853224+1043898184+1040105585+1038017562
1136+1036666226+1034931998+1031903424+1026773575+1020669723+1015511055
1124+1011299146+1007102713+1002005205+995512251+988823126+983153966+978191470
1111+973567851+969250305+964496676+959263691+954690852+950659641+946431145
1097+942298744+938647830+935392782+932085749+928150539+923962446+920733437
1084+918828427+917513972+915802540+913479796+911102842+908679927+906122462
1070+903701122+901358918+899398310+898402715+898304398+898770411+898906721
1057+897789736+896055693+894636063+893674384+893250534+893374705+893696995
1043+893748980+893528252+893547711+894083408+894650797+894884591+894846228
1030+894633469+894991805+896276514+897854694+899135789+899718097+899946887
1016+900644100+901752097+902551333+903085455+903796011+904318643+904605534
1003+904833861+904289639+903263187+903478911+904895483+905440447+904342736
989+902504445+900541241+898840651+898055129+897648514+896056898+893425115
976+890813905+888472998+886524250+884357184+881187017+877591517+874602233
962+872676651+871774927+871519634+871230890+870573338+870012714+870040050
949+870979675+873165923+876185416+879004938+881045888+882421502+884002554
935+886509424+889178272+891547256+894435629+897477083+899481338+900861121
922+902839151+905417003+907437751+908426395+909098588+909620293+909097106
908+907322290+905536819+904522877+903637369+902436243+900815993+898384275
895+896129176+895441045+894928514+893123398+891237570+889942296+889364715
881+890760159+893174456+893456621+892111587+892727254+895227730+896911733
868+899025332+904204943+910619223+915844610+920190975+923497267+925740504
854+928148222+931083854+933747698+935379624+936764226+939456890+942661806
841+944812286+947402647+951742433+956800096+962295601+966316990+965397845
827+961874068+961505260+965061192+969138551+972099665+974581422+976707531
814+979410388+983866468+987927796+989330005+988905228+988431060+989219084
800+990770113+991952520+993461294+996956345+1002404128+1006876888+1009315371
787+1013063861+1019208857+1024756625+1028675249+1031658324+1033078418
775+1034177055+1037858085+1043056228+1046202117+1047656774+1049040635
764+1049496547+1048864108+1047719138+1047348106+1049400361+1052257134
752+1052767349+1051957085+1053369950+1055670918+1055060069+1052188933
741+1050625023+1051233648+1050592220+1048065613+1046012617+1044634593
729+1044837623+1045933944+1044577141+1041787087+1041529941+1043019625
718+1041575532+1036708111+1032504913+1032165666+1034623145+1036377389
706+1037526714+1038758975+1037260024+1033658872+1031243926+1030104516
694+1028837505+1027026273+1026837421+1029253016+1031055260+1030618714
683+1029945409+1031915007+1036113015+1038718017+1039566645+1040056195
671+1036823942+1028682754+1025939959+1031367356+1033530623+1030159651
660+1025300199+1024925739+1031062395+1040174806+1046646168+1046283291
648+1044488182+1048380767+1054968423+1056122938+1046745134+1033112148
637+1025589407+1024992180+1028756794+1037380860+1047727663+1055924357
625+1060342816+1051292305+1027675206+1010102098+1008097474+1008855752
613+1008936278+1021867883+1044827244+1052172438+1034075402+1016611546
602+1024102317+1049428439
##END=
