##TITLE=Sample description
##JCAMP-DX=4.24
##DATA TYPE=INFRARED SPECTRUM
##DATE=24/8/2023
##SAMPLING PROCEDURE=Instrument type and / or accessory
##ORIGIN=Default
##XUNITS=1/CM
##YUNITS=ABSORBANCE
##RESOLUTION=4
##FIRSTX=4397.6552
##LASTX=599.8556
##DELTAX=-1.9287962
##MAXY=1.5235162
##MINY=0.59437931
##XFACTOR=1
##YFACTOR=1.418885e-009
##NPOINTS=1970
##FIRSTY=0.83459377
##XYDATA=(X++(Y..Y))
4398+588203953+588041634+588172615+589177281+590575604+592578718+594339193
4384+594502226+592994430+590914399+589067682+587270870+587023400+588915108
4371+589982786+589463230+589491921+590651345+591816145+592404342+592588464
4357+591583210+589828154+589326073+589831977+589905029+588813575+587137830
4344+587113508+589047392+590528681+590592113+589987407+589010845+587718592
4330+586326024+585749925+586522790+586871625+585912832+585189201+585186009
4317+585422976+586056710+586830331+586744046+586356942+587092966+587620965
4303+587153457+587588241+588069780+586693385+585272713+585141858+584688927
4290+583610285+583416628+584143368+584902832+585212096+584778698+584307577
4276+584422722+584712577+585343959+586244612+586794330+587240582+587182275
4263+586066792+584932238+584220915+583230490+582004148+581407003+581764366
4249+582114587+582041283+582420154+583314254+584188737+584592602+584207346
4236+583869685+584016839+583415116+581667957+580477154+580829644+581822085
4222+582518831+582188437+581069006+580014981+579056651+579025439+580182215
4209+580828636+580027205+578652701+578471478+579449888+579446570+578478493
4195+578947177+580939789+582120132+582341557+583080395+584103292+583872374
4182+580897067+576463617+574639962+576659417+579453501+580001454+578633461
4168+577961584+578664421+578972466+578634427+578778179+578534574+576908945
4155+576049292+577756710+580018762+580094880+578339152+576962421+576727344
4141+577425056+578805232+579544574+578718317+577334109+576203377+574909864
4128+574198667+575188210+577061645+578358812+577870678+575884368+574482642
4114+574681760+575493651+575306169+573975142+572880748+572593622+572816727
4101+573771487+575618709+577248160+577109492+575442779+574595812+575289533
4087+575458658+574898648+575257523+576299156+576409007+574846138+572637185
4074+570879356+569964504+570738587+572989549+574727717+574827570+574178083
4060+574132841+574703142+575046643+574919904+574537715+574038322+573170519
4047+572475244+573222315+574636182+575123601+574388376+572700239+571426092
4033+571616430+572241889+572321956+571881459+571053648+570504224+570821721
4020+571593914+572254029+572583162+572569258+572201099+571340269+570251966
4006+569831927+570386139+570967111+571331951+572148085+572553463+571790386
3993+571482592+572347497+572652350+571891121+571467554+571572112+570923927
3979+569286914+568052884+568461791+570126866+571396728+571297757+570075658
3966+568439905+567410707+567744755+568946228+569603109+569095441+567857463
3952+566542315+565669807+565496188+566122781+566197051+564918787+564790956
3939+566187935+566934881+566525050+565188689+564520004+566201252+567722449
3925+566869811+566006586+566390750+565905683+564490598+564224015+565149369
3912+566234858+567571472+568722367+567974161+565192008+563007503+562369316
3898+562962134+564903160+566102953+563972009+561875049+563020021+563426996
3885+562862827+563910425+563266735+562479839+564171253+564289002+562686141
3871+561056857+559167502+559826021+560449295+558918016+559449796+561871142
3858+563648840+562244090+553669189+550027382+556405890+562376962+564320424
3844+563001580+560892942+558636982+555762578+554934893+556292132+557676005
3831+559579769+562094541+563725967+564735128+563100971+556813369+554624411
3817+555967284+556764849+560305711+564659513+565819692+562441066+559776745
3804+559933687+557517172+555767451+557626855+559695711+562114033+564660437
3790+566074051+566371259+565705388+564915384+564713829+563363227+561662740
3777+562803050+565119418+565529921+562737685+559487939+559260970+560817159
3763+562515252+562083577+558494868+556985770+559515749+561224512+557394256
3750+553059694+555328761+558178295+557679995+558870505+561618464+561452112
3736+556392532+551768575+553520103+558505664+561679123+561438249+560650807
3723+561045851+560997332+560990107+562393135+564217966+562188513+556022860
3709+555245753+559281050+562475513+562859004+561615019+561704202+562637832
3696+563115212+563106054+561446146+556834331+554700278+558169768+561900548
3682+562785070+561934070+560442069+555450458+550727993+551558325+551202768
3669+550097494+552624826+555216431+555669320+555011768+553874231+551498547
3655+549947483+550349374+547745125+539491166+535347446+537753039+540747712
3642+541296673+539255627+536944636+534975675+532326477+529704794+524986824
3628+517431501+515866952+518588110+519746987+515833178+509445764+507253698
3615+506566572+504718720+503528211+501290818+497940211+496859343+496427962
3601+494276434+491667942+489742123+487724264+486144466+486053897+484756351
3588+479420106+475633959+476617326+477965702+477220310+475111630+473119523
3574+472204797+472063398+471034157+466982519+461638041+460597626+461924116
3561+461918109+461209852+461272402+461078493+459035724+456655545+455743928
3547+454869446+453451589+452676497+452404159+452173871+451853349+451533373
3534+451594285+451263724+449659393+447964198+446902150+445468960+444157972
3520+443810481+443456773+442681807+441858071+440833578+440012908+439760985
3507+439364681+438402906+437504395+437285449+437201894+436926321+436745771
3493+436325144+435448267+434368995+433088127+432205453+432026792+431295473
3480+429982259+429436448+429505845+429545375+429397296+428913657+428113613
3466+427058790+426194179+425895418+425513690+424726501+424370776+424648366
3453+424407996+423422822+422515615+421568963+420919896+421359469+422226516
3439+422507886+421813744+420768793+420406305+420618362+420716199+420391056
3426+419917415+419669315+419503761+419179291+418905902+419219241+419631046
3412+419307920+419117119+419421300+419378073+419416301+419979545+420317878
3399+420026132+419690613+419649362+419339258+419135603+419763245+420325524
3385+420328968+420732918+421806141+422741577+423427947+424420892+425345616
3372+425738770+426104408+426935118+428213760+429510550+430834477+432462458
3358+433727910+434410247+435343079+436858478+438598705+439821561+440100747
3345+439997953+440272350+441310453+442786450+443895757+444768937+445708196
3331+446119707+446175074+446613386+446875349+446262493+445828297+446436700
3318+447163524+447496060+447584403+447205952+446737478+446779234+447081230
3304+447037374+446819226+447340966+448488669+448743700+447979783+447852709
3291+448684973+449696780+450444482+450817178+451750261+453495151+454507840
3277+454191939+453819075+454494733+455901878+457156324+457856347+458204510
3264+458744272+459589894+460233836+460375488+460286598+460622873+461846149
3250+463192718+463325001+462359151+461655894+461948522+462811158+463458713
3237+463773858+464403811+465540592+466241581+465537945+464427798+464796377
3223+466125639+466851496+467024318+467041205+466790038+466212175+465474681
3210+465080057+465350169+465902660+466508878+467623773+468991766+469536611
3196+469173619+468849653+469106742+469585467+469743375+469750390+470109727
3183+470604835+470977236+471773962+472968252+473885624+474640552+475219885
3169+475183884+475111294+475494954+475771914+475897224+476236355+476769858
3156+477521634+478282779+478601704+478738819+479166041+479558732+479991080
3142+480732817+480994317+480700512+480730044+481021664+480779530+479967723
3129+479477699+479628592+480028887+480501688+480959618+481214481+481174952
3115+481091061+481312276+481712067+481988102+482048468+481616541+480821916
3102+480575412+481301480+482637715+483708543+483720306+482877875+481928619
3088+481733701+482498500+483495310+484182815+484293422+483940134+483651412
3075+483549795+483528413+483601339+483764582+483938706+483901991+483676239
3061+483629778+483874643+484253598+484606214+484909849+485296323+485611174
3047+485746020+485977610+486148961+485973073+485643436+485237050+485018398
3034+485436588+485978198+485848603+485318503+485193571+485771392+486652302
3020+487318886+487607146+487602903+487439282+487320945+487378244+487463604
3007+487658312+488044072+488139388+488124854+488732038+489752373+490758425
2993+491707597+492477563+493008798+493393214+493901848+494827076+495977215
2980+496792214+497111560+497290052+497519080+497570162+497357769+497384192
2966+497757140+497740757+497228300+496839515+496617460+496328655+496152011
2953+496122563+496167512+496444765+496928110+497608137+498373314+498669387
2939+498361300+498011331+497986252+498108958+498300178+498598142+498600116
2926+498124248+497667873+497363482+496718658+495913489+495669632+495830103
2912+496115632+496635524+496865014+496641867+496582846+496898284+497523827
2899+498154410+498396923+498460481+498670312+498909590+498950001+498809820
2885+498565795+498311647+498452710+499224398+499996423+500052420+499660904
2872+499312405+499049981+499068968+499567646+500210580+500600331+500633055
2858+500289135+499872751+499568739+499130510+498766174+498785624+499018601
2845+499225911+499551431+500344502+501183319+501521947+501668303+501871538
2831+502016256+502066077+502016256+502159755+502981518+503923843+503981394
2818+503707669+504072594+504802568+505348505+505651720+506124017+507024712
2804+507697681+507902219+508345908+508922805+508998294+508762965+508856559
2791+509470213+510080968+510358642+510653202+511025184+511116342+511057026
2777+511221320+511578052+512065808+512628129+513084084+513481817+513720129
2764+513589778+513546971+514094505+514895389+515406123+515599613+515732400
2750+515905137+516040025+516146852+516254477+516385542+516805707+517557904
2737+518145723+518262001+518176725+518360930+518835706+519172736+519426339
2723+519906954+520386350+520632896+520868813+521319644+521850962+522322209
2710+522774132+523123723+523358296+523677684+524153803+524582958+524843786
2696+525097767+525436520+525841142+526334485+526837658+527084498+526993172
2683+526853747+526799179+526887774+527360407+527999686+528285551+528278199
2669+528275091+528308907+528438166+528754865+529289880+529824349+530038884
2656+530072029+530137981+530378520+530992048+531639140+531930130+532276781
2642+532964622+533486656+533516818+533359540+533423476+533795710+534249901
2629+534694178+535160804+535404661+535354588+535521780+536023398+536421467
2615+536852050+537529514+538068016+538402274+538899692+539552876+540124228
2602+540584048+540971363+541247944+541405180+541638031+542086720+542672858
2588+543422913+544255261+544874922+545212835+545420061+545649761+546000823
2575+546413511+546721640+546851277+546845438+547004312+547559911+548075560
2561+548252120+548424396+548627211+548760754+549132652+549749205+550254016
2548+550586510+550754290+550766262+551030661+551803106+552633228+552984289
2534+552875488+552773115+553042555+553655999+554440626+555173709+555498515
2521+555341027+555322880+555832606+556407402+556949727+557683272+558116669
2507+558017908+558078652+558513478+558638620+558319821+558230805+558692600
2494+559390733+559872061+559960782+559911381+560103820+560578805+561078534
2480+561381076+561408381+561191073+560859966+560648455+560676726+560837449
2467+560943646+560892690+560764943+560614512+560447530+560320246+560193549
2453+560077229+560039632+559994641+559980610+560122556+560129319+559838959
2440+559693233+559808839+559671473+559014718+558267983+557834585+557513643
2426+557102342+556684236+556461635+556467054+556220929+555603284+555233150
2413+555245501+555090197+554641761+554323465+554211598+553965010+553436801
2399+552848729+552438856+552148118+551766643+551164919+550447379+549737106
2386+548961469+548037165+546589650+544163977+541037736+537692716+533923414
2372+529605949+525580314+522346699+519294098+516394364+514275476+512944660
2359+512338609+512845310+514646365+517892036+522344011+525875631+526061097
2345+522835296+519199916+517525641+517279768+517550468+517963576+518188907
2332+518267336+518694936+519512834+520298217+521012061+522143128+523941957
2318+525918857+527486389+528507059+529255433+530088076+531017127+531991336
2305+532986466+533726816+534128792+534369288+534601383+535062001+535693425
2291+536044948+536132031+536503341+537226048+537726490+537681037+537394542
2278+537199331+537091496+537110442+537324095+537729557+538350394+538919562
2264+539109648+539067850+539196521+539679488+540331538+540873484+541222781
2251+541466428+541668067+541854541+542116335+542492938+542988213+543653915
2237+544395862+544934658+545130962+545260809+545652870+546200109+546776628
2224+547408430+547910721+548336893+548968568+549666113+550252252+550823351
2210+551352863+551799913+552297457+552930645+553689311+554426511+555006013
2197+555604334+556364806+557104443+557699445+558384303+559313018+560166370
2183+560712769+561190149+561835183+562637454+563526849+564362264+565079342
2170+565764578+566383861+567023056+567703839+568112704+568402434+569073849
2156+570078052+571037853+571762576+572168585+572342204+572574467+572902886
2143+573171276+573388625+573507928+573448571+573387743+573284151+572729014
2129+571767155+570880407+570382905+570101703+569420542+568136732+566680564
2116+565403266+564406960+563449260+562035310+560299074+558848198+557744688
2102+556759934+555732164+554482928+553094687+551747151+550427173+549073379
2089+547700092+546357220+545123106+543984645+542750195+541424630+540260082
2075+539335526+538404669+537232769+535927284+534583319+533195918+531989698
2062+531112653+530347392+529401118+528145874+526675801+525271681+524082684
2048+523027062+521987656+520843230+519642345+518645661+517887289+517037381
2035+516013434+515134331+514379614+513406202+512200066+510949779+509806529
2021+508985775+508368173+507497765+506550147+505982281+505436596+504484357
2008+503428820+502592901+501828017+501004701+500183107+499349162+498515638
1994+497593140+496471440+495556084+495009811+494458581+493866561+493329698
1981+492722051+491935491+491135153+490546074+490057352+489394212+488464699
1967+487578496+487125859+486940267+486634659+486121194+485455450+484767231
1954+484276703+483822385+483026962+481991967+481062202+480148946+479285470
1940+479161210+479596750+479692444+479189607+478334197+477487524+476947804
1927+476550785+475742046+474715032+474195560+473712551+473058149+473012696
1913+473130571+472539979+471642771+471287970+471336910+471334599+471162156
1900+470817228+470376353+469806513+469235077+468702373+467964290+467618606
1886+467947949+468164375+468126946+468059859+467969373+467844988+467601425
1873+467001717+465310892+462779232+462205822+463961340+465562646+466062920
1859+465944080+465716774+465522150+465247417+464800661+464148990+463251403
1846+461921637+460873661+461595486+462843589+463187761+463105719+463029264
1832+461920209+459406025+458060800+458642948+459320665+460059965+460846230
1819+461068243+460758055+460170866+459157883+457889029+457404886+457745613
1805+457981909+457390351+455742878+454392024+454324391+454152578+452498845
1792+450846457+452027431+454103260+454571566+453606935+452355136+451451500
1778+451227008+450807852+448597932+445059801+444567256+447111560+449213687
1765+449916566+449121143+448084257+448229689+448547061+448877622+448673757
1751+446266483+443276306+443076053+444268495+444865640+444568433+444054170
1738+444221488+443408337+440246767+439734100+442567671+445322394+446796247
1724+446772891+446064131+444481308+440092093+435790549+437744009+441832404
1711+444249633+444265218+442020978+439814798+439352499+437339345+433244523
1697+432691234+435749003+439559598+441553008+441193041+439754264+436539637
1684+432264096+433933791+437954763+439872181+438932838+437141361+436169000
1670+434781641+435115059+437650835+438306035+436809413+436945645+438329770
1657+438007400+433784453+426784225+427194014+428938946+428113529+430246322
1643+434917495+437611599+437677762+435368410+433679516+437997948+443620394
1630+446998306+449004024+451216674+453899017+457881720+462103070+464541514
1616+467460530+473382031+478927939+482631834+485813064+489547919+493226862
1603+496584610+500068635+503501998+506430255+509282941+512717774+516461997
1589+520088555+523581485+527121171+530725590+534018730+536304811+537141612
1576+538986145+543981410+548231410+550713374+554421764+559601571+564297529
1562+567263972+565991883+563684673+571708470+581604693+589526032+595874084
1549+601687877+606056214+607399843+606071211+606052349+616152900+628766542
1535+636830246+643554943+651457000+658109065+662653962+666248720+668808692
1522+671864949+678690801+687091452+695416657+703288090+709177834+711896933
1508+711171202+714094460+725644668+735256118+740630129+743267648+747610780
1495+755379924+761935790+764963229+767395077+774401438+783161216+790056340
1481+795494538+799978818+802580042+802900984+802666327+807118344+816209902
1468+824098181+828809724+832895010+838347828+842575690+843676890+847605990
1454+857620886+867131349+874342373+880104202+886856834+894967756+902539125
1441+908718851+912754736+915376881+921530477+930750244+938791768+945629088
1427+951787558+956103217+959683818+963124532+964555412+967151848+974270874
1414+981281016+985314800+987867212+989480826+989078389+989548459+993437904
1400+996600777+996016696+993376992+991695492+994149185+997407248+996458537
1387+992865670+991901752+994895080+1000335716+1004833102+1005324428+1003742824
1373+1004489475+1007040627+1008165099+1008433783+1009241850+1009383081
1362+1009475499+1010314065+1009956240+1008590389+1007091960+1005249486
1350+1004419658+1006009580+1007602023+1007139598+1005638565+1003534212
1339+1002104088+1002152566+1002554667+1003971096+1006242893+1007449953
1327+1007354259+1007364761+1008307338+1009559347+1010911084+1013818799
1315+1018333072+1022627475+1026086505+1029305417+1032676482+1035952608
1304+1038533753+1040251548+1041815005+1044871513+1050259386+1055445957
1292+1056839953+1056133125+1057479568+1059707509+1060799720+1062716297
1281+1065677447+1067599989+1068622718+1069367101+1068985583+1067893541
1269+1067497657+1066963398+1064223379+1059786484+1056685868+1056271668
1258+1057190637+1058979929+1061986112+1064544404+1065185196+1065326595
1246+1066041825+1066123993+1065267364+1064543732+1064109873+1064321173
1234+1065663668+1066565413+1065678959+1064444005+1064668832+1065553691
1223+1065486646+1065143524+1065619643+1067174279+1069555717+1070996763
1211+1070802769+1070246582+1069589912+1069091444+1069566387+1070608440
1200+1071592605+1072491242+1073156146+1073267804+1072545265+1071406593
1188+1070876619+1071450702+1072751440+1073741823+1073254445+1071398696
1177+1069530512+1068253214+1067844392+1068892409+1070434694+1071164795
1165+1071842637+1073044069+1073153710+1071193192+1068772350+1067369196
1153+1065890764+1063207959+1061124946+1060469116+1059293814+1057209876
1142+1055073345+1053481827+1053225325+1053239692+1051332441+1047983136
1130+1044969476+1042151826+1038647259+1034670942+1031140498+1027781867
1119+1023454866+1018792221+1015758397+1014663498+1012914281+1009378041
1107+1006311618+1004926023+1005192943+1006346233+1005436842+1000106184
1096+992884321+988232934+986507326+985897620+985220366+983521979+981068287
1082+978918481+977618499+976530993+974689779+972160388+969203355+965853462
1069+963357005+962541712+961105876+957955857+954934216+951896527+948308364
1055+945599767+944124443+943081382+942479910+942065542+940217523+936534254
1042+932920970+930621531+929322893+928133560+926615556+925566110+925075960
1028+924101876+922772572+921747491+920845913+920103210+919511064+918441034
1015+917375709+917131558+916968231+916005322+914829683+914512774+914346086
1001+913331339+912246354+911616821+911347297+911390733+911384936+911072984
988+910974433+911705794+911922136+910510328+908902846+907637899+906069569
974+904657089+903509848+902185501+900990455+899904798+898541720+896860556
961+894539609+891951491+890586396+890668312+890748716+890511958+891344138
947+893537632+895551752+897042787+899564869+903037761+905684103+907328383
934+909533808+913001155+916713158+920292247+923690953+926273106+928680506
920+931130333+932879886+934163401+935209150+936206674+937192520+937348622
907+936780421+936460571+936139882+935500098+935027339+934328661+933061613
893+931620484+929767003+927910329+927467816+928357716+928777292+927729107
880+926372497+926122465+927139733+928767546+929852531+930733945+933050859
866+936410162+939348795+941435925+943410473+946556627+950188982+953119970
853+956397609+959397659+960289155+961552674+965688706+971048350+975705282
839+979376285+982852034+985603312+986064056+985297745+985002260+986526061
826+990409457+994410811+997830101+1001273084+1003670486+1006148207+1009820638
812+1012260215+1013477862+1016604020+1021002014+1023863521+1025598203
800+1026419629+1024965225+1023764886+1026291336+1031124703+1034771089
789+1036790922+1039252848+1041292340+1041911455+1044472941+1049118111
777+1052707366+1055683639+1058071630+1057456884+1055424533+1056217225
766+1058910868+1060212110+1060004170+1059474280+1060343848+1061996362
754+1061529568+1059294654+1057111746+1056279061+1058380894+1061339607
743+1059845716+1053891406+1048579903+1046559146+1047457951+1049274213
731+1049176250+1047209515+1046704158+1047995655+1047254464+1043882979
719+1040885366+1039215628+1038209871+1039003068+1042321118+1044601485
708+1043865504+1042828072+1042286756+1041370895+1039886414+1038113672
696+1038314639+1039798785+1039029281+1037750218+1037687374+1036176091
685+1032272448+1028200604+1028250258+1033299378+1039495654+1045373930
673+1049487110+1046214344+1034940718+1030556838+1039765934+1049102148
662+1055064776+1056956232+1051328660+1040734557+1034080728+1037121609
650+1046534193+1051466531+1047137850+1039233776+1031163350+1027880334
638+1031797420+1033920425+1037314510+1048411787+1050612002+1036346392
627+1026954728+1034172558+1046322977+1045850722+1027611567+1009564892
615+1011204048+1020688718+1028700752+1046771539+1067883123+1067442374
604+1037230578+1010211397+1022164126
##END=
