##TITLE=Sample description
##JCAMP-DX=4.24
##DATA TYPE=INFRARED SPECTRUM
##DATE=24/8/2023
##SAMPLING PROCEDURE=Instrument type and / or accessory
##ORIGIN=Default
##XUNITS=1/CM
##YUNITS=ABSORBANCE
##RESOLUTION=4
##FIRSTX=4397.6552
##LASTX=599.8556
##DELTAX=-1.9287962
##MAXY=1.5317224
##MINY=0.56628364
##XFACTOR=1
##YFACTOR=1.4265277e-009
##NPOINTS=1970
##FIRSTY=0.81484121
##XYDATA=(X++(Y..Y))
4398+571206031+572693465+573029818+570864371+568055674+567344527+569115417
4384+571487774+572761070+571738931+569020778+567688109+568267054+568010590
4371+566775860+566778826+567997261+569379277+570476123+569942345+567207019
4357+564444534+563779056+564589270+565276559+565161907+564273265+563643929
4344+564117916+565151879+565840045+565385571+563963361+562880428+562943061
4330+564127610+565444068+565403872+563812942+561842329+561205681+562754536
4317+564931432+565666896+564992644+564345842+564896041+566669940+568365913
4303+568850136+568290745+567071182+565600670+564432041+563417967+562635204
4290+562679285+562988730+562744383+562373349+561945909+561298356+561704361
4276+563722732+565564361+565860477+565420502+565293941+565409889+565304805
4263+564737893+563503914+561902705+561388816+562363112+563020652+562238056
4249+560918673+560814007+562207429+562971097+561856201+560318920+559906438
4236+560269616+560399686+560165534+559811131+559290598+558538921+558087497
4222+558573559+559105415+558285005+557125777+557678984+559690127+561253481
4209+561337047+560681805+560435787+560281566+559238285+558031717+557960811
4195+557946730+557068033+557247951+558975303+559620683+558364268+557183354
4182+557232783+558446455+559715949+559560182+558675551+558362973+558266328
4168+557349692+555771547+554964007+555154621+555819640+556631651+556733560
4155+556092984+555475682+555063701+554718657+554743351+555015818+554367763
4141+552881248+552499560+554242539+556495689+557242853+556914313+556794229
4128+556648531+555595181+553579443+551822508+552259976+554701275+556171536
4114+555449943+554045031+552844897+552126229+552620063+553967774+554574840
4101+553981395+553278354+553613830+554231216+553667480+552870385+552887892
4087+553326697+554025435+554140923+553177782+552297122+551612172+550221257
4074+548779659+548928114+550857446+552341537+551724360+550526984+550470785
4060+551029466+551305025+551293786+550831665+550337122+550934619+551865210
4047+551509261+550078443+549173464+549547464+550198402+550340297+549973317
4033+549238938+548907139+549183534+549006750+548172594+547840251+548336592
4020+548887752+548962168+548570828+548251605+548473975+548803726+548731483
4006+548830593+549544372+549820809+548877348+547899458+547957871+548301244
3993+548017453+547345833+547073199+546953574+546027954+545218492+545928051
3979+547349969+548061534+548051674+548207900+548224321+547399984+546652026
3966+546627833+546508752+545798190+545280080+545285052+544786999+543728008
3952+543279885+543575249+544293416+545501906+546138471+545354287+544649156
3939+545134508+545843148+545495722+543862048+542620549+543487463+545012042
3925+544967292+544075768+543793816+543513911+542973991+543077028+543822228
3912+544513612+545301682+545553425+543289077+539358172+537558577+537729594
3898+539029005+542001575+544347023+542940565+540750215+541375247+541056108
3885+539350107+539290901+538972096+539915682+542370394+541592101+538283470
3871+535850737+535203017+536788515+537160175+535583326+535950724+538073009
3858+539729121+538192300+531012848+529259548+535039478+539869262+541484552
3844+540131116+537745263+535156805+532230029+532758208+536150196+538474126
3831+539412907+539542100+539192126+539669998+538652331+534195210+533547072
3817+535382893+535805570+538003023+541023727+541506655+538347942+537002528
3804+538791886+536875299+534311618+535450665+537236429+539933816+542773433
3790+543869109+543698091+542698390+541879986+542647331+542701524+541199466
3777+541270330+542616454+542912988+541027905+539144034+539448423+540400198
3763+541543382+541880822+540350644+540004262+541264773+539929220+533924916
3750+531170244+535283867+537130760+533808759+534081602+537513409+538540728
3736+535707254+532733055+532854393+535634761+538538013+538602066+536356103
3723+535021636+535156387+536448025+538959603+541014785+539149549+534054819
3709+532994073+536020460+539201360+539642171+537990780+538112369+539775417
3696+541160608+541318380+538837471+533453896+530850061+533300343+536693751
3682+538836385+539199647+537457044+531636292+526754071+528224332+528750464
3669+527781766+529895778+532290656+532849044+532095153+530157883+526533456
3655+524717775+526729586+526399542+518501296+513203751+515364561+518375613
3642+518813123+516592438+513723741+511371273+509783393+508911715+504860475
3628+496928301+494946240+496714372+496461459+491975425+486035633+483966830
3615+483221337+481054720+478971418+476773548+474906264+475057059+475118021
3601+472975596+470064698+467827300+465480849+463712800+463861213+463276293
3588+458853309+454964688+454768015+455183965+454650605+453801741+453027794
3574+452093066+451229410+449924568+445606292+439321833+437522321+438817846
3561+439097458+438330238+437710345+436940994+435763715+434979615+434399207
3547+432957943+431222569+430499096+430632216+430753930+430043702+428492716
3534+427221259+426648999+426189302+425784048+425164322+423430285+421599436
3520+421409365+421972684+421748267+420735697+419449699+418447366+418107378
3507+417760537+416260944+414256571+413809450+414505430+414662367+414178896
3493+413217134+411590061+409958810+409261410+409449141+409395115+408694372
3480+408153658+407836399+407428806+406908231+406660750+407202676+407534308
3466+406594274+405006853+403699880+403001518+402744762+402543158+402008628
3453+401258832+400646836+399926956+398949567+398168517+397939755+398310036
3439+398901977+399107257+398893578+398684538+398650359+398476876+397946315
3426+397570519+397596299+397620909+397515657+397363358+397429584+397705812
3412+397597218+397299765+397281088+397144833+396966461+397266213+397803877
3399+398254883+398647309+398697866+398265287+397962903+398253337+398795304
3385+399103997+399379598+399999032+400837325+401824365+402866476+403845494
3372+405015460+406242544+406983148+407404864+408159006+409242942+410363855
3358+411670744+413274795+414785836+415855064+416986924+418605223+420146348
3345+421131216+421467611+421395786+421649785+422465097+423431204+424002169
3331+423886221+423796597+424425891+425150534+425256329+425085185+425384770
3318+425977253+426038005+425934843+426196906+426216503+426331615+427012093
3304+427127122+426573204+426382256+426692620+427292123+427656638+427663114
3291+428191712+429240925+430221907+431187262+432148857+432985980+433542864
3277+433838646+434157826+434528525+435321233+436759112+437869287+438076281
3264+437804942+437497084+437728771+438624432+439460552+439710833+439608631
3250+439902784+440581800+440852470+441105299+441817366+442356534+442995313
3237+444019457+444317202+443554244+442880660+443282571+444599906+445646989
3223+445496863+444767038+444645868+445045439+445462517+446276868+447259104
3210+447365400+446901232+446789922+446787666+446573319+446474878+446872652
3196+447930223+449225831+449999861+450031658+449741308+449628870+450161645
3183+451573828+453137432+453784986+453605277+453456404+453775877+454375756
3169+454609783+454505283+455003797+455910238+456060322+455567074+455421669
3156+455810502+456189724+456183833+456013191+456230797+456820564+457258534
3142+457529998+458056715+459047934+460101577+460435089+460001757+459469775
3129+459090386+458850300+458818127+458896136+459011666+459001597+458817292
3115+458796024+458871986+458863546+459049522+459520584+460006270+460144404
3102+459914932+460017384+460686330+460957251+460540382+460332679+460511385
3088+460498014+460307483+460536538+461259008+461886924+462317247+462916332
3075+463275248+462936889+462786429+463330694+463759054+463663413+463099592
3061+462360618+462047370+462054056+461931255+461797341+461846937+462080713
3047+462727765+463800795+464558865+464487249+464004028+463746185+463845043
3034+463787884+463214705+462742724+463014146+463733274+464237386+464391356
3020+464761094+465441573+465717174+465481601+465257017+465178131+465279120
3007+465739277+466149544+465997914+465869640+466318348+466853421+467253995
2993+467793372+468262303+468562681+469352631+470911890+472495467+473634389
2980+474473476+474768798+474575552+474510788+474497250+474348753+474450662
2966+474742224+474549145+473641576+472772405+472746583+473147533+473083313
2953+472874857+473044580+473404958+474183501+475189010+475646033+475639682
2939+475428803+474991084+474873882+475884488+477271309+477421477+476492640
2926+475317702+474632878+475029399+475175138+474021425+472698073+471983124
2912+472053068+473163369+474407918+474667432+474269574+474066885+474342152
2899+474874300+475541951+476237973+476381038+476011718+476162471+477029761
2885+477514319+477229066+477004900+477173913+477373844+477177590+476429088
2872+475961453+476487961+477122979+476999427+476687976+476741208+476909510
2858+476994413+477157241+477274067+476808687+475931954+475500502+475762231
2845+476159588+476378280+476741500+477290780+477955840+478666110+478823548
2831+478482766+478326330+478589563+479359750+480368518+481003661+481253816
2818+481568610+481933543+482131260+482423282+483019275+483654586+484239339
2804+484937742+485462036+485601257+485723681+485902345+486004588+486212125
2791+486622601+487030905+487211157+487388442+487945828+488573827+488836934
2777+489052075+489524934+490064812+490358087+490308491+490387085+490765639
2764+490916100+490771990+490720095+490967200+491553750+492312196+492858049
2750+492974290+492956741+493052884+493133650+493287078+493618375+493839366
2737+493910146+494167906+494716475+495411619+496112362+496662478+496941254
2723+497085614+497367692+498011735+499035210+499768043+499655270+499355143
2710+499600033+500151611+500447769+500426836+500613731+501159376+501556565
2696+501736316+502045469+502575319+503339155+504137879+504590180+504651392
2683+504621852+504805739+505074446+505155129+505249684+505596316+505989619
2669+506062907+505925608+506128172+506694582+507189210+507520340+507839772
2656+508191376+508476127+508641003+508792634+508990309+509163249+509360925
2642+509720593+510174565+510738762+511523990+512144677+512178479+511880817
2629+511597152+511461817+511817349+512713386+513557069+513897893+513893130
2615+514021988+514611338+515488406+516075499+516110095+515997365+516252701
2602+516953277+517713561+518296852+518701019+518962330+519437904+520114622
2588+520580002+520899809+521248070+521653700+522045917+522378845+522830101
2575+523310522+523671528+524080040+524540322+524933125+525250634+525413797
2561+525379534+525454368+525952213+526614348+527101705+527492795+527759287
2548+527831237+527916892+528120083+528471896+528973251+529521904+530071936
2534+530490727+530796913+531067959+531146887+531214910+531484118+531786878
2521+532250544+533106595+533921824+534160739+534205906+534582706+534966399
2507+535093670+535309522+535788564+536327314+536790605+537199660+537479272
2494+537495986+537400720+537506515+537889122+538325588+538457747+538215239
2480+537949164+537936964+538077396+538139904+538184152+538447552+538798739
2467+538843739+538615436+538466313+538438193+538400546+538445964+538704727
2453+538949325+538837430+538451020+538106477+537868774+537630819+537469370
2440+537381291+537102139+536676035+536384808+536086352+535457684+534803487
2426+534684991+534911371+534939240+534675589+534240461+533719761+533252460
2413+532871942+532481688+532008537+531519801+531205049+530948836+530528749
2399+530148775+529882449+529411429+528720881+528119373+527645804+527043042
2386+526211727+525375941+524397257+522465628+519282806+515623824+512293759
2372+509212971+505803016+502181431+498891310+495880843+493226116+491592818
2359+491040237+491372579+493117021+496593076+500883274+503701748+503233318
2345+500052126+497001923+495773126+495654337+495792137+495902277+495997208
2332+496291570+496869220+497752973+498956909+500126667+501255728+502660180
2318+504163450+505550521+506626476+507241355+507755245+508501866+509406593
2305+510284121+510984237+511386775+511516177+511642905+511987573+512553900
2291+513165938+513645565+513981459+514122059+514029760+513821263+513706610
2278+513826402+514143577+514503788+514698497+514843986+515244309+515809759
2264+516113856+516024106+516045499+516463914+517002163+517420871+517713937
2251+518098299+518701604+519421233+519936752+520007031+520114581+520791549
2237+521755316+522507077+522957957+523207569+523419952+523925945+524777149
2224+525622252+526321282+526917568+527371457+527807087+528346213+528903849
2210+529469341+530073690+530610811+531084171+531735443+532634697+533549077
2197+534330963+535117403+536080920+536975118+537545624+538156032+538956929
2183+539529148+539974847+540662220+541358743+541973956+542742262+543624386
2170+544616482+545682701+546546983+547211542+547935057+548756470+549471837
2156+550019153+550612806+551304858+551995782+552669826+553085108+553110762
2143+553080177+553166877+553260220+553191278+552843644+552468098+552147413
2129+551544191+550805259+550205672+549509859+548532722+547177949+545623077
2116+544468152+543700180+542700814+541406919+540178790+538969589+537564593
2102+536086686+534672623+533245941+531844497+530489557+528949894+527306317
2089+525889663+524686855+523615330+522504528+521137680+519709954+518389485
2075+517134239+515935651+514757955+513634576+512425919+510903011+509336398
2062+508015804+506734694+505439796+504382811+503492331+502453396+501198527
2048+499938392+498854039+497764296+496380985+494920251+493799087+492947966
2035+492068643+491045335+489941928+488901782+488035703+487284987+486405664
2021+485368275+484240509+483024247+482042095+481305878+480392334+479342828
2008+478518783+477961230+477320111+476355467+475259623+474412180+473826591
1994+472989844+471747217+470643476+469880643+469208772+468611985+468088653
1981+467488523+466846569+466342457+465898554+465196515+464208639+463216877
1967+462411844+461877481+461446698+460833741+460171939+459624456+458981624
1954+458301355+457800376+457290080+456621009+455799471+454676427+453681489
1940+453546614+453688801+453364105+452777931+452284766+451941226+451586990
1927+451010634+450014778+448866121+448202188+447685040+447150927+447211262
1913+447330553+446770117+445971894+445615694+445547671+445386138+445185913
1900+445018071+444605213+443869038+443263184+442727609+441881753+441578325
1886+442233483+442731620+442581201+442185892+441901308+441850249+441941921
1873+441662392+440105682+437680553+437115689+438570198+439733855+439912477
1859+439660233+439479104+439417808+439295008+439083168+438669641+437832978
1846+436298663+434882637+435475705+436871174+437328740+437192987+437017123
1832+435947602+433680414+432615322+433321288+433850011+434193885+434663109
1819+434788458+434516325+434090305+433415551+432450196+431916376+431979176
1805+431920638+431165577+429622112+428481728+428598553+428586352+426941731
1792+425039182+425842879+427698254+428270055+427659229+426678038+425807656
1778+425559966+425245131+423347638+420163604+419572207+421743421+423525550
1765+424008102+423249532+422332102+422362603+422589276+422908164+422649068
1751+420332199+417569672+417570591+418944626+419494867+418900336+418084272
1738+418052517+417317052+414630362+414284022+416751393+419121744+420512952
1724+420645154+419974327+418390207+414482533+410885767+412689874+416086542
1711+417995107+418059996+416203200+414159467+413712179+411973003+407887542
1697+406751169+409490966+413365464+415516621+415347860+414015065+410902229
1684+406719665+408090900+411717834+413524950+412760279+411016631+410007487
1670+408862089+409313555+411666650+412337351+411061966+411180337+412344078
1657+411843768+407659741+401091365+401652052+403403555+402612226+404425735
1643+408788844+411371494+411340951+408773927+406577017+410665988+416369329
1630+419821861+421821931+423946055+426499415+430452424+434923584+437733534
1616+440568178+445957562+451196820+454829352+458077231+462160268+466257888
1603+469644193+472952364+476524019+479758276+482634286+485835660+489357258
1589+493028524+496825682+500434775+503748879+506848845+509135798+509781638
1576+511340103+516610530+521421428+524448024+528554543+533851169+538369878
1562+541154549+540592860+540074249+547825627+556436608+563642133+569913431
1549+575826231+580622839+582971964+582383784+581732220+590202308+601864118
1535+609904050+616970939+624692484+630756246+634684686+638066353+641309510
1522+645251948+651814891+659542704+667927179+675896205+681362553+683481579
1508+682443104+686480472+698914642+708168078+713210788+715980084+720245044
1495+727445012+733553022+736572598+739203257+745685225+753585978+760296750
1481+766033476+770915489+774062168+774594651+774187434+778796185+787952936
1468+795208475+798967109+803288978+809857521+814733266+816483055+821004564
1454+831037337+840966155+848886963+855017285+861654770+869924132+878237033
1441+885031371+889833996+893846253+900526022+909648426+918162470+925674306
1427+932296331+936938342+940190064+942483535+943311006+946605597+954644485
1414+962986299+968899015+972416060+973769412+973335871+973436986+975016134
1400+975026078+973953759+975404465+977873341+980809685+984146478+984170127
1387+979473547+976071406+977551779+981243978+985223895+988141604+988084611
1373+987647645+990323346+993216654+993574066+992467484+991053128+991636002
1360+994529643+995767424+994804576+993858942+993438772+992404642+991268227
1346+991438702+991322378+988718376+984486090+982750089+985858997+989829220
1333+990803099+990356772+991347197+993190832+994617304+995441015+995695975
1319+996497373+998901067+1002275047+1006447166+1011464722+1015639432+1018456109
1306+1021140585+1024011998+1026972075+1029850926+1032404955+1035028344
1294+1037586552+1038984946+1039754422+1041510479+1043942084+1046014272
1283+1047114837+1047110157+1047402973+1049348056+1051703031+1052173257
1271+1051105617+1050056362+1049069865+1048056459+1047149767+1045940901
1260+1044647883+1044400528+1045064376+1045520229+1045517722+1045768003
1248+1046556114+1046443718+1045277386+1044819110+1044894988+1045097636
1236+1046271321+1048170610+1049901180+1050563524+1049857224+1049481845
1225+1050573636+1051210409+1049810009+1048741116+1050231349+1052039969
1213+1052277965+1051561136+1050654778+1051351051+1053486080+1054795727
1202+1055476038+1056291058+1056747914+1056892483+1057382849+1058041015
1190+1057845136+1057517557+1058777065+1060254262+1059711082+1057969566
1178+1056863987+1056810254+1056652398+1056180667+1056218105+1055782642
1167+1053938507+1051431943+1049770733+1048995491+1048438105+1050142602
1155+1053633240+1054056585+1050247979+1045713183+1043245394+1042703970
1144+1042743079+1042434386+1041312762+1039588042+1037791957+1036531029
1132+1035497233+1032992424+1028817882+1024802951+1021352843+1017824099
1121+1014722294+1011468399+1006787279+1002116689+998537722+994503654+989888134
1107+986795939+985672477+984113970+981005146+977900834+975474745+973457293
1094+971672322+969985374+968707315+966612063+962158410+957650272+955465103
1080+954045316+952207197+950303479+947963212+945285505+942839192+940628452
1067+938096317+935459056+933766927+932333435+929849601+926392891+922524869
1053+919293787+917382381+915513844+912246996+908607026+906423362+905697340
1040+905116054+903365178+900601565+898484001+897656614+897182544+896127773
1026+894919074+894772499+894761802+893136275+891068183+890201101+889966113
1013+889552963+889212097+889295162+889025243+887389103+885522739+885243963
999+886187424+887578798+889314967+890249653+889746000+889124854+888899727
986+888039080+886654641+885344827+883781306+882175584+880824321+879555705
972+877971627+875519715+872765796+870559986+869131675+868416016+867720328
959+866691129+865846610+865484686+865447332+865841931+866800684+868581477
945+871262610+873546136+875272193+877985582+881397584+884223621+886812080
932+890229096+894247787+897923106+900928058+903255289+905163938+907255011
918+909900545+912590286+914375842+914949021+914724396+914397736+914393474
905+913894250+911835016+909952022+910467624+912006577+912127330+910567486
891+908840343+908006688+907388800+906680327+906643307+906885064+906890162
878+906890830+905721741+903982397+904619672+906377066+906904618+908455019
864+912192762+916059698+919407437+922728018+926194505+929476813+931926384
851+934775987+939364265+943664240+945440185+946477741+949014723+951971792
837+954969724+960033493+965920638+967563797+965658240+966620921+970343789
824+972597983+974977610+979403937+982802067+984319125+986571815+989424927
810+992733057+997468077+1001217769+1002271704+1002235854+1002247721+1003422325
797+1007052435+1011508344+1012579744+1009941146+1009198745+1013670198
785+1020896739+1028180524+1033593515+1034633578+1033349920+1034909430
773+1039356815+1043363306+1045356356+1044783845+1043037315+1043005894
762+1043882585+1042438731+1039526621+1038466753+1039746985+1040750780
750+1039746400+1038673412+1038609233+1037001756+1033463152+1033209612
739+1038305638+1040681922+1036050942+1032397852+1033878308+1035168819
727+1034297475+1034027223+1031782638+1027290629+1027455170+1031703418
716+1032942619+1029178720+1023571271+1020757435+1021471172+1022702602
704+1022854358+1021956942+1022476723+1026764079+1030746085+1030074799
692+1028246541+1025519196+1019456562+1018950402+1026268616+1029522093
681+1027710130+1028277377+1031699741+1033230253+1029829198+1023833501
669+1018054491+1018848786+1026858174+1030827478+1027853697+1027860215
658+1037122008+1043660717+1038227169+1026039645+1015981133+1014080340
646+1015857957+1019165000+1026639482+1026925863+1016767156+1007299289+994099780
633+985178184+1002910734+1026350009+1017107102+998326300+1004956180+1030700792
619+1049218863+1039788183+1007927120+985327851+994378556+1028098880+1057819398
606+1066744085+1070036253+1073741823+1064342647
##END=
