##TITLE=Sample description
##JCAMP-DX=4.24
##DATA TYPE=INFRARED SPECTRUM
##DATE=24/8/2023
##SAMPLING PROCEDURE=Instrument type and / or accessory
##ORIGIN=Default
##XUNITS=1/CM
##YUNITS=ABSORBANCE
##RESOLUTION=4
##FIRSTX=4397.6552
##LASTX=599.8556
##DELTAX=-1.9287962
##MAXY=1.5471284
##MINY=0.59334034
##XFACTOR=1
##YFACTOR=1.4408756e-009
##NPOINTS=1970
##FIRSTY=0.84292245
##XYDATA=(X++(Y..Y))
4398+585007078+585577197+586496743+586067768+585060152+585094073+585892620
4384+585889642+583793082+580966726+580321360+581758944+582615819+582150607
4371+581561210+581804696+582932070+583589143+583099316+582282071+581921765
4357+582324927+582299197+581099472+579646375+578587753+578940696+580280406
4344+580274119+579348119+578803482+577890885+577199519+577819196+578750863
4330+579134748+578770099+577954259+578275019+579931848+581242519+581352762
4317+580432264+579744828+580095827+579766050+578484170+578720376+580420061
4303+581553268+581601129+580616141+579352173+578644757+577912851+577082327
4290+576457727+575763176+575741044+577261156+579240069+580024386+579437099
4276+578394652+577548077+576304049+574484482+573508470+573908943+574662897
4263+574883714+574755683+575043597+576324401+578154848+578713922+577887741
4249+577628329+578123781+577923896+576921823+576267025+575547985+574387848
4236+574099686+574433021+574482041+574607672+574343503+572888213+571592642
4222+572245743+573492626+573401329+572845440+572508134+572405875+573159498
4209+573716214+573369807+573678488+574410724+574270614+574007562+574065145
4195+574185564+574658595+574661077+573677495+573070393+573366581+573924083
4182+574044089+573358307+572554961+572220426+572115437+571824834+571129704
4168+570373185+570252062+570842617+571152414+570742054+570395730+570387663
4155+570399701+570636568+571177028+571282513+570897552+571133799+572080978
4141+572533202+572093513+571234280+570223561+569292969+568469602+567815755
4128+567811660+568595523+569696049+570054949+569200556+568303720+568090432
4114+568011214+567924013+567893236+567664228+567608424+568133412+568513161
4101+568213706+568034587+568297184+567998018+566771488+565347058+564446003
4087+563999446+563986912+565247860+566663934+566226106+565136748+564858183
4074+564738922+564625453+565274128+566369111+566654668+565740871+564262334
4060+563430320+563860412+564734331+565552486+566077764+565428468+564158585
4047+564087889+565058358+565626119+565835809+565815580+565277851+564920565
4033+564651059+563888707+563517439+563604144+563298607+563170659+563347420
4020+563249877+563516901+564156393+564520339+564659167+563872409+562222529
4006+561508700+561601404+561227571+561571413+563480043+564664586+564100961
3993+563591196+563497127+562967672+562245115+561719134+561306251+560937092
3979+560675446+560528510+560634658+561216443+561552301+560911527+560222602
3966+560582329+561599791+562007834+561546965+561414136+561729972+561404787
3952+560556474+559702909+559111527+559651986+560284818+559359811+558512367
3939+559083025+560306287+561477137+561453476+560002984+559162739+559291018
3925+558974312+558833334+559660797+559656081+558406923+558069079+558950113
3912+560078769+561954347+564379650+564313670+560155463+555770689+553975074
3898+555043500+558025147+559776500+558029822+556893471+559805168+561617496
3885+559901718+558263297+555936612+554775690+556853221+558034993+556751500
3871+554660442+553754588+555230106+555344403+553450375+554435943+558207948
3858+561399533+560270091+551513450+547115398+551555065+556454775+559187311
3844+559356626+557853681+555122635+551054111+549300111+550275089+550854392
3831+551759584+553850973+555386018+556750507+556811565+552820232+551310587
3817+552463815+552584730+554847089+557965703+558332545+555087928+553435773
3804+554656098+552571989+550546042+552420586+554180378+555768704+557530605
3790+558161989+558003678+557551372+557157186+557260934+556064395+554126187
3777+555093843+557505578+558091748+556275490+555189442+556289803+556828732
3763+556775782+556260971+554549247+554223813+555676911+555724731+551778116
3750+548877672+551724835+553252848+550721314+551689673+555395822+556479802
3736+553177643+549705921+549764041+552118359+554306630+554449760+553357920
3723+552805009+552989754+554171070+556091904+557217251+554899832+550132166
3709+549844128+552868673+554808825+554306010+553029963+553363629+554330788
3696+555121063+555612502+554317716+550147761+547487038+549779099+553654645
3682+555533698+554865084+553270098+549265239+545014825+544828094+543047909
3669+540883010+543188680+545969243+546825043+547099720+547397975+545638225
3655+543226655+543419839+542147805+534795407+529903309+531733176+534301527
3642+534743947+533371556+531186181+528541385+526142515+524305160+519428202
3628+511599008+510162830+512018759+511767662+507961239+503028809+501360189
3615+500844178+499111606+497296589+494750742+491647145+490433810+489927437
3601+487820122+485022433+483123110+481370640+479871626+479653622+478399831
3588+473846776+470724109+471230895+471747155+470523437+468480406+467005550
3574+466291225+466096139+465730165+462658048+456765407+454310774+455531720
3561+456284889+455522123+454722252+454654699+454496264+453456381+451893786
3547+450017091+448119009+446867659+446039203+445078372+444563395+445160568
3534+445611758+444771512+443300958+442365486+442092588+441435639+440230082
3520+439301394+438744429+438168601+437339069+436230104+434863257+433984457
3507+434004189+433389352+431788161+431042852+431385578+431408081+430473436
3493+429516618+429245458+428887344+427750911+426320566+425181733+424495414
3480+424238401+424192980+424096719+423563623+422839081+422628647+422732933
3466+422576070+421956269+421237559+420924825+420706945+420041558+419105589
3453+418340176+417605168+416605618+415721813+415422399+415210228+414611855
3439+413959994+413572882+413656733+413905721+413970129+414281705+414779267
3426+415153679+415391870+414932118+413455772+412023979+411791497+412454899
3412+413065185+413346026+413459702+413448368+413467975+413631251+413605810
3399+413376348+413506405+414191608+414680648+414480928+414522130+415306489
3385+416016801+416351708+416893367+417619026+417857299+417968163+418844398
3372+420127229+421322237+422548892+423419790+423780345+424467243+426051060
3358+427880845+428948691+429561750+430617724+431971872+433065490+433744404
3345+434225709+434860981+435769979+436726549+437616269+438644528+439665961
3331+440294863+440501739+440534584+440682057+440882191+440856088+440718047
3318+440635230+440411559+440510674+441546130+442490704+442456783+442115464
3304+441753710+441163693+440887031+441510182+442268604+442028552+441425670
3291+441914007+443730223+445927843+447270821+447489528+447351859+447455607
3277+448104448+449125716+450020483+450885590+451764597+452323837+452661226
3264+452781024+452496213+452309482+452652869+453507428+454656478+455451799
3250+455757625+455583760+454868815+454698548+455814588+457398156+458213540
3237+457929928+457675067+458531735+460036500+460775562+460300917+459665272
3223+459698531+460407065+461484633+462156473+461830874+460832979+459970809
3210+459735348+459726826+459493724+459472089+460134001+461345971+462815615
3196+464108373+464703479+464848594+465036607+465212830+465321087+465358524
3183+465515553+465950072+466563709+467544810+468704201+469377159+469547715
3169+469701104+470015244+470378198+470616141+470865294+471315284+471425692
3156+471153829+471322771+471986876+472435418+472444436+472623969+472916433
3142+472860464+473166538+474154505+474888479+474843968+474565775+474598042
3129+474712670+474488833+473831719+473293990+473515799+474092579+474359106
3115+474343966+474424342+474865686+475346701+475473408+475550226+475831149
3102+475927286+475674782+475707917+476312082+476814607+476708915+476262276
3088+475856052+475604624+475786928+476340211+476727323+477067525+477406445
3075+477306750+477080225+477477678+478373563+478664290+478005190+477328261
3061+477078860+477197790+477729727+478237755+478257115+477925062+477729065
3047+477930150+478232253+478577171+479113907+479582471+479726552+479550577
3034+479397395+479463375+479366742+478955596+478766011+479193745+479717534
3020+479914441+480164421+480544170+480698551+480507891+480169840+480107831
3007+480555173+481257584+481815087+482105276+482328037+482614048+482842063
2993+483332262+484589321+485968537+486579775+486862766+487545114+488577013
2980+489654788+490537310+491032680+490994788+490444648+489877176+489680808
2966+489541773+489333821+489332870+489457715+489653878+490020885+490304456
2953+490275168+490208691+490472116+490801066+490744393+490556918+490703771
2939+491058410+491219121+491284232+491695668+492224793+492156537+491585301
2926+491145363+490842847+490268467+489429255+488937609+489142168+489487003
2912+489501358+489471201+489748194+490269253+490718829+490906924+490927484
2899+491029701+491347855+491609956+491584474+491545796+491695296+491819645
2885+491765413+491810006+492180365+492602432+492809018+492883686+493097718
2872+493398291+493289206+492791189+492439322+492418969+492789948+493490953
2858+493891178+493685502+493179584+492425050+491632128+491350461+491781215
2845+492544932+493181321+493779735+494320112+494501051+494529387+494766048
2831+495257032+495831040+496194739+496327196+496531259+496717162+496764899
2818+497196853+497907124+498052405+497792041+497925325+498508269+499086455
2804+499488748+499775504+499927445+500175067+500777246+501326517+501491488
2791+501628620+501983548+502500801+503096319+503502253+503623583+503885766
2777+504514089+505176209+505512894+505383912+505113372+505351356+506114246
2764+506692432+506844000+507083267+507566847+508006288+508417848+508875160
2750+509127498+509024246+508930964+509232363+509682353+509794623+509678961
2737+509886830+510529797+511132555+511337238+511412485+511633963+511973131
2723+512619986+513279334+513449311+513659497+514148206+514414402+514550748
2710+514773219+515043925+515554972+516126250+516268552+516355009+516918799
2696+517593784+518152528+518719586+519101238+519279488+519510770+519745362
2683+519755870+519823215+520305099+520801130+520866862+520697837+520715624
2669+520940909+521154983+521418035+521745248+522059596+522421557+522930205
2656+523483612+523761308+523890415+524034041+524016294+524173820+524719408
2642+525095475+525042402+525032143+525454954+526037608+526402382+526632258
2629+526861638+527109219+527371320+527582829+527915502+528518260+529185882
2615+529739413+530047431+530165410+530521580+531260063+532108292+532917513
2602+533545463+533799622+533786095+533883596+534417272+535177265+535674124
2588+535916410+536190425+536508123+536765508+537182032+537985131+538793069
2575+539071303+538916259+538923333+539318760+539685023+539840935+540041193
2561+540233549+540407621+540822614+541266730+541533133+541859684+542377433
2548+542956364+543239893+543261362+543476967+543841906+544169284+544463072
2534+544577038+544682028+545132762+545776018+546312382+546562528+546489392
2521+546574028+547242560+548093106+548656896+549126701+549531270+549540825
2507+549457181+549805822+550311699+550438571+550446183+550981099+551740224
2494+551903913+551690046+551796442+552175156+552524004+552716070+552761657
2480+552874754+553017387+553044359+553038484+552925222+552823252+553104051
2467+553434118+553308859+553054576+552939948+552826768+552861930+552958894
2453+552596396+551897666+551599163+551734681+551803763+551851584+551925093
2440+551778861+551407551+550844877+550369736+550328245+550422148+550383553
2426+550259163+549929964+549468185+549077764+548775743+548485513+548048264
2413+547580941+547398761+547354457+547038372+546532041+546044697+545301043
2399+544515815+544292599+544238863+543883852+543618359+543520774+543116536
2386+542332302+541266606+539656769+537414225+534824405+532124384+529285948
2372+525970883+522143612+518526816+515522913+512814866+510584691+509466418
2359+509444534+510248501+512096363+515220024+518947683+521299519+520466223
2345+516964882+513854790+512665242+512518968+512927922+513578500+514036184
2332+514223370+514379778+514877588+515732519+516505378+517153557+518150956
2318+519723148+521512145+522990725+523988082+524651939+525111278+525410899
2305+525748370+526195754+526610913+527162831+527884808+528383776+528673759
2291+529048709+529376087+529602116+529916050+530111468+529965690+529583956
2278+529284542+529451789+529905501+530298322+530751663+531275327+531650112
2264+531871797+532068663+532178864+532220769+532543266+533103540+533386407
2251+533414702+533672046+534149172+534522013+534916199+535467744+535862220
2237+536173465+536843858+537725098+538349201+538626153+538885276+539368979
2224+539885363+540397445+541137624+541919997+542474108+543074756+543814645
2210+544248336+544421705+544846420+545630489+546509744+547172153+547649942
2197+548228996+548856368+549420778+550121080+550977003+551683262+552238572
2183+552927373+553603847+553963946+554301542+555095953+556276276+557468845
2170+558371223+558821544+559197818+560018001+561004727+561731751+562329007
2156+562874927+563379521+564040441+564758365+565213691+565400794+565456598
2143+565468139+565595467+565799364+565718947+565137452+564374769+563950013
2129+563734036+563215584+562445290+561636524+560761199+559900974+559059445
2116+558120374+557089054+555990472+554744086+553250283+551748580+550549104
2102+549483201+548335268+547143279+545857222+544352126+542743324+541266110
2089+539919863+538639225+537464734+536347702+535192406+534016591+532880489
2075+531782279+530651596+529420557+528197791+527114845+526047660+524921196
2062+523808425+522627729+521319334+519947895+518634039+517560980+516722306
2048+515984154+515188916+514115443+512827276+511628710+510670775+509818823
2035+508792757+507552658+506346852+505262624+504173887+503205032+502533067
2021+501938500+501092545+499962689+498978239+498360588+497704591+496826784
2008+495836335+494843073+494143268+493702131+493081089+492178875+491288617
1994+490504093+489573708+488515748+487644560+487072166+486684309+486242055
1981+485644220+484878103+484040257+483441222+483087121+482573633+481620621
1967+480487869+479804074+479616268+479283719+478618083+478054168+477587508
1954+476963777+476374132+475846952+475144871+474363863+473473522+472501564
1940+472109529+472163679+472058855+471819630+471482903+470996924+470413277
1927+469709791+468715329+467659065+467172176+466903084+466500832+466387817
1913+466287337+465716886+464950481+464635802+464802759+464884873+464672329
1900+464380403+463984893+463259606+462553679+462201026+461739825+461265181
1886+461246111+461409386+461540064+461493899+461214837+460949675+460798768
1873+460469032+459141070+456996855+456518405+457889182+458925176+459046381
1859+458904162+458946356+459085349+459010516+458703491+458305375+457652563
1846+456288570+454845567+455129344+456173611+456444193+456286088+456167572
1832+455332001+453479671+452527776+452969989+453300717+453650434+454120362
1819+454133062+453768743+453313831+452612744+451676071+451290573+451687075
1805+452106784+451660559+450016719+448450524+448059027+447890829+446713939
1792+445313668+446038210+447745093+448316082+447629100+446611556+445843951
1778+445522116+444981863+443057017+440099941+439632826+441634325+443147776
1765+443562687+442999517+442369747+442702006+443046386+443233489+443084816
1751+441101642+438242317+437891318+439217832+439915197+439344457+438327491
1738+438241696+437885816+435530630+434991618+437300639+439457843+440382767
1724+440135476+439579504+438599314+435489180+432214654+433576082+436511854
1711+438207651+438186471+436317305+434375954+434085516+432593038+429166819
1697+428554919+430603494+433367924+435191752+435373808+434674789+432317865
1684+428402606+429094551+432081577+433762730+433457773+432078226+430800194
1670+429230690+429436491+431769711+432634818+431459252+431331387+432424261
1657+432362955+428922465+422432775+422357032+424045714+423424382+424899652
1643+428701524+431057993+431337013+429700619+428492000+432380949+437557900
1630+440868457+442877485+444900163+447168769+450745853+455129551+458055063
1616+460646828+465642715+471036346+475156702+478471396+481914409+485316593
1603+488523319+491973861+495468459+498373288+500991858+504128218+507685942
1589+511169288+514570769+518181609+522011817+525677302+528366857+529470197
1576+531379406+536402927+540887354+543603219+547132896+551956780+556342174
1562+559402667+559504802+558812898+565774875+574581735+582017984+587927172
1549+593254946+597683776+600021464+599867869+599664178+607963962+619569669
1535+627575582+633965868+640873902+646926302+651645775+656124741+659852525
1522+663383402+669403949+676709354+684352148+691839444+697517266+700526216
1508+700895623+704546092+714913727+723377573+728607432+731623083+735377714
1495+741879111+747851507+750915062+753278687+759531799+767344694+773703623
1481+778845867+783259308+786673241+788715031+789939741+793807221+801075892
1468+807817549+812542234+817343698+822950741+826556616+826852307+830882276
1454+841612286+851259144+858213675+863906927+870594971+878574327+886228538
1441+892403550+896862494+901247144+907738364+914064200+918945418+925679463
1427+934080100+939797014+943988728+948523291+951034266+953060667+958165350
1414+963730282+967206927+969727250+973174607+976573565+978554215+979272924
1400+978494894+977179011+977232540+978305020+980397775+982058906+980308422
1387+976310967+976172471+981109948+987310855+991355800+992324200+991228968
1373+990279597+991516055+993569180+993903673+992569672+990996321+990543849
1360+991662908+993293262+994589951+995324049+994825577+992956618+991666134
1346+991140278+990556011+990348680+989164592+987219765+987111715+987921763
1333+988289680+989079872+990771367+992879345+995244376+996697515+996308997
1319+996446666+999500871+1003512308+1006129761+1008765250+1012637115+1016606771
1306+1019854408+1022057943+1023331715+1025344797+1028965729+1032189456
1294+1034378761+1037595539+1041622116+1044299634+1046165946+1049099525
1283+1051958809+1052865573+1052857548+1053781768+1054987615+1054251035
1271+1052354029+1051564665+1050539261+1047778926+1045394535+1045254963
1260+1046186877+1046457914+1046336047+1047187379+1048565974+1048709683
1248+1048288071+1048346481+1047614948+1046467594+1046785788+1047675592
1236+1047454030+1046650601+1046603774+1047324882+1047649034+1047821617
1225+1048404560+1048491927+1048400258+1048870848+1049470421+1050415739
1213+1052177723+1053969492+1054577917+1054285039+1054460849+1055357850
1202+1055880149+1055869973+1055827282+1055607458+1056356779+1058278771
1190+1058755235+1056759031+1054200981+1053652869+1055395990+1057512572
1178+1059049023+1059150455+1057618389+1056502308+1056420567+1056156315
1167+1054474169+1050709610+1047908984+1049021259+1051172837+1051003729
1155+1049079503+1047440214+1047549919+1048249103+1047148163+1044825325
1144+1042710729+1040468474+1038641378+1037720136+1036433624+1033889969
1132+1030074033+1025891668+1022759858+1020979010+1020262452+1019874430
1121+1018033435+1013958458+1009340499+1006179650+1004030636+1001634000
1109+999955990+999111939+996284425+990001942+982736083+978193164+976924605
1096+976716198+975956701+974219123+971418331+967882284+965462317+965475802
1082+966020853+964504837+961200610+958251642+955543678+952131317+949656994
1069+948729878+946984688+942705856+937510414+934521485+934262694+934212143
1055+931784234+927468170+924191494+922970589+922034372+920103197+918324169
1042+917763399+917430560+916488717+914592952+911603859+909380798+909232208
1028+909066575+907596724+906315837+905310124+903798161+902389203+901469864
1015+901175248+901283712+901029885+900393743+899190792+897441301+896004709
1001+894903190+894624707+895997511+897524614+897501945+896615037+896447253
988+897078843+897002149+895343086+893044903+891831031+891919970+891620225
974+889918719+887672576+885646340+883484254+881403827+880329113+880333995
961+880094976+878521294+877074857+877152875+877612545+877477110+877388750
947+878215096+879847023+881923727+884456874+887330885+890470720+893244954
934+895206740+897301067+900102685+903403769+907069709+910644972+913299573
920+914667578+915689839+917432050+919583049+920914568+921007313+921038752
907+921202979+920950640+921253447+921774670+921487253+921509922+921742900
893+920188413+917157290+915270130+915198151+915355676+915070327+914388269
880+913608915+914131628+916177638+917667758+917136441+915195338+914365930
866+916731955+920357521+923467572+927671861+932969645+937963713+941951157
853+943839641+944458077+946093727+948680816+951197748+954430658+958582660
839+961490675+963432688+967750075+973218704+975234102+974601023+975349268
826+978082549+981814758+986456793+991080130+994358213+995971442+996301468
812+996402238+997475710+1000500049+1005175012+1009233359+1010925764+1010773533
799+1010788839+1012880932+1015687432+1015024650+1012554215+1015115327
787+1022731646+1028885064+1030581026+1030187544+1029985839+1030952750
775+1033375447+1035469360+1036971312+1039586448+1042163610+1043114140
764+1042769139+1041203069+1039540613+1039587275+1039812394+1038537961
752+1037598683+1038876674+1041471375+1041968027+1041284479+1043688892
741+1045672355+1042731743+1038788479+1037866327+1038806433+1038004658
729+1034173333+1030825257+1029588137+1028026203+1027085353+1028954808
718+1030995110+1029645306+1025367548+1022472440+1022752246+1023263377
706+1023350992+1025063501+1027403961+1027729933+1027160392+1027690717
694+1028416872+1028986909+1027540886+1023222423+1020953777+1022510332
683+1025120257+1025416196+1023315582+1023813805+1026874712+1028716452
671+1028861898+1029159244+1032204514+1035156791+1037396978+1042288124
660+1046792655+1041736951+1030934135+1029093305+1032441547+1029028028
648+1029676000+1047313217+1068875000+1070866075+1052015482+1030125328
637+1010505310+986122548+976023467+1005654041+1046859421+1038208018+992048696
623+963924127+977576879+1028059793+1073741823+1073173937+1057048021+1052636069
609+1045253804+1028477930+1024586623+1045462956+1066162817+1065075279
##END=
