##TITLE=Sample description
##JCAMP-DX=4.24
##DATA TYPE=INFRARED SPECTRUM
##DATE=24/8/2023
##SAMPLING PROCEDURE=Instrument type and / or accessory
##ORIGIN=Default
##XUNITS=1/CM
##YUNITS=ABSORBANCE
##RESOLUTION=4
##FIRSTX=4397.6552
##LASTX=599.8556
##DELTAX=-1.9287962
##MAXY=1.4008231
##MINY=0.23682837
##XFACTOR=1
##YFACTOR=1.3046182e-009
##NPOINTS=1970
##FIRSTY=0.26123402
##XYDATA=(X++(Y..Y))
4398+200237906+200769000+201375363+201870752+201885715+201754523+201759389
4384+201439965+200731102+200282292+200075830+199765087+199568448+199520842
4371+199465446+199751289+200359755+200527884+200100798+199683147+199746766
4357+200235439+200504424+200248369+200018584+200088828+200125881+199906650
4344+199520728+199402489+199623136+199413431+198578310+198040295+198237094
4330+198600971+198713568+198549322+198074584+197566585+197540932+198019736
4317+198394487+198185650+197739010+197725395+198120591+198496758+198799255
4303+198932571+198600263+198064373+197732294+197353179+196928515+196989850
4290+197559390+198186061+198328240+197828329+197402430+197636122+198151156
4276+198425349+198282896+197620565+196892810+196828048+197259040+197608549
4263+197673562+197408758+196950056+196806826+197244695+197672626+197561194
4249+197138334+196706634+196484159+196617429+196763560+196636915+196609297
4236+197016897+197448460+197281107+196757164+196547459+196551548+196515226
4222+196882028+197755457+198341741+198202851+197857546+197946225+198331941
4209+198436657+198275243+198218294+198329634+198432728+198576437+198866575
4195+198784292+198136582+197692980+197874382+198306767+198569059+198571046
4182+198543588+198785777+199082791+199094647+198945729+198576095+197976036
4168+197636853+197632901+197583330+197465159+197477586+197722082+198122761
4155+198343683+198288195+198094092+197657732+197148568+197048056+197199327
4141+197148454+197186923+197447524+197308771+196789259+196390797+196149110
4128+196141023+196445028+196785742+197062722+197374470+197455177+196969131
4114+196216842+195755033+195718141+195972574+196199503+196170880+196157288
4101+196370077+196706177+196864621+196482788+195820138+195568172+195825141
4087+196068243+196186414+196437398+196445919+195883004+195349740+195345103
4074+195592021+195824592+196079437+196189452+195984681+195763440+195745759
4060+195674852+195592272+195683738+195602140+195332082+195284270+195368358
4047+195211033+194795003+194636605+195067506+195622380+195904340+196051293
4033+195917292+195434490+195193215+195195819+194972385+194755781+194734353
4020+194861776+195229377+195539366+195489178+195167881+194755370+194583082
4006+194837150+195179806+195211970+194906526+194543083+194532141+194934990
3993+195198515+195017501+194848435+194917948+194837082+194463701+194016490
3979+193794038+193863231+193833854+193694690+193686672+193556851+193241974
3966+193029025+192964788+192958803+193121222+193462004+193534670+193018494
3952+192224515+191490421+191224131+191712062+191800238+191014940+190945667
3939+191678961+192087018+191852756+190965346+190335922+190972040+191652531
3925+191059531+190368931+190432494+190013289+189159368+189367257+190501790
3912+191522836+192254257+192451490+191106167+188457073+186529143+186127699
3898+187437124+189711375+190776760+189425201+188515415+189763230+189827730
3885+188375132+188012214+187658456+188186009+189837096+189758981+188255340
3871+186784250+186064365+187007788+187287829+186975327+188353956+189988001
3858+190458159+188440340+182554680+181530791+186564757+190731507+192080622
3844+190947106+188791196+186265093+183801261+183981533+186085530+187789716
3831+189205741+190388931+190915387+191244120+189766074+185845305+185601449
3817+187427507+188138072+190283839+192868548+193312309+191075590+189411631
3804+188856266+186796289+186848910+189270971+190972816+192530461+193970186
3790+194671419+194642339+193794472+193130131+193507966+193399001+193070509
3777+194382126+195904294+195905985+194297285+193108224+193539010+194358392
3763+195254139+195186476+193555092+193169331+194703583+194798750+190828364
3750+188172326+190757754+192733495+192117583+193519411+196108220+196344378
3736+193500176+192180586+195360934+199654364+202465694+203280277+203695850
3723+205402093+208289629+212223134+216894445+221895733+227411598+237604577
3709+256968255+282183167+310014210+340403086+371692301+396057610+410526543
3696+417885279+420162249+417601286+409694529+400973074+396134045+391627255
3682+384860171+376478287+367600216+355555069+344162270+339523649+333619326
3669+327988396+328330321+329729704+329394770+328153191+326767811+324300073
3655+322372887+322422754+320135002+313541622+311977284+316409627+320746985
3642+323109094+323932313+324632107+325652947+326594656+327288328+325885998
3628+323363504+325010285+328219346+330052349+329647238+328199861+328875121
3615+331139390+333294237+334828078+335156136+335584822+337739098+340178738
3601+341621844+342541440+343366852+343928807+345141877+347405620+348215590
3588+345441632+343330896+344860511+346999231+347905349+348038574+348088761
3574+348419995+348920547+348491405+345257786+341078826+341288577+343850316
3561+345077503+345118942+345178038+344993576+344302165+343974083+344021096
3547+343092727+341549886+341401447+342483257+343156576+342657098+341482497
3534+340315869+339133935+337835521+337116607+337141895+336557370+335272799
3520+334197089+333016526+331675691+330493849+329330396+328148097+327128765
3507+326277402+325047428+323652226+323038918+322494803+321251215+319934914
3493+318673302+317130986+315642763+314725726+314379552+313858692+312665520
3480+311309014+310092724+308818387+307580441+306580206+305949971+305567613
3466+304894751+303579068+301861997+300540351+299995460+299629664+299129364
3453+298754042+298520053+297965934+296864958+295823102+294998124+294206841
3439+293733725+293476322+293146550+292682571+292242007+292253384+292837703
3426+293696901+294223745+294279644+294813981+296191982+297778844+299264416
3412+300644130+302050321+303668181+305356057+306992329+308800409+310752199
3399+312610809+314469328+316178266+317423774+318703410+320789109+323370700
3385+325610960+327563549+329573522+331666462+333822132+335918682+338001321
3372+339963253+341448780+342385509+343197397+344676025+346564926+347511432
3358+347408978+347417065+347867840+348199691+348087848+347461747+346507063
3345+345711028+345305575+345094636+344771786+344253622+343708068+343173137
3331+342286915+340752298+338782302+336833002+335434556+334601491+333643106
3318+332517117+331760282+331176967+330453576+329978266+330051595+330389271
3304+330727814+331364880+332777489+335115566+338262333+341732087+345029417
3291+348150051+351112332+353709685+355682400+357095306+358324869+358991791
3277+358456746+357518623+357388163+357851136+358245213+358276669+357631699
3264+356584978+355600825+354632343+353893509+353547335+353028554+351978703
3250+351057165+350683716+350068101+349046621+348518086+348477264+348370082
3237+348082845+347751246+347577930+347179467+346130370+345252555+345182470
3223+345111837+344455332+343620897+342998680+342431813+341619331+340774113
3210+340134330+339656211+339557549+339828886+340003801+339913065+339793250
3196+339720105+339562277+339508321+339788019+340017507+339753411+339255121
3183+338765557+338074718+337320464+336803808+336351891+335690222+334914107
3169+334332187+334062265+333816398+333113223+332204272+331808573+331844164
3156+331894557+331643687+330863141+330049219+329505744+328780388+328041348
3142+327768937+327600487+327119010+326678584+326625632+326465657+325726778
3129+324815428+324178933+323710295+323353864+323431784+323827871+324015806
3115+323890372+323540840+323093926+322701036+322548920+322637188+322339969
3102+321589484+321209730+321401458+321453244+320806082+319899095+319626113
3088+320194213+320657507+320212534+319567747+319621933+320131005+320314805
3075+320074923+320032343+320179273+319825858+318744414+317255644+315684910
3061+314418181+313626532+312735010+311550609+310635262+309995158+309475030
3047+309194669+308905764+308489712+308134104+307884559+307752751+307606505
3034+307412083+307301336+307042197+306526432+306215415+306422265+307032763
3020+308250401+310148371+311536149+311470017+310812369+310773398+311554767
3007+312794701+314376948+316505251+319215657+322559200+327095618+333262827
2993+340672459+348700013+357157761+366005793+374884847+383449160+391490786
2980+397863680+400796721+399785521+395618691+389500185+382755008+376254944
2966+370498626+365942881+362540813+360034561+358533660+358161696+358720431
2953+359451841+359804890+360362094+361477987+362759039+364173819+365603972
2939+366355941+365816647+363994861+361474834+358731144+355794631+352617596
2926+349464684+346721702+344377069+342251416+340247497+338045592+335429187
2912+332861006+330939987+329432804+327718110+325749690+323781476+322017096
2899+320672172+319672463+318771621+317969099+317239242+316478455+316014476
2885+316039742+315888516+314982580+313589297+312152793+310575708+308533755
2872+306219115+304066141+302233390+300666334+299160705+297675110+296362214
2858+295156637+293875538+292337745+290436692+288451071+286829761+285769150
2845+285034953+284228913+283343742+282521939+281801060+281284587+280953125
2831+280681993+280373740+280083008+279955951+279891897+279833943+279830059
2818+279788461+279641347+279351324+279059175+278992061+278981438+278726936
2804+278387753+278330941+278467660+278392253+277988285+277496551+277165340
2791+277073143+277178361+277321431+277320655+277193141+277111406+277118282
2777+277078260+276884363+276613002+276464175+276517287+276711184+276895762
2764+276954584+277060145+277273003+277311700+277159858+277101995+277208401
2750+277341808+277514735+277838156+278183256+278362716+278333933+278096701
2737+277934488+278137135+278474513+278720974+278960742+279218990+279435937
2723+279558470+279602559+279758992+280182241+280682838+280883885+280673746
2710+280362455+280270395+280358960+280441882+280459266+280381118+280118575
2696+279809180+279691718+279632575+279419215+279122498+278947310+278911628
2683+278781396+278547979+278396479+278180538+277736365+277328079+277119881
2669+276940992+276726010+276456683+276138767+275893722+275758419+275683469
2656+275521689+275218256+275008802+274921517+274690315+274390652+274354033
2642+274586582+274781119+274736437+274596999+274550375+274576508+274661464
2629+274784797+274850016+274891660+275039847+275269129+275445049+275561552
2615+275786859+276178949+276443091+276342670+276063748+275911746+275927691
2602+275882118+275713211+275564750+275353057+274942099+274488811+274207239
2588+274030635+273746527+273343816+273006917+272785150+272576861+272427897
2575+272334192+272048691+271530550+271055538+270736320+270506033+270389827
2561+270280931+270007834+269678336+269420499+269224729+269073138+268884746
2548+268625790+268429768+268354886+268315389+268278382+268251358+268339352
2534+268695988+269167894+269421893+269435576+269538510+269922079+270327760
2521+270526089+270646910+270737873+270745869+270835622+271069381+271271548
2507+271415281+271589807+271765658+271933057+272111626+272228791+272294878
2494+272389268+272468787+272453596+272355551+272208415+272041062+272012964
2480+272192790+272357630+272376339+272377572+272488387+272685643+272877187
2467+272982725+273036453+273235399+273553384+273718704+273723798+273732136
2453+273758589+273809873+273998037+274319014+274569312+274672360+274767459
2440+274957701+275239113+275534413+275779595+275953938+276063154+276240969
2426+276570239+276924042+277184004+277316794+277374406+277513524+277801241
2413+278181474+278644768+279144931+279573593+279863046+280009428+280238505
2399+280736338+281276455+281631012+281865959+282079754+282288545+282517119
2386+282621241+282253846+281275221+279843514+278199795+276433885+274408447
2372+272072563+269629656+267348986+265356832+263794093+262833401+262512835
2359+262929870+264136726+266091600+269025897+272808747+275735461+275842301
2345+273324216+271038268+270707126+271326990+271890727+272264747+272617408
2332+273141672+274075477+275220358+276094541+276800983+277798385+279103561
2318+280384819+281505097+282539324+283503123+284348888+285092565+285787677
2305+286433148+286968331+287416913+287924889+288508568+288947990+289092225
2291+289108581+289287539+289656259+289936529+289934998+289792682+289732717
2278+289714008+289634786+289598533+289588802+289498775+289439906+289473464
2264+289520933+289544668+289503321+289490231+289692718+289969058+290019406
2251+289882777+289819455+289911172+290034323+290131500+290198546+290215473
2237+290229956+290237540+290253348+290371176+290507005+290525759+290524389
2224+290641394+290831865+290978179+291013016+290984187+291014364+291086961
2210+291133768+291228386+291317934+291274416+291281726+291476697+291692525
2197+291851928+292017385+292175007+292229261+292182340+292146429+292181494
2183+292265171+292308597+292279585+292297266+292466790+292631721+292589643
2170+292504459+292512180+292512454+292599717+292820707+292938010+292847983
2156+292678711+292538656+292424529+292222727+291830821+291348224+290929339
2143+290581407+290302279+290027629+289571052+289002906+288550441+288105400
2129+287487774+286846026+286355137+285903586+285318215+284643663+284022589
2116+283503260+283026763+282491626+281947329+281553160+281229968+280791734
2102+280341827+280042300+279764201+279364299+278919714+278534524+278282855
2089+278213798+278210874+278124593+278026914+278008410+277970558+277855380
2075+277721973+277608188+277565494+277626098+277641380+277534837+277536779
2062+277708175+277836443+277877447+277925396+278020929+278104811+278083452
2048+278000506+277990843+278078815+278185746+278256721+278288406+278304259
2035+278291512+278258914+278249366+278205346+278158745+278209298+278221268
2021+278066365+277785890+277448374+277236293+277242232+277283465+277224026
2008+277062932+276827299+276568731+276299038+276033000+275806368+275550861
1994+275074250+274411919+274012611+273999864+274079634+274115773+274031594
1981+273794134+273456823+273088537+272869786+272842807+272696265+272179243
1967+271576238+271445092+271691484+271794898+271666562+271468141+271271091
1954+271080415+270907854+270759164+270509528+270048153+269321129+268736216
1940+268924174+269461367+269771356+269837740+269758723+269774508+269997440
1927+270070928+269597949+269062082+269178379+269454811+269741385+270587630
1913+271456765+271689017+271666699+272069251+272835040+273555805+274187845
1900+274734838+274955508+274899998+275104038+275539119+275766620+276304612
1886+277380665+278307617+278978583+279593581+280195513+280829609+281456440
1873+281703769+280919727+279606534+279968081+281963959+283690738+284608096
1859+285141314+285645474+286282814+287008444+287649074+287945082+287732636
1846+287034372+286810161+288422333+290525371+291743603+292578975+293535076
1832+293737974+292907902+292999962+294444553+295926356+297528111+299190859
1819+300310247+300892259+301253167+301335381+301342851+302009408+303240798
1805+304273151+304558560+304105181+303955509+304708324+305300593+304794627
1792+304482879+306362117+308760044+309907530+310080457+310131901+310559284
1778+311523403+312146922+311357123+309715277+310341263+313238166+316009862
1765+317704911+318115732+318404066+319638517+321129275+322670472+323518887
1751+322552689+321250095+322263077+324489608+326249670+327304593+328301972
1738+329724519+330239758+329427916+331043720+335062591+339004799+341852063
1724+343548802+344659395+344858935+343158289+342423247+346643211+351980096
1711+355734735+357621305+358132228+358959010+360918064+362020319+362009445
1697+364333953+369879059+375986462+380175702+382848713+384792827+385608805
1684+387413961+393690636+400573949+405950399+410271607+414813440+419125830
1670+423467734+430446214+437972624+443311199+447791262+453355808+458681317
1657+462083020+463380177+466387643+473910260+479966585+486403989+496821315
1643+507440261+516171402+523143394+529005547+538112970+551530498+563165395
1630+572616615+581217044+589718012+598617008+608156817+616271086+622261895
1616+629114552+637925509+645572030+651482018+656832929+662121249+666857207
1603+671267688+676013835+680907918+685117648+688742900+692667038+697097622
1589+701730829+706182977+710084729+713512611+716818324+719284075+719557423
1576+720050070+724676607+729543277+732872840+737556166+743694683+749294864
1562+753568877+754410759+753495458+761269447+771763483+780895942+788606609
1549+796148597+802940764+807920236+811715490+818354239+835789108+853290864
1535+865473598+877204941+890405134+902236898+911880599+919486916+925256689
1522+930968988+938569639+946794837+955407922+964099041+970405916+973069492
1508+971686717+973022526+984504324+994609651+999627227+1000608867+1002723098
1495+1008990864+1013810522+1013502863+1011703783+1015271058+1021184107
1483+1025057852+1026363599+1026808960+1026661663+1024012981+1017960219
1472+1012606110+1012893210+1013819477+1010919330+1008517451+1010539394
1460+1010691533+1001686542+992477693+996316899+1001906389+1003371402+1001304138
1447+1000032017+1001219799+1002348735+1002416444+1000365901+995156986+993102697
1433+996527152+999417978+1000149617+1000201700+999080805+998335734+999452883
1420+998481112+996248824+998202144+1000656016+1000086659+997615518+995434309
1406+993286543+991187480+990913081+990971379+989311829+986403550+984324863
1393+985231211+986045361+982127024+974909690+972221077+975510206+980320544
1379+983649329+984478556+982874105+980910003+980275953+979670137+979337716
1366+979788833+978796959+977527489+978678172+979364397+977774840+975827003
1352+974538343+973220261+971558518+969508340+968063430+967459990+966207059
1339+965384959+966673619+968529624+969658469+970082083+970591407+971844430
1325+973819954+976069055+977276390+977679810+979666117+982513723+984221519
1312+986500042+990466715+994155609+996745264+999209278+1001998861+1004578190
1298+1006507570+1008509684+1011092668+1013815822+1016478942+1018883197
1287+1020761407+1021982906+1022769552+1023893645+1025335906+1026187154
1275+1025720502+1023994614+1022441790+1022197728+1022263609+1021819984
1263+1021926984+1022618052+1022753378+1022628743+1022538099+1022709244
1252+1023882132+1025577227+1027069835+1027998295+1028014742+1027892208
1240+1028122290+1027959278+1027481661+1027695022+1028691464+1029550296
1229+1029697958+1029613071+1030092606+1031162332+1031734795+1030525906
1217+1028580901+1028466317+1029909765+1030859972+1031292175+1031751151
1205+1031315933+1029527361+1027582630+1026387630+1025793054+1025679384
1194+1025408366+1024293319+1023397754+1023226974+1022691609+1021714720
1182+1020712430+1019858715+1019255092+1018574715+1018055889+1017688379
1171+1016526000+1014715955+1013265928+1012245271+1011617800+1011513450
1159+1011133879+1010460720+1010406169+1010291311+1009670693+1009719396
1148+1010563151+1011242797+1010879400+1009090097+1006904594+1005561018
1136+1004848020+1004088786+1003580651+1003174855+1001825705+1000111605
1124+999298186+999099080+998668979+997681399+995906717+993326108+990878907
1111+989535423+989698253+990765694+990768252+989907410+991492398+995710626
1097+998741987+1000385455+1003082110+1005310651+1005153852+1004460865
1086+1006215079+1010725798+1014648795+1016552042+1018785974+1021365029
1074+1022741865+1023400404+1023947099+1025253211+1027446939+1028997387
1063+1030875323+1034654313+1038660734+1041733670+1044705272+1047380179
1051+1048594734+1047838881+1045938193+1044841695+1045256354+1045732873
1040+1045136653+1043936535+1043698504+1045533950+1048616572+1051179728
1028+1051859374+1050333323+1048548133+1048565311+1049326281+1049257932
1016+1048701185+1047903848+1047054245+1047271169+1048023367+1046567765
1005+1043421547+1042771506+1045450799+1048024829+1048503816+1047829743
993+1046475477+1044798292+1044321132+1044701251+1044567022+1044349641
982+1044466966+1044520238+1044633269+1045031937+1044668813+1042625946
970+1039906905+1037453398+1035249803+1033820791+1033601674+1033183360
959+1031294734+1029673561+1029740173+1030348821+1030763115+1030190012
947+1028170079+1026621733+1026582167+1027444746+1028124940+1027198034
935+1025889546+1026169884+1026815264+1026290956+1026027339+1027770497
924+1029814918+1030163422+1030129796+1030858967+1031494479+1031160321
912+1029288782+1025674998+1022102424+1020907150+1021282335+1021688770
901+1022775582+1024453499+1025262258+1024429193+1022944900+1022185301
889+1021802714+1021260405+1020250164+1019201821+1019253356+1019172398
878+1018177417+1017511021+1017177868+1017280756+1018516235+1020122696
866+1020928349+1022114211+1025289761+1028406740+1029405833+1030477203
854+1033353866+1035742861+1036055637+1036194253+1037422514+1039025960
843+1040034829+1039656537+1038451120+1037435215+1036658529+1035791747
831+1033743123+1030746667+1029842605+1032598196+1036581865+1038396387
820+1038056655+1038127928+1038953134+1039390728+1040423264+1042854474
808+1045342611+1047236447+1048422675+1047967720+1046005171+1044592333
797+1044528644+1043200511+1039918783+1037902414+1038407900+1039575853
785+1038989501+1036591460+1036413644+1039791772+1041758616+1039753212
773+1036231534+1033157593+1031263392+1030253883+1029333098+1028532015
762+1027920809+1028033108+1030152639+1032774001+1032399273+1030785228
750+1032359708+1035471112+1036142261+1035050880+1034614016+1035501266
739+1036958695+1036250905+1031859156+1028060704+1027995097+1029083280
727+1030414611+1032477216+1033629818+1033354323+1032678149+1032194959
716+1031078906+1029290792+1027838571+1026240334+1024570093+1024331148
704+1026441541+1029250039+1030134090+1029979210+1031318583+1033747691
692+1033781226+1030906939+1030281204+1033678064+1037093382+1038271752
681+1038805563+1041573399+1045314651+1046069224+1044690286+1042924833
669+1041521224+1043165240+1048240748+1054766100+1058776176+1058064183
658+1055818921+1052290664+1047023360+1041730107+1041073944+1047396809
646+1053442626+1053781992+1053717025+1060247951+1066302631+1058756896
635+1051512059+1060813561+1069414402+1067113674+1069717583+1073741823
623+1060810820+1036688043+1027587930+1039900326+1044849918+1034862099
611+1032920840+1035336609+1031189470+1026853733+1026224617+1033056806
600+1052300441
##END=
