##TITLE=Sample description
##JCAMP-DX=4.24
##DATA TYPE=INFRARED SPECTRUM
##DATE=24/8/2023
##SAMPLING PROCEDURE=Instrument type and / or accessory
##ORIGIN=Default
##XUNITS=1/CM
##YUNITS=ABSORBANCE
##RESOLUTION=4
##FIRSTX=4397.6552
##LASTX=599.8556
##DELTAX=-1.9287962
##MAXY=1.4364349
##MINY=0.53107238
##XFACTOR=1
##YFACTOR=1.3377842e-009
##NPOINTS=1970
##FIRSTY=0.67040247
##XYDATA=(X++(Y..Y))
4398+501129000+501335199+500862384+500224717+499340572+498020014+497044933
4384+497058433+497596120+498482537+499453741+499704629+499170061+498713820
4371+498488596+498104401+497843443+497388896+496539459+495861915+495654780
4357+496208106+496544450+495780692+495416234+495968891+495812727+495180228
4344+495717335+496621440+496323413+494933082+493190011+492206242+492606968
4330+493646163+493937061+493204982+492880178+492920678+492301946+492601265
4317+494508119+495618914+494942394+493535533+492659632+493309775+494287083
4303+494149097+493879362+493909704+493823803+493553088+492677721+491916146
4290+491840626+491187320+490081961+490235497+491508381+492426387+492463591
4276+491944572+491553649+491611882+491774596+491313499+489975475+489518922
4263+490662108+490916293+489588651+489050117+489911361+490561370+490219234
4249+489378842+489289733+490305448+490758035+489992941+489285901+489398937
4236+489720132+489240812+487875253+486535091+486201999+486469907+486588868
4222+487608103+489638864+490777817+490766545+490286334+489161593+488178716
4209+487805391+487171422+486625715+486793820+486964242+486947311+486782191
4195+485617530+483987896+483604012+484420478+485471034+486453600+486922717
4182+486440412+485681466+485247458+484801911+484430903+484198951+483711611
4168+483010542+482488405+482635169+483330847+483840865+483955994+484246179
4155+484973447+485180493+484428319+483977559+484253264+484039802+483047924
4141+482276547+482312280+482567401+482066917+481249115+480998450+481127035
4128+481414458+481513904+481232050+480938568+480492219+480189692+480453946
4114+480423515+480050592+480381589+481330606+482039784+482199290+481856173
4101+480758834+479355582+478639097+478315274+477863800+477673462+478165570
4087+479091729+479337493+478553820+477899890+477688522+477266677+476956665
4074+476816184+476263527+475897198+476397592+477058384+476838061+476196249
4060+476181457+476186091+475562280+474983647+474844904+474769740+474492208
4047+474156622+474105250+474814607+475823950+475805504+474948627+474837151
4033+475820341+476514771+475739519+474213518+473536687+473706753+473733797
4020+473736471+474124944+474494124+474384965+473953586+473312710+472469556
4006+472288931+473172452+473684431+472760410+471543441+471356534+472042143
3993+472923391+473235898+472540666+471506416+471014710+471152518+471464000
3979+472302075+473790872+474021978+472569359+471428134+470850437+470410236
3966+471302801+473430157+474190395+473241066+472627146+472020756+470930724
3952+471324544+473653554+474899840+474574234+474271707+472444472+469924901
3939+469533933+470858412+473119387+474840805+473752243+471421718+470296621
3925+470014188+469918440+470391434+470906665+469815831+467595489+466605661
3912+466706355+467318982+469552690+472656152+473607485+471808809+468879245
3898+466903242+467748134+469528141+468401975+465906018+466669597+467954333
3885+467510880+468006774+467524469+465873894+466674632+468299944+469103311
3871+468080780+465013898+464267160+464780520+463789310+463534012+465115973
3858+467570628+468556134+463144024+458226248+460536234+463627487+465085141
3844+465536703+465802740+465220721+462283404+459801794+460212232+461030703
3831+461438780+462529703+463765295+464765594+464370483+461360987+461038723
3817+462142433+460646017+460626190+462772214+463801296+461496345+459623931
3804+460431174+459203691+458356304+460242351+461138392+461807337+463257906
3790+464208749+464485612+464033649+463389387+464095892+464388884+462909933
3777+462624515+463818405+464631172+463996891+462738264+462283538+462121270
3763+462826170+464237932+464526335+464475186+466007335+467371557+464712618
3750+461965328+465577203+469884623+470716327+473511113+479284919+484452423
3736+485054135+479338384+475444032+478222243+483445932+485984528+484639954
3723+481793485+478571374+476464647+477228271+480205999+482111205+481191060
3709+482266122+486615779+491705447+495822930+499170507+503974400+510476765
3696+517764898+524737138+528795630+527733356+526221568+527916609+529742552
3682+530482696+531007863+531216557+527413363+523010463+524971941+525619099
3669+522908521+523869523+526511976+527784103+529475224+533150233+536556800
3655+539343388+544144742+548772332+547699053+545548484+547769494+550319808
3642+551599866+552225281+552901845+553573597+554190903+555439149+554276760
3628+547908995+545103828+546097176+546245989+543974855+540694333+539831708
3615+539748881+538353560+537988478+538076385+536212303+535493858+536802654
3601+536723703+534953141+534010719+533022361+531241508+531933978+535264846
3588+534499752+528057046+524246233+524013613+523866315+522559212+521151371
3574+520793775+523041161+528222567+531616614+526932528+520393896+518046529
3561+517524035+517564045+518252639+518646726+518295055+518501388+521073623
3547+524210723+522860803+518099682+515803954+517090517+518661295+518085158
3534+517277291+518107390+519492776+521142861+523068295+522501870+519497276
3520+518008702+518027905+517414386+517175929+518591611+519969289+519569588
3507+519585182+521931658+523678027+522239933+519887308+518825257+519051773
3493+519607950+519374349+518332436+517554421+517851557+519102654+519782114
3480+518829623+517604902+517235409+517484248+518201178+519044956+519233333
3466+518844326+518787385+519144625+519090669+518273535+517186889+516450666
3453+516183204+516264472+516504088+516886055+517452970+517437376+516505291
3439+515506551+515398818+516302255+516619573+515321560+514036155+514193033
3426+515045543+515361882+515036588+514613318+514226983+513918664+514440178
3412+515880455+516551227+515790365+514772824+513784599+513027124+513390067
3399+514250107+514666828+514798220+514443876+513631999+512896311+512483066
3385+512816959+513730376+514065695+513316106+512355773+512259401+512842355
3372+513074129+512759483+512474912+512472239+512234851+511149319+510287630
3358+510850045+511491321+510843228+509760904+509185524+508645832+507957684
3345+508124853+509032478+509484264+509380540+509306713+509626126+510030683
3331+509729315+509163469+509305955+509523472+508970013+507833644+507052242
3318+507640499+508443776+507716286+506249321+505460123+505358627+505484450
3304+505593564+505015912+503772968+503275782+503598091+503113870+501644008
3291+500777285+501114163+501912317+502257349+501958164+501810242+501910847
3277+501608944+500582179+499332463+498985203+499467687+499471875+498780118
3264+498532349+498477413+497771443+497075810+496715540+496374963+495870425
3250+495401932+495672736+496642203+497238568+496975650+496498113+496195719
3237+496087719+496166759+496309111+495854386+494501079+493966913+494733611
3223+494665932+493643891+493845635+494921899+494792869+493792659+493253546
3210+493258982+492880178+491665882+490566494+490517929+491010571+490915224
3196+490749881+491599941+492683825+492048028+490094169+489554076+490741104
3183+491538812+490927967+490587435+491763546+492371229+490645579+488889319
3169+490450874+493171521+492444388+489310985+489076850+492798821+494629620
3156+491507713+488475317+491157958+496190685+495471170+490538380+490162961
3142+496518786+499827556+493358874+486575591+489825860+498041044+497861221
3129+489999267+487335071+495171094+502940329+498376586+488825784+489079301
3115+499464301+503491516+493496637+484663568+488992553+499435251+498982486
3102+487927249+483394293+491757576+501252327+496788743+484980353+482931591
3088+493700965+502235294+494975944+483238395+481643692+489048736+493286472
3075+487535211+480828518+482136334+489680790+491924656+484238605+477402213
3061+479043165+485992592+487757317+481445601+475755514+475509661+478300793
3047+478447557+475227763+473357844+474436961+476095511+475584602+473437286
3034+472383076+473220348+474521258+474396861+473070867+473192769+480723101
3020+510793505+568896110+614846629+604479229+565680727+534275107+514826958
3007+501652117+491847933+485679506+482814813+481046925+478135094+474998529
2993+474163082+477322549+481183842+479050872+473157794+471204157+475857232
2980+482869928+483071894+476245171+471603768+473318636+479352196+482127467
2966+477279732+471739749+472443492+481484409+490706084+487100802+476391310
2953+471380148+475655578+484569469+485587456+476995072+470472479+472333308
2939+480883320+485531005+479360706+471470327+470511241+477805077+486305366
2926+483918613+473838635+468179647+471161696+478992283+480791939+473523945
2912+467206348+467539573+472871886+476838194+473786862+467978348+465847695
2899+469033538+474795136+475806574+470666425+466400664+466794484+470365324
2885+472431507+469785801+466063964+465514916+467844684+469888143+468880671
2872+466363149+465396133+466338911+468120567+468879379+467287928+465015234
2858+464315413+465149701+465919206+465080463+462939473+461254813+461067149
2845+462038086+462752699+462324083+461526731+461373507+461920372+462407311
2831+462278860+462052121+462220894+462430970+462517985+462548015+462189527
2818+461470102+461062871+461245501+461521652+461478166+461234363+460961242
2804+460726795+460584621+460368396+460011958+459942408+460314574+460698191
2791+461010787+461347220+461352433+461094060+461105956+461160669+460944890
2777+460966544+461296249+461435839+461504721+461618558+461374666+460882826
2764+460761057+461033688+461217877+461362859+461847213+462424732+462601971
2750+462400717+462074843+461801589+461905625+462459975+462848359+462678649
2737+462345246+462182666+462070343+462098056+462606159+463303352+463499972
2723+463080979+462562317+462542490+463050503+463655958+464033559+464027812
2710+463890717+464088763+464454023+464404611+464018188+463988871+464485122
2696+464976249+465176433+465381875+465767363+465924240+465673308+465525921
2683+465774403+466136900+466335124+466283441+466112573+466292842+466876064
2669+467221229+467324507+467611796+467752099+467637950+467866694+468441985
2656+468875859+469285406+469945841+470469404+470536415+470535345+470778971
2642+471191993+471699606+472070880+472255515+472662256+473269314+473715441
2629+474080567+474526337+474975895+475383883+475844935+476283933+476558569
2615+476864170+477226667+477547194+478083945+478737608+479057244+479129066
2602+479364538+479844348+480395535+480908984+481266046+481415304+481574454
2588+481954728+482570520+483253767+483665631+483725869+483851291+484368482
2575+485057878+485595476+486014959+486452353+486986163+487662727+488315900
2561+488762561+488991305+488997855+488866953+488902106+489528992+490692762
2548+491533510+491633179+491573788+491836438+492449333+493120105+493514771
2534+493750065+493995739+494185810+494372539+494671279+495047989+495458116
2521+495802702+495970406+496166180+496468350+496695000+496941744+497252246
2507+497471099+497687858+498089252+498549057+498796336+498863747+498945416
2494+499075872+499184809+499260151+499405756+499639936+499842526+500060221
2480+500386629+500622813+500696863+500848929+500965306+500791899+500655517
2467+500926632+501369417+501573924+501460532+501329808+501450061+501489626
2453+501104628+500712814+500681269+500790874+500800230+500589085+500188405
2440+499795743+499531534+499468801+499489920+499282918+498902198+498693994
2426+498662805+498459012+497973632+497478005+497067077+496682703+496416711
2413+496197279+495903708+495712434+495613924+495220193+494566798+494041854
2399+493598356+493376518+494076606+496332458+501082752+509711671+523120557
2386+541103969+562322636+584672503+606078031+625584592+643604049+661242340
2372+679844127+699338346+717843183+734535398+748273989+756689937+759335865
2359+756704818+748009512+732946308+714805039+697812792+687501129+689190333
2345+698912581+701734768+694227070+685338842+678193285+674511324+676723379
2332+681867448+683082144+679780503+678696085+681971617+683043871+676974578
2318+666086243+656106692+653170400+656609715+657715564+651177911+638583174
2305+623626767+610857910+602178109+595124468+587298604+578282282+568068996
2291+557431192+547694241+539221531+531722343+525287745+520274623+516411102
2278+512937168+509754978+507097332+504775940+502691624+500970385+499523514
2264+498141515+496924502+496058535+495375288+494789393+494388712+493961432
2251+493337309+492772489+492504225+492450224+492516254+492686498+492975837
2237+493371928+493641618+493670133+493665589+493845635+494275766+494781062
2224+495137990+495364952+495633973+496050872+496588381+497222216+498031598
2210+498970010+499821808+500562531+501242392+501887812+502647292+503403787
2197+503942543+504472968+505275042+506304213+507296982+508110596+508872928
2183+509641720+510362438+511135240+512030345+512975752+513803624+514346568
2170+514793586+515446982+516280868+517181498+517994934+518428764+518563230
2156+518697518+518675374+518483388+518546477+518944351+519126669+518646325
2143+518058336+517957865+517951983+517543372+516699638+515659062+514612738
2129+513487464+512234584+511030403+509858613+508392806+506718750+505323295
2116+504225154+502869843+501031915+499103407+497332668+495695993+494085829
2102+492414269+490815243+489346273+487917313+486602413+485576228+484639598
2089+483274039+481380596+479455742+478025890+476984557+475894614+474691992
2075+473427394+472195366+471215696+470516855+470106328+469772924+468930394
2062+467623247+466382085+465394930+464737658+464322096+463930014+463635374
2048+463596210+463724439+464078471+464827169+465465772+465599837+465694382
2035+466100454+466733444+467378062+467932991+468489302+469160118+469975827
2021+470947566+471981192+472265228+471206563+469797474+468986533+468551010
2008+467932501+466924762+465737244+464478394+463129766+461746698+460478402
1994+459520341+458321239+456422583+454424436+452503725+450691505+449223961
1981+447900774+446591265+445308846+444049550+442948201+442200216+441707886
1967+440874623+439482153+438111382+437093929+436367420+435827060+435115075
1954+434071246+433165314+432623662+432197095+432127545+432573226+432476943
1940+431462209+430563227+430137195+430015382+429917451+429647939+429507280
1927+429915446+430882017+431665690+431676517+431294594+430906344+430720194
1913+430822848+431198890+431622383+431608838+431372564+431513625+432012148
1900+432660063+433263513+433373117+433051477+432927570+432802906+432370814
1886+432263570+432487280+432748371+433203809+433456212+433278884+433440662
1873+434564556+436049343+436271716+435386680+435575325+436857255+437950806
1859+438124659+437757929+437642755+438128758+439561773+441875902+443731340
1846+444108897+443434561+442657259+442069403+441622207+441696747+442278766
1832+442033804+439934919+437936950+437611388+437179786+435892911+434917875
1819+434618467+433710798+431786389+429901723+427899076+425664477+423723895
1805+422714373+423088143+422413049+419209607+416764398+415697534+414092672
1792+411856692+410070893+409279288+409093584+408373357+407052397+405848751
1778+404604871+403154302+401302295+399231702+399375792+400977713+400911327
1765+399918246+399388623+399311098+399617189+399324598+398897586+400052445
1751+401508182+400792187+399607209+399751611+399641784+398274844+396979102
1738+397245629+398287765+398734827+399080305+399427609+399071706+399047423
1724+399778255+400446843+400818430+401098813+401703555+402405827+402598214
1711+402711205+402988870+403288679+404222190+405771716+405755676+403858668
1697+403525042+404558311+406393834+408990796+411430704+412605969+412127674
1684+412232957+415494676+418101219+418870234+418964645+419539892+420763142
1670+422095641+424030610+426608458+428594219+429947213+432109277+435140382
1657+437826900+438593999+436610956+437734716+440809261+442950429+445187879
1643+448096904+450587292+452267451+452618186+452172906+454322673+457814384
1630+460502462+462472450+464338537+466128078+468495094+471216409+472745172
1616+473666431+476511073+480097196+482819937+485022992+487602489+490415854
1603+492971871+495279317+497907780+501034900+504196728+507318412+510629276
1589+514103923+517704838+521543720+525579000+529608398+533197506+535785201
1576+538649092+543415381+548089798+552077404+556701697+562027371+567136064
1562+571338691+574393320+579741361+589115903+597848769+606082220+613820043
1549+620858046+627815671+634886243+639181901+640656841+648897376+660160105
1535+668637048+675753778+682915197+690108161+697161045+702922464+706850367
1522+711842148+719910211+729263100+738197487+746077039+754212603+762364252
1508+767129382+767770258+773100700+780795573+786782840+790364240+794996776
1495+802916294+810460127+815817836+820210311+826238390+832968386+838903168
1481+844470284+850026797+854705759+857480718+859092976+862476998+868619584
1468+874690793+878385897+881354936+886245890+890789316+892828320+897222844
1454+905823693+913024276+918268460+922642756+928064891+934732599+940561252
1441+945103609+948852980+951769624+955700422+961068290+965516369+969656218
1427+974725569+979253579+983460973+987788220+989789976+990055255+993204652
1414+997442255+999903014+1001546817+1003154976+1003778297+1005251188+1009158283
1400+1011329526+1008557596+1004191141+1003723227+1008188505+1011648716
1389+1009840951+1004710917+1002463130+1004968889+1009078887+1012314007
1377+1013540511+1012830932+1013046933+1014970184+1015810130+1015427939
1366+1014700895+1012572960+1010980573+1012023778+1013210182+1013555303
1354+1013874226+1013465570+1011512646+1010601768+1012321225+1013988732
1342+1013209112+1009930328+1007164458+1007111349+1008093514+1008561874
1331+1007569372+1005702973+1004672155+1005043207+1006537751+1008305684
1319+1010114161+1012908724+1016019626+1018011937+1019973593+1024774368
1308+1033449356+1041502539+1044024694+1043254342+1043157391+1044296656
1296+1045984569+1048380278+1051319911+1053271944+1054077048+1055314156
1285+1057876588+1061057976+1063400219+1064211205+1063701320+1063055276
1273+1064015521+1066398398+1067155829+1064374097+1059906057+1056754433
1261+1056011348+1056399509+1057428724+1059431817+1060974926+1061015025
1250+1060774073+1061688960+1063362081+1064583415+1064976032+1065106043
1238+1065361787+1065008290+1064107749+1063657835+1063800856+1064340057
1227+1064814833+1064750318+1065030121+1066619033+1068378500+1069015098
1215+1068589155+1067903814+1068182727+1069240100+1070625485+1072351893
1204+1072865609+1071971039+1071914009+1073048818+1073741823+1073524485
1192+1072939392+1072249773+1071628948+1071479154+1071652294+1071637413
1180+1072037515+1072869085+1073146928+1072711182+1071524957+1070115957
1169+1069409408+1068845256+1067598079+1066936797+1067613851+1067927517
1157+1067690218+1067162334+1064539752+1060401239+1057665577+1057209960
1146+1058245413+1059057289+1057455011+1053733977+1049791950+1046609048
1134+1043780712+1039794310+1035155269+1031505343+1028301857+1025399471
1123+1023232239+1019696017+1013766314+1008199465+1004329439+1000670960
1111+996204880+991215283+986868610+984404821+983251299+981004403+977138387
1097+972771308+968612746+966127660+964663323+961753363+958296627+956620567
1084+956368743+955384351+953062692+950589992+948143312+945821297+944853568
1070+944700032+943582420+941922043+940753639+939192619+936635087+934748104
1057+934058842+933139588+932031512+929965241+925880728+922636518+922015692
1043+922626627+924231400+925788143+924898831+922527003+921037359+920150185
1030+919520626+919766123+919883658+918803829+917857130+918396599+919456646
1016+920240186+921535660+923005610+923831655+924541056+924706443+923609951
1003+923011046+924338688+926073294+926848546+927186717+927271995+926784388
989+925949521+924901147+923664397+922788450+922581983+922279635+921199628
976+919670687+917936794+915598382+912696977+910029662+908047510+906547263
962+905313007+904574111+904338238+903723382+902667435+902550612+903745660
949+905066263+905876714+906267993+906497361+907701231+910065484+912385628
935+914881675+918283786+922156040+925639331+928233397+930045974+931059238
922+931700203+933064113+935054106+936812860+938429574+940112942+940573727
908+938715616+936534928+936614235+938145582+938331197+936351719+934418043
895+934011436+933690998+932656615+932330029+933186638+933803276+933463680
881+932734942+932075977+931980185+932770942+933855227+934346577+934894957
868+937250388+941413673+945914684+949750491+953330733+957908734+963377651
854+968660598+972466375+973256153+971655924+970842176+973141825+977700400
841+982426056+986262576+988195451+988713533+989938967+990650328+989094744
827+988325550+991055687+996202920+1001752214+1006748317+1010362509+1010789522
814+1009831595+1011149435+1012954081+1014541656+1018930388+1023570944
802+1024412138+1024102839+1025815791+1028110004+1030199622+1033189602
791+1035942462+1037646860+1039375495+1041636114+1044653362+1047571520
779+1049170144+1050682154+1053554778+1055993348+1056025606+1056026051
768+1058712614+1061205274+1060273545+1058246215+1057360644+1057884430
756+1060163138+1062946117+1064451890+1062840523+1059067091+1057354407
745+1058068530+1058203531+1056214964+1053986335+1054128821+1055616682
733+1056716205+1056919731+1055566603+1053082497+1051301822+1051519160
721+1052209224+1049546097+1042606695+1036159711+1034519561+1037008479
710+1040854000+1043476314+1043556424+1043160421+1043886485+1043765653
698+1042772349+1041227190+1037780435+1034932495+1033776923+1032306170
687+1032243616+1034963594+1037016499+1036558743+1036967756+1039042404
675+1040878238+1043247570+1043783475+1038898759+1035733678+1040288422
664+1043475067+1042755329+1041441053+1038924066+1034646810+1031067994
652+1028880088+1030181711+1037604087+1041097536+1027914943+1011697459
640+1013906216+1029147328+1033195127+1021978290+1011956589+1009523009
629+1011373368+1013140320+1014877153+1019106558+1014008870+991094628+966428672
615+954273333+959197792+982488700+1010808948+1027652070+1033154493+1035019198
602+1033270692+1023314487
##END=
