##TITLE=Sample description
##JCAMP-DX=4.24
##DATA TYPE=INFRARED SPECTRUM
##DATE=24/8/2023
##SAMPLING PROCEDURE=Instrument type and / or accessory
##ORIGIN=Default
##XUNITS=1/CM
##YUNITS=ABSORBANCE
##RESOLUTION=4
##FIRSTX=4397.6552
##LASTX=599.8556
##DELTAX=-1.9287962
##MAXY=1.2892177
##MINY=0.33663842
##XFACTOR=1
##YFACTOR=1.2006776e-009
##NPOINTS=1970
##FIRSTY=0.48641193
##XYDATA=(X++(Y..Y))
4398+405114534+405776144+405395932+404517756+404140920+404221738+404152214
4384+403466105+402371413+401316236+400625808+400456304+400352278+400165052
4371+400866748+402317327+402477797+401059088+399863697+399592922+400063880
4357+400857862+400866525+400005029+399722017+400266297+400379184+399615261
4344+398780026+398906589+399624668+399513593+398555170+397809564+397419722
4330+397137777+397589623+398568995+398616081+397638893+396707401+396217281
4317+396072771+396405277+397046187+397748305+398623701+398752399+397359108
4303+395809790+395644406+396450501+396967727+397237534+397593148+397406095
4290+396722269+396154508+395615043+395134627+395322723+396460008+397463208
4276+397215393+396611765+396239123+395640460+395260198+395200031+395310312
4263+395757070+396067137+395715544+394687522+393789861+393667642+393670297
4249+393355241+393394558+394377505+395534448+395443404+394465744+394087766
4236+394079103+393573495+392725303+392081266+392100254+392364079+392473466
4222+392820716+393222547+393280455+392984064+392287878+391501193+391406947
4209+392035793+392416154+392220587+391928540+391889770+392041279+391826773
4195+391376789+391399103+391366835+390917769+390955647+391393618+391277926
4182+390741638+390671592+391180453+391610555+391396100+390400147+389714981
4168+390284827+391117953+391313941+391057637+390510626+390270505+390963217
4155+391415758+390598444+389732505+389429586+389140766+389131160+389568908
4141+389808582+389485930+389183583+389553966+390245610+390347178+389739579
4128+389098967+388724936+388384239+388038380+388269664+389237594+390099760
4114+390300787+389784059+388799697+387942619+387315088+386929316+387290168
4101+388098844+388334646+387902359+387286246+386740725+386354531+385985066
4087+385668024+385391094+384845250+384291363+384174406+384180338+383970549
4074+383788609+383581401+382996885+382371191+382183691+382362280+382675053
4060+382848702+382748449+382551989+382526473+382838203+383192601+382948906
4047+382065468+381279974+381099201+381391918+381775704+381948932+381876454
4033+381549384+381116775+380807303+380549981+380368488+380252275+379982518
4020+379558893+379201269+379046285+379010443+379021464+379002326+378995898
4006+379228671+379423220+379093321+378550381+378555221+378970853+378925778
3993+378413368+378097939+377949657+377410390+376719590+376767321+377299291
3979+377385197+377041944+376660342+376391652+376342431+376585804+376896392
3966+376759776+376068082+375370505+375260299+375749849+376334339+376382220
3952+375734112+374799865+374363656+374812821+374900614+374022289+373796044
3939+374565378+375159425+374785915+373280258+372272664+373103729+373774300
3925+372781599+372162805+372868871+372851347+371981858+372455994+374388130
3912+376173076+376945886+376054753+372490892+367990824+366460197+367226726
3898+369060968+371736699+373212471+372232478+371629744+372745410+372231088
3885+370358945+369822409+369366989+370295601+372256158+371823796+369612471
3871+367434034+366842915+368710367+369263732+368593732+370276216+372623090
3858+373415832+371155881+364214245+362709829+368631932+373731558+375645897
3844+374957604+372843826+369496407+366185152+366284437+368472580+370252239
3831+371884062+373206241+373595463+373542172+371538799+367651939+368525548
3817+371560716+372955646+375298846+377824285+377934764+375108641+373143989
3804+372846606+371220268+371427202+373700060+375497491+377873307+380266597
3790+381333290+381215389+380312516+379790277+380399242+380381370+379881173
3777+381173988+383089717+383510983+382077531+380917088+381295835+382260836
3763+383650752+383894521+382125039+381714545+383282354+383155592+379336470
3750+377583916+381104289+383387522+382354809+384426962+388517331+389594722
3736+386862150+386134143+390786887+397087985+402089145+405409956+408927103
3723+414068329+420722535+429285917+439264161+449452441+459822215+473398398
3709+491884673+510445361+525640734+537834125+549400234+561005262+570906361
3696+578620955+583451767+583915130+580161908+576843952+577412011+578729325
3682+577818584+574408540+569540646+561266431+553806900+552546625+548765753
3669+543503151+543928686+545826023+546178087+545934442+545942285+544837889
3655+543618768+543259704+538182913+526822126+523673352+528973285+534174330
3642+537527682+539458080+540517998+540532940+539664246+538982555+536635507
3628+533252568+535463348+540221930+542554730+539621603+534496113+534307968
3615+536518301+536941404+536431277+535527833+534992042+536799079+539286218
3601+539680479+538351648+536710219+534851554+534556578+536619820+537471387
3588+534534437+532803353+534855773+537448105+539427650+541039740+542301355
3574+543078906+543174219+542631378+540470589+537777682+538893000+542006727
3561+543819075+544439160+545099008+546441540+548456083+550268431+550707470
3547+549826812+549987008+552310873+555124809+557518571+559029540+559751292
3534+560482775+560933380+560898928+561045075+561496574+562366857+564219962
3520+566411530+567685853+568262103+569298539+570291935+569335573+567759274
3507+568588254+570528234+571465881+572276295+573120268+573366892+573634415
3493+573857955+573571121+573413059+573826978+574712650+575898660+576931819
3480+577441350+577426507+577433804+577873091+578156848+578262983+578738906
3466+579213935+579129195+578386047+578019139+578810093+579638428+580404015
3453+581479470+581503745+580059049+578611027+578571114+579633762+580929183
3439+582061231+582152374+581239697+580198694+579518839+579841565+580700927
3426+581220237+581413892+581390660+581440302+581258362+580584267+580554978
3412+581447252+582088633+582425061+582940995+583018487+582348363+581606952
3399+581196607+581126264+581346528+581509256+582007518+583077065+583272806
3385+582606256+582230412+581820862+581198891+580471231+580256080+581395823
3372+582749971+582704697+581452465+580338437+580545893+582354122+584435930
3358+584932553+583880232+582526629+581308303+580212643+579981259+580946856
3345+581884702+582304529+582821804+583308300+583655450+583948986+583713631
3331+582964278+582558202+582733241+582732596+582392197+582380730+582618865
3318+582087988+580823047+580191098+580317339+580505683+581041673+581847917
3304+581958322+581179381+580723365+580686779+580019385+579723714+580313566
3291+580324041+579955743+580088785+580233493+580032292+579812524+579971629
3277+580674765+581552792+582118071+582618071+583549811+584724204+585550652
3264+585853620+585904653+586057602+586613151+587492667+588297223+589011529
3250+590423164+592615377+593651664+592775871+592077798+592166311+591720422
3237+591103266+591332962+591802233+591883994+592276567+593394764+594323427
3223+594342043+593793096+592951159+591822735+591115826+591495740+591998221
3210+591333508+589813454+588639707+588657131+589294740+589057945+587833711
3196+586750015+586319416+585957721+584854714+583584859+583428038+583847269
3183+583538145+582792316+582317088+581891702+581218202+580564857+579719792
3169+577971880+575998540+575033291+574879946+574652384+573676711+571989660
3156+570540049+569814623+569211218+567994977+566445882+565697124+565649318
3142+565257292+564208643+562470510+560605441+559435913+558905880+558258641
3129+556739183+554837081+553442971+552584850+551934732+551087036+550094981
3115+548956380+547447893+546128495+545523055+545438215+545235128+544304877
3102+543126215+542681120+542719891+542316695+541278372+540108199+539409381
3088+539121901+538671693+537992286+537423085+537284285+537500875+537504002
3075+537124436+536244522+534594654+533039106+532375286+532008279+531521187
3061+530816213+529468916+527838705+526913965+526686453+526170717+524828632
3047+523112491+521762314+520854799+519816625+518530090+517501001+516587033
3034+515099842+513402863+512138121+510738252+509117970+508124276+507667019
3020+507079102+506041475+504496302+502789394+501297537+500181276+499490203
3007+498858253+497869772+496727101+495702529+494578424+493412421+492586072
2993+491853845+490983711+490354790+490070785+489913865+489811353+489733117
2980+489404086+488492302+487207306+485903296+484640540+483568311+482873565
2966+482340851+481300542+479526865+477656733+476141892+474998228+474316288
2953+473878144+473250116+472638123+472213084+471294301+469705393+468264470
2939+467353480+466733644+466266210+465812080+464992234+463714734+462405562
2926+461144989+459832193+458775155+458059856+457483606+456693049+455336320
2912+453868589+453114867+453065870+453145496+452990413+452390086+451574659
2899+451068901+450636465+449955022+449206016+448253873+447280532+446955721
2885+446877435+446092438+444857233+443962625+443448428+442918643+442049304
2872+440940290+440110863+439650628+439175152+438530097+437896361+437488051
2858+437071550+436213877+435034867+433833121+432480810+431158582+430555773
2845+430474359+430213835+429735877+429029117+428256927+427874928+427793515
2831+427729377+427536515+427031452+426290737+425632725+425251967+424975508
2818+424493579+423933462+423602396+423366843+422904919+422259715+421704017
2804+421296154+421028780+420780319+420248846+419559858+419046406+418729140
2791+418464844+418149216+417821477+417451243+417059266+416804351+416539757
2777+416070312+415508310+414999325+414553982+414059468+413573667+413415357
2764+413509007+413481406+413336028+413238083+413275638+413329152+413050335
2750+412366311+411675114+411385872+411280629+410924097+410379792+409768221
2737+409175464+408878205+408871354+408928716+409043862+409105220+408877932
2723+408502560+408223123+408060618+407994444+407962326+407783116+407442593
2710+407211805+407218979+407305158+407209174+406923780+406765122+406829856
2696+406935868+406894689+406726624+406586856+406450736+406377787+406424028
2683+406299972+405871185+405564692+405715034+405861579+405500057+404929566
2669+404646554+404747204+405027510+405138585+405007281+404973326+405121955
2656+405207440+405233055+405215184+404932048+404626920+404769841+405091872
2642+405159510+405049328+404989087+405047467+405099839+405100733+405195649
2629+405557419+406157672+406665738+406911369+407099464+407320250+407439913
2615+407605495+408142131+409003478+409846085+410356261+410604796+410921292
2602+411266184+411527725+411865542+412249552+412558254+412847868+413173722
2588+413603527+414127429+414541224+414835356+415246793+415725744+416042190
2575+416199358+416256050+416282261+416369458+416478945+416577584+416656417
2561+416726264+416877375+417035239+417011460+416980830+417229291+417490560
2548+417516076+417610695+417867595+418015082+417973383+417934810+418016075
2534+417948810+417666294+417641572+417931435+418024514+417904032+417957497
2521+418105382+418212709+418405570+418581454+418693298+418847240+418991501
2507+419152889+419311348+419286080+419187241+419242692+419351260+419393407
2494+419474274+419607813+419666093+419668029+419668029+419585424+419480480
2480+419527839+419659590+419625237+419395492+419184461+419038363+418847488
2467+418600963+418386111+418286379+418199107+417980333+417847738+417997112
2453+417951788+417303904+416559812+416286307+416296980+416228349+416061153
2440+415828255+415489495+415070314+414531494+413808798+413162974+412880260
2426+412655553+412204204+411768864+411419678+410987118+410522688+410171939
2413+409882920+409481138+409047933+408839831+408670948+408103906+407262019
2399+406594054+406207612+405871780+405436713+404990129+404520859+404017707
2386+403463349+402516369+400890130+398544596+395511637+392041055+388679438
2372+385819285+383212979+380370002+377206782+374384456+372704852+372026388
2359+371861947+372352613+374044852+377231553+381079568+383542382+382941062
2345+379613823+376430174+375422556+375810363+376485253+377024147+377227284
2332+377246545+377574980+378231403+378906690+379456109+379993439+381007015
2318+382514459+383834776+384681553+385318318+386064494+387039076+388028799
2305+388711954+389014550+389227169+389610533+390066400+390478433+390845713
2291+391103035+391273036+391495782+391752781+391892202+391902701+391893518
2278+391845315+391758068+391855988+392156697+392369986+392415707+392491164
2264+392733494+393115120+393528469+393807559+393964057+394206660+394502380
2251+394722719+394990391+395446606+395972196+396427815+396920914+397435558
2237+397798866+398106675+398634101+399457497+400276797+400890353+401472139
2224+402034861+402549282+403260014+404214490+405209301+406188748+407195945
2210+408233821+409420202+410803788+412139122+413355463+414698541+416335105
2197+418165797+420002818+421937188+424006040+425986577+427991539+430247493
2183+432627156+435104118+437715066+440191086+442604009+445336829+448121575
2170+450586971+453037028+455748501+458564721+461174328+463309353+465095491
2156+466863161+468545397+469870057+470801797+471503643+471940448+471748828
2143+470806116+469398851+467657242+465405458+462615301+459476604+455893656
2129+451645598+447067615+442607534+438148892+433524792+428885451+424380543
2116+419933567+415442012+411106161+407093582+403285555+399578625+395969813
2102+392504220+389138582+385829611+382744751+379907855+377123631+374341739
2089+371662334+369179315+366878435+364734499+362720701+360727331+358804602
2075+357060735+355381379+353682066+351971857+350146204+348280812+346696943
2062+345348454+343907283+342291022+340631374+339101665+337741112+336457605
2048+335165113+333769464+332282174+330878607+329712852+328735788+327773865
2035+326793674+325841530+324841606+323773051+322785116+321885097+320925780
2021+319883064+318742329+317590449+316736375+316130165+315434599+314605569
2008+313716273+312794884+311910626+311080281+310304815+309611533+308859374
1994+307730280+306368760+305474798+305073686+304601983+303923743+303209461
1981+302595111+302040703+301434916+300855314+300376934+299750992+298702195
1967+297594745+297042819+296829729+296483001+296027705+295446217+294676361
1954+293993677+293552207+293129401+292530191+291692449+290494054+289492988
1940+289547893+289944437+289820505+289440194+289137374+288854784+288541888
1927+288107540+287227180+286292685+286033501+285866156+285699010+286244010
1913+286796457+286543528+286035512+286131421+286670663+287106201+287333341
1900+287374544+287013221+286253318+285689280+285381273+284924934+284857495
1886+285276503+285460801+285420590+285333120+285234083+285191465+285046459
1873+284429577+282707528+280481285+280373709+282131551+283376212+283647583
1859+283628595+283733440+283959363+284101440+284061676+283723660+282946656
1846+281719840+281077864+282444522+284288145+285231179+285944889+286774813
1832+286587785+285296707+285220754+286682875+288271683+289974744+291399732
1819+292016292+292185201+292155961+291525725+290476878+290071423+290328248
1805+290288286+289329267+287752348+286877399+287052836+287059562+285978770
1792+285134128+286722117+288931358+289801194+289672247+289421156+289518802
1778+290228939+290593042+289281536+286887501+286996765+289652912+292159809
1765+293456545+293409038+293338769+294165267+295027334+295840503+295749533
1751+293443266+290872256+291170185+292761699+293691181+293811142+293734593
1738+294011400+293218609+290780765+291091105+294162735+297187800+299087818
1724+299746276+299875247+299061979+295861080+293428175+296806521+301704971
1711+304874074+305885416+305270817+305098408+306304821+306670885+306315370
1697+308821870+314636025+320813241+324755898+327059881+328545285+328573879
1684+329887668+336841168+344680142+350772444+355317737+359695437+363876676
1670+368421771+376171611+384504702+390576825+396553361+404445402+411860950
1657+416542537+418436597+423685150+434238701+441097061+448063940+459966178
1643+471280798+479445898+484973790+488215396+492998154+502427897+510906639
1630+516699622+520880861+524138700+526604047+529817853+533247356+534195875
1616+533947564+536415789+539150495+539715725+539050764+538868874+538957039
1603+538713939+538534531+538555530+538388384+538403326+539220839+540510104
1589+542198347+544630879+547616827+551026721+554869994+558170923+560276113
1576+564787227+573101304+580264371+586992817+596243202+606397477+615606907
1562+622208467+625600540+634127137+650250527+664313951+676968819+688314763
1549+699403112+709098542+715717278+719326934+724013038+740351827+757821522
1535+769172678+779202053+790498553+800157794+807818526+814993010+821102613
1522+827355186+836076233+844828803+853789375+863371074+870905814+874777135
1508+874292326+876246851+887844532+898083001+903776600+905397229+906350167
1495+910074646+913050813+911595692+908485291+910770038+915976743+919692484
1481+921388074+922048617+920785513+915763578+908595200+906403284+910840927
1468+914266260+913453116+912866937+915169357+915480020+910541980+908773019
1454+916044058+924367617+931494494+937772683+945255199+953923078+961877396
1441+967973993+971111300+972567414+977584385+985731217+992834861+998904452
1427+1004577796+1008192466+1010690676+1013262157+1013802764+1015308620
1416+1021042727+1025666033+1026909975+1027262834+1027621352+1026249531
1404+1024219748+1023762640+1021760855+1017261259+1014790055+1015955264
1393+1019485839+1021700788+1018379307+1011104297+1008539964+1012079177
1381+1016265728+1018033001+1017651548+1016765131+1017352799+1019178651
1369+1020028133+1020035282+1019973030+1018164355+1016200100+1017345552
1358+1019326685+1019454067+1017406115+1014642914+1013183623+1013686104
1346+1014085925+1012481976+1009332059+1004819158+1000446348+999387275
1335+1000997480+1002511675+1003392929+1005033515+1007295029+1008987739
1323+1010025267+1010237042+1010485851+1012709239+1016048889+1019021284
1312+1022194930+1025940258+1029510448+1031870155+1033943028+1037844829
1300+1042606340+1045826550+1047701349+1049517471+1051593421+1053592525
1288+1055328424+1057072266+1058425719+1058821271+1058974170+1059581397
1277+1060265868+1060156853+1059227049+1058688229+1058304492+1056480031
1265+1053488673+1050919474+1049576148+1049536831+1051121321+1053709582
1254+1055085275+1054809561+1054839743+1056059162+1057478243+1058478539
1242+1059638784+1061345493+1063087052+1063710661+1063167969+1062752660
1231+1062404765+1061869122+1062368824+1063895629+1065105715+1065965622
1219+1066949537+1067612562+1067663297+1067648602+1068139964+1068955987
1207+1069982396+1071444666+1072491428+1072083168+1071422624+1072332472
1196+1073741823+1073709456+1072649191+1071358685+1070077015+1069710752
1184+1070220978+1069998679+1068632616+1067169254+1066193680+1065648307
1173+1065236076+1064771422+1064032841+1063104526+1062046148+1059941404
1161+1057470697+1055951835+1053840241+1050473188+1047021743+1043435767
1150+1040093536+1037366176+1034347912+1030844938+1027054534+1022505791
1138+1017460226+1012845260+1007906128+1001296824+993741135+986761597+980677511
1124+974693404+968303222+962065939+956202265+950007873+943841876+938612535
1111+933731286+929159708+925738942+922736464+919354319+916153172+913611476
1097+911999881+911079311+909608006+907300722+905328028+904917484+906346493
1084+908425720+909821866+910440511+911348770+913178891+915465524+917558254
1070+918862759+920015756+921658526+923082968+924935329+928044836+931114630
1057+933073126+934455471+936220957+938606577+940586420+940998155+940774069
1043+941739417+943328672+944237031+945257780+946982361+948226700+948617982
1030+949385952+950615696+951262736+951788450+952718056+953407094+954036065
1016+954782390+955001413+955199188+956321109+957689952+958295789+958337290
1003+958385642+958487707+958560185+958752103+958667015+957711794+956014021
989+953856160+951542720+949463195+947590779+945883375+944721343+943799581
976+941947518+938909198+935716391+933301779+931639252+930492609+929794635
962+929380120+929561018+929889552+929300295+928776368+929158913+929190585
949+928723549+929096463+930564293+932444254+934371079+936127331+937506599
935+938864024+940885963+943589792+945988518+947519790+948650945+949441452
922+949870264+950227194+950503603+951147069+952216667+952170499+949964088
908+947073802+945548983+945271680+945012149+944412467+943994676+943816857
895+942621068+940314478+938883285+938779333+938066566+936294627+935695442
881+936642621+937020599+937024570+938370478+941099525+944343961+947653031
868+951409579+955778219+960492371+965464266+969751095+972483518+973536734
854+972587072+971178516+971843825+973484410+972995730+970424148+968920675
841+969897739+970567020+969693709+970899128+975038618+977290501+974786931
827+970437750+968762415+971314239+974879067+975523625+974887705+976619434
814+979531066+980436049+979468914+979278882+980970004+982821074+984027089
800+986011896+989077321+992240641+995055371+997553282+999995495+1002519519
787+1006065086+1011789165+1017193844+1019319238+1020795507+1024078267
775+1026714681+1027885748+1030172481+1033988103+1037228667+1038889407
764+1039090062+1037411550+1035488697+1036680415+1040047567+1041894169
752+1041867362+1041407275+1040395859+1038645166+1037863495+1039922666
741+1043178917+1044264400+1043709297+1042948774+1040602868+1037107539
729+1034682999+1034141101+1034628591+1033591956+1031522260+1031983936
718+1033003096+1030668508+1027533882+1026854177+1026378602+1023219054
706+1019877617+1019526545+1019891418+1018796503+1017073213+1015076194
694+1013800382+1013444048+1011677569+1008707954+1007922113+1010764643
683+1015054748+1017113820+1016271685+1015069443+1014274765+1012790852
671+1010008488+1007475231+1010440477+1017631592+1022972331+1024810693
660+1022426959+1018791836+1017321227+1015640034+1014163963+1018500931
648+1024987817+1025573499+1022182618+1019443940+1017917830+1016421705
637+1016005105+1020504304+1027684497+1028874726+1022557221+1013689182
625+1003726427+995022706+992543063+997655943+1006828290+1009769708+998572939
611+984933363+987414396+1001898094+1010248063+1015072024+1021686094+1023447410
##END=
