##TITLE=Sample description
##JCAMP-DX=4.24
##DATA TYPE=INFRARED SPECTRUM
##DATE=24/8/2023
##SAMPLING PROCEDURE=Instrument type and / or accessory
##ORIGIN=Default
##XUNITS=1/CM
##YUNITS=ABSORBANCE
##RESOLUTION=4
##FIRSTX=4397.6552
##LASTX=599.8556
##DELTAX=-1.9287962
##MAXY=1.3974144
##MINY=0.52533048
##XFACTOR=1
##YFACTOR=1.3014436e-009
##NPOINTS=1970
##FIRSTY=0.65245134
##XYDATA=(X++(Y..Y))
4398+501328929+500758641+499123210+497581711+497035789+497007256+497487961
4384+497989092+497868000+497767609+497729458+497054566+496365477+496480432
4371+496923811+497063497+497070046+497493961+498234712+498499246+498099742
4357+498019869+498518069+498083758+496600562+495799219+495706477+495073857
4344+494260744+494526698+495319293+495413318+495233054+495419272+495613184
4330+495434340+495152494+494938338+494451725+493745094+493348522+493822723
4317+495264380+496501224+496078501+494707832+494389897+494762012+493815167
4303+491969976+491361401+492045910+492343741+491715792+491094760+491009711
4290+491224691+491602486+491679336+491081707+490099001+489669774+490972889
4276+492731932+492432545+490495390+489080617+488855378+488751919+488582646
4263+489274117+490402922+491182006+491876271+492044445+490935929+489632448
4249+489141942+488970379+488616262+488187310+488261367+488520772+488229537
4236+487599527+486596990+485252152+484306406+484439955+485462827+486692160
4222+487954377+488870309+489155773+488792817+487397875+485619093+484953040
4209+485534594+485715866+484736640+483994882+484108783+484391775+484640188
4195+484789492+484731740+484399698+483668794+483044143+483066997+483567853
4182+484119729+484135347+483517612+483052707+483209431+483511429+483744362
4168+484307459+484603457+484120829+483783062+483632658+483054677+482567148
4155+482454437+482192513+481639537+481327327+481517712+481457533+480788457
4141+480257282+480102802+479813170+479081258+478376231+478201829+478154198
4128+478136336+478423037+478904383+479327702+479013430+477990055+477497076
4114+477996375+478539916+478409343+478091316+477821194+477209413+476612287
4101+476606562+477196406+477760236+477166545+475526534+474646646+475145441
4087+475507161+475036486+474892036+475478674+475940052+476143032+476282673
4074+475916648+475043172+474052314+473386398+473943175+475097536+474593656
4060+472590139+471643980+472521670+473704288+474557887+475682433+476247316
4047+475237680+473849379+473317654+473269107+473035900+472625771+472473718
4033+472217565+471165107+470084529+469947590+470322408+470510458+470599217
4020+470994919+471186083+470596469+470263053+470598942+470441623+469931011
4006+470134083+470729056+470788503+470016060+469058726+469037338+469687773
3993+469814041+469360495+468724715+468148061+467924883+467991750+468093652
3979+468539458+469618571+469972963+468814160+467870108+467749748+467608001
3966+468109407+469421361+469763891+469096830+468680107+468222301+467802096
3952+468196883+468827396+468692197+468990806+469752899+468326493+465982095
3939+465562440+466447641+467671386+467921906+466490921+465679227+466467472
3925+467170026+466887905+466816734+467228008+466300810+463824419+462234694
3912+462433736+464135989+466808627+468705204+468297869+466699580+464639364
3898+462649632+462891175+464742228+464972139+464053230+465532854+467024844
3885+465893658+464422644+462006250+460289296+462001899+463549717+463134505
3871+461654240+459784363+460319844+461535208+460655641+459600481+460395046
3858+463111697+464725695+458421664+452221688+454690796+458789291+461435413
3844+462320751+462509167+462078108+459391638+457238175+457438042+457459567
3831+457488512+458495812+459376341+460514352+461125858+458567121+457476696
3817+457906427+456639172+457311087+459441513+460049264+458368308+458099606
3804+459920981+458417221+456457671+456959810+456326961+456725594+459359121
3790+461351601+461739196+461218005+460380023+460395458+460558547+459923134
3777+460157991+461468937+462232725+460732812+458597623+458915009+460075049
3763+461107905+461987060+461561772+461571664+463860966+466320045+465503131
3750+463983982+467353084+471460510+472673585+475955669+482255761+487862962
3736+488697509+484951986+484035826+487194940+490849644+491875401+489195435
3723+485132434+481652773+479596038+479703116+482350519+486695000+491751836
3709+498146274+506080241+515082329+524611974+534514056+544531688+553802478
3696+561801342+567709900+569564571+565434566+560333580+559277870+559105025
3682+558111740+556662297+554666291+548317331+539946992+537994175+535513341
3669+530713391+530442262+532173917+533184515+534860937+538219230+542091845
3655+546944922+553870764+560196641+561641825+561039157+562529040+563968316
3642+563842140+562040733+559916307+558319208+557310580+557751531+556300761
3628+548813745+544467295+544488133+544068433+540401455+533977431+530637731
3615+530350252+530481832+531591584+531786871+529373087+527946865+528546005
3601+528942440+528741567+528884963+528283578+526382879+525891640+526930496
3588+524347532+518215246+515290897+515532349+516048273+515384418+513940288
3574+513354796+514831122+517899372+519508698+516459455+513298738+512902349
3561+512116348+510123502+509390766+510329872+510859307+510711422+511706494
3547+513202514+512486770+510298683+509507966+510694339+512661813+513589148
3534+513365100+513268190+513344262+513863758+515476199+516354347+515057643
3520+513481475+512989138+513318294+514423970+515841491+516378162+515727543
3507+515374526+516104331+516430327+515405074+514392735+514194655+514005094
3493+513438241+512957857+512931843+513472224+514189984+514617333+514506500
3480+514139605+514399605+515172278+515555798+515810027+516282626+516212370
3466+515970781+516647551+517097388+516240857+515976506+517381753+518385160
3453+517723870+516758064+516351919+516077538+516087339+516294579+516299388
3439+516755224+517294918+517110807+517069496+517199885+516883736+516930222
3426+517568566+517414499+516158740+515399669+515604253+516277359+517300002
3412+517730236+517249898+516749270+516627079+516761499+516483545+515561660
3399+514833870+514749738+514885852+514283185+513456011+514331640+515582224
3385+514914614+514303977+514848617+514401254+513116275+512575436+512524783
3372+512640333+513449966+514766042+515731620+516180219+516081202+515433240
3358+514915163+514524361+513755627+512973841+512724374+512459107+511477134
3345+510632557+510665349+511241361+511949961+512372593+512391096+511648055
3331+510269830+509587060+509899546+510044957+509502882+508952059+508690547
3318+508509046+508295441+507688514+506936634+506731363+506607432+505590788
3304+504084967+503376825+504032299+505300332+505557080+504381744+503068645
3291+502414774+502086580+501831571+501500537+501145230+501330990+501825618
3277+501967777+501528887+500540959+499689513+499279521+498931862+498461737
3264+497834658+497286263+497160133+496924772+495918617+495045187+495105092
3250+495428844+495472353+495198567+494530362+494065961+494450946+494782851
3237+494295368+493598126+493309913+493318157+493158960+492921173+492623938
3223+491905903+491135200+491046579+491310976+491207883+491138910+491567725
3210+491968327+491803360+491455288+491001009+490229344+489714565+489422735
3196+489371623+489851229+489501051+487528402+486289955+487459749+489042879
3183+488962090+487657829+487253929+488464347+489281033+488276755+486985090
3169+488127268+490320530+489643302+486672696+485757680+488070477+489363608
3156+487319742+485606315+487779975+490875704+489554452+485518244+485669609
3142+491734707+495148875+490374664+485040790+486781880+492371907+492508387
3129+486570152+483975555+489666339+495200949+490959745+483445891+484438444
3115+493602248+497358075+489364387+481870135+485405533+494176978+493428853
3102+483411633+478849791+485712935+494100036+490650282+480879734+479577672
3088+489197587+496357004+489370524+478861378+478144305+485421883+488940152
3075+482889160+476250888+477675050+485193438+487477794+480191240+473686701
3061+475312424+482194116+484088998+477882244+472606352+473075516+476123659
3047+476378255+473254772+470921320+471235592+472537104+472447888+470976920
3034+470051966+470610529+471996769+472494145+471470357+470837050+476695595
3020+503216941+553582232+590644920+578918715+543836049+515874649+499230837
3007+489083365+482021088+477419080+475466629+474671606+473020557+471320594
2993+471641965+475265846+479125042+477805119+473310968+471258720+474224930
2980+480227100+481635141+476752752+472700148+473740698+479224930+482891908
2966+479575657+474261660+473994195+481442694+488840723+484624204+474816193
2953+471117614+475676387+483417908+484155178+477179415+472184086+474164521
2939+481271040+484737739+479435238+473088202+472466436+478243643+484990320
2926+482880320+474420033+470158311+473052982+478898613+478997126+471979182
2912+466907370+467996467+472580018+475603567+473569640+469550972+468037869
2899+470337201+474329809+474634051+470413456+467110534+467628473+470650923
2885+472662501+471101905+468377284+467733994+469346572+471335937+471364928
2872+469584359+468160610+468479370+470254488+471611051+471428405+470869842
2858+471315831+472618397+473604630+473258253+471646179+469951621+469015171
2845+468463295+467809241+467095695+466509011+466313725+466468937+466443290
2831+465996155+465374619+464959361+464968383+465170768+465246336+465029754
2818+464482686+464028453+463914276+463661192+463262558+463186945+463309685
2804+463364919+463340050+463369270+463455463+463237140+462843224+462800265
2791+463032099+463181678+463230866+463390108+463558923+463479462+463332310
2777+463228621+463069150+463096812+463312250+463274833+463093194+463232927
2764+463601241+463809489+463793093+463885927+464283598+464626037+464615136
2750+464436979+464426170+464796546+465404663+465794732+465786534+465784153
2737+466023864+466174450+466087020+466039939+466400468+467053239+467447476
2723+467642121+467875237+467858933+467614092+467563164+467846384+468179571
2710+468205126+467982315+467885405+467952500+467977186+468126765+468449555
2696+468572021+468539183+468626064+468723203+468772437+468848601+468963968
2683+469223602+469499815+469471969+469220487+469197359+469620312+470073766
2669+470192431+470132114+470035707+469998702+470117000+470234658+470209835
2656+470178462+470291906+470504871+470679456+470901214+471409765+471997456
2642+472296523+472369984+472435018+472601314+472895389+473301441+473683404
2629+473903422+474032437+474275400+474790958+475424768+475910969+476304015
2615+476785773+477276920+477731474+478270069+478662245+478838799+479166994
2602+479586695+479821872+480031539+480469056+480997987+481497882+482138058
2588+482869832+483452119+483761536+483937038+484370936+485018074+485341460
2575+485400678+485656052+485995972+486144818+486126040+486281253+486921475
2561+487624808+487948515+488202332+488721966+489344785+489784683+490182309
2548+490729834+491059311+491008795+491047999+491329662+491599646+491825984
2534+492075268+492297392+492455398+492592245+492768754+493094567+493523428
2521+493738637+493739095+493850844+494134934+494463541+494717587+494775798
2507+494713145+494711084+494692627+494572726+494584084+494976992+495515816
2494+495621657+495339857+495216429+495266853+495306149+495430630+495598437
2480+495763863+496005314+496171656+496217134+496283909+496318075+496156267
2467+495735284+495356253+495272532+495252747+495085673+494831993+494718320
2453+494791415+494834283+494717587+494381561+493977432+493768635+493702272
2440+493624872+493471354+493143160+492721169+492424163+492163064+491911262
2426+491775835+491417321+490802838+490323415+489816055+489144003+488604858
2413+488334416+488202240+487917051+487396776+486869493+486337356+485617261
2399+484902386+484677605+485373336+487739306+493163082+503471675+520352359
2386+544249338+573688759+605643041+637344377+668462876+700335041+733137335
2372+765657417+797426809+827908154+854420112+872968745+882578538+886988969
2359+886065114+872628917+845600624+812164336+780891769+763992491+769581189
2345+790347495+802168824+795523317+782779141+772348082+768538532+772858556
2332+779062746+778525067+772331503+767904676+766477995+761671816+749529208
2318+732900097+717726657+710547318+711060632+709657492+698665764+678755393
2305+656270301+638458709+626307353+615558588+603897830+591160340+577037252
2291+562382301+548878871+537022964+526699578+518383511+512385600+508203705
2278+504918507+501853051+498909878+496221119+493934015+492216191+490937395
2264+489756242+488605637+487548049+486474341+485451240+484691024+484057077
2251+483384566+482793211+482364030+482152302+482134990+482098900+482073528
2237+482184819+482274905+482395585+482750252+483253077+483813701+484333976
2224+484759540+485284807+485958462+486636973+487219214+487737336+488431876
2210+489438077+490620238+491749271+492575025+493114444+493774726+494774103
2197+495937166+497062077+498039471+498947250+499953589+501080287+502259699
2183+503379482+504454198+505645106+506900224+508070889+509177527+510247113
2170+511385994+512705734+513994652+515150294+516389932+517694788+518783015
2156+519601578+520396188+521214706+521834731+522121569+522164345+522317634
2143+522682926+522917737+522855404+522455993+521698388+520763862+519810833
2129+518842874+517776676+516571937+515144157+513319256+511275756+509467021
2116+507933629+506340241+504600983+502814278+500969408+499042695+497004417
2102+494978916+493122917+491293756+489375745+487491442+485833065+484472884
2089+483156671+481587876+479951574+478666641+477765228+476961275+476101080
2075+475306836+474805751+474688185+474853290+475227788+475791892+476403490
2062+477017562+477650319+478327272+479319550+480643046+481982479+483340599
2048+484926110+486747760+488599133+490184187+491431152+492535913+493506162
2035+494399652+495386846+496246995+496805833+497200848+497451139+497374197
2021+497027728+496588334+495610803+493809625+491873478+490297859+488797214
2008+487001990+484885441+482628976+480445240+478365743+476333968+474542545
1994+473053944+471406834+469453604+467578919+465719851+463727325+461879799
1981+460444920+459315017+458219279+457175339+456321786+455733499+455406083
1967+455042074+454473572+454003218+453797535+453738501+453700304+453701083
1954+453926139+454424247+455060531+455779619+456729396+457906289+458800695
1940+459398737+460371413+461836244+463384567+464653149+465695440+466805879
1927+468155984+469603641+470677029+471354623+471952985+472298721+472426362
1913+472647846+472945859+473108949+472949340+472597650+472319514+471990128
1900+471443152+470939136+470513481+469968520+469407484+468693480+467947691
1886+467692546+467559408+467332108+467362656+467395265+467288829+467630122
1873+468710105+469740854+469578589+469079427+469832727+471212967+472151340
1859+472352855+472184819+472109114+472256357+472766877+473734103+474515753
1846+474153621+472495610+470875887+469840558+468758606+467605848+466649751
1832+465278899+462600215+459865473+458231919+456397171+454299949+452716499
1819+451380821+449514059+447180790+444985146+442474910+439654204+437329224
1805+435888667+435125703+433391025+430254948+428024589+426837345+425071661
1792+422612445+420920772+420395825+420123185+419207620+417853942+416599282
1778+415616805+414914388+413886066+412020861+411268477+412055760+412269183
1765+412031990+411845635+411689598+412001855+412103116+412051134+412854538
1751+413567077+412658839+411493029+411282767+411030277+410082791+409039675
1738+408865869+408972809+408003613+407285991+407404198+407119879+406942637
1724+407118871+407305501+407395038+406632762+405051831+404713056+405230675
1711+405731028+405904331+405481699+405218401+405844563+405668054+404087444
1697+403652126+404070315+405319525+407306646+409018929+409937059+409702202
1684+409062254+410796978+413251202+414806165+415426923+415948389+417088552
1670+418439344+420339035+423103592+425740645+427897314+430406908+433527552
1657+436530171+438169267+437818402+439745893+443154474+446229730+449594069
1643+453345043+456797407+459665790+461569328+463328463+467559683+472657143
1630+477033729+480887245+484780057+489035322+494143773+499151742+502947552
1616+506995577+512882380+518870766+524054281+528952791+534229050+540005890
1603+546287983+552715946+559092110+565777875+573201093+581460461+590250088
1589+599320004+608388180+616991268+624578584+630905331+635743065+638593633
1576+640278756+643257011+646854832+650307884+654748084+660492819+666877823
1562+672897672+677883886+684317024+693945595+704110104+714407384+724603907
1549+734862487+744465914+752793843+758354421+762455664+773506610+786159921
1535+795457916+803812179+812420260+820290887+827423144+833421697+838248440
1522+844088803+851756083+859378755+866580810+873384873+879490137+884624832
1508+886696681+886877495+894147424+902848384+907945157+908411390+908877989
1495+914436689+921498325+925438585+924720825+924706535+927376884+930360406
1481+933205248+935694600+936326991+934023674+929981741+928379879+931969778
1468+936192525+936251606+934246989+935760917+937882870+934554941+930634375
1454+935345704+941206952+944898982+946950221+949405499+953504772+957491655
1441+960601948+963262679+964746379+967203580+972074198+975810836+978076872
1427+981956861+987016262+991143748+993157890+992919736+994551000+999800833
1414+1003603055+1004414886+1004045014+1003527395+1003367649+1004530299
1402+1005810560+1004284267+1001941197+1002304290+1003038355+1003656548
1391+1004239109+1002025467+997527927+995942736+998930196+1003810982+1007315603
1377+1008277379+1008022829+1008295790+1008897129+1008935051+1009686518
1366+1010511173+1008472940+1006107520+1007578763+1010586100+1011928281
1354+1011123504+1009525032+1008193659+1007532323+1007580137+1008098488
1342+1006657931+1001706524+997737411+997535987+999041304+1000760960+1001600911
1329+1002183473+1002999059+1003235656+1003703721+1005572223+1008159493
1317+1010315154+1012131903+1014176365+1016567066+1020385775+1027413795
1306+1035185679+1038805622+1039249505+1039940701+1040542223+1040852923
1294+1043047971+1047394192+1051701850+1054582416+1055828970+1056039095
1283+1056611489+1058554002+1060720197+1060815092+1059295852+1058491075
1271+1059094887+1060209357+1060101363+1057427625+1054123145+1053319467
1260+1053932805+1054006541+1054615391+1055527522+1055994945+1057576563
1248+1059930350+1061009921+1061026500+1060745845+1060948001+1061732077
1236+1061484489+1060686764+1060972091+1061823126+1062317204+1062029037
1225+1061251464+1061553645+1063234830+1064797396+1065951802+1066279264
1213+1065832084+1067357003+1070242331+1070838266+1069915144+1069737720
1202+1069712988+1069896733+1071516639+1072946480+1072419335+1071938172
1190+1072769696+1073540583+1073741823+1073260660+1072093064+1071598894
1178+1071404340+1069748620+1067740614+1066902678+1066316544+1065371164
1167+1064645618+1064421112+1064474147+1063945628+1062238979+1060313961
1155+1059193813+1058252921+1056851658+1055376477+1053576398+1051400036
1144+1049482254+1047077722+1043667630+1040462991+1038081725+1035991373
1132+1033290797+1029014923+1023839926+1018985337+1013508342+1007190114
1121+1002057526+998540082+994994883+990289415+984478547+979029580+975336818
1107+972043879+967591954+963385420+960411058+957030277+952591268+948384550
1094+944787965+941461135+938542373+936599311+935785098+935258228+934573077
1080+933177128+930828562+929156903+928223431+926726540+925486857+924824697
1067+924241952+924392538+924873060+924892662+924316329+922684149+921192571
1053+920961196+920614132+919440124+917745840+916129690+916364821+918075684
1040+918714578+918174518+917542127+916954436+916968267+918145939+919876404
1026+920812990+920277510+918970319+918206394+918964457+921219135+923618080
1013+924637746+924467649+924180948+924077717+924380081+925135854+925662633
999+925400571+924609442+924630876+925683700+925725835+924466000+923592249
986+923035884+921766889+920052088+918838968+917900274+916234844+913813641
972+911250645+909137577+907713690+906349341+904384753+902188514+900730828
959+900368376+900254520+900168601+901469838+903759324+905212705+906338899
945+907775152+908536787+908825869+909898204+912014112+915068164+918945954
932+922287989+924377425+926466036+929265813+932434911+934641043+934918767
918+935385915+937661753+940243160+941963274+942511395+941672635+940076910
905+938220774+936447442+935156005+934183512+933393940+932140516+929905989
891+928552358+929155254+929411362+928449585+927868581+928036754+928607958
878+929045703+929248226+930483238+932607665+934539461+937627495+943646199
864+950925929+957133966+963054019+968817715+972479426+973364444+972775287
851+972791133+973652244+973920167+973426272+973261213+974430092+976810717
837+978971508+979602433+977878930+974290130+972504616+975420080+980564942
824+984520590+987106944+988715308+989749264+991556670+993563760+993845423
810+994288298+997637111+1000697666+999984211+999031961+1002160665+1007608532
797+1010646646+1011393717+1013558355+1017345188+1021343430+1025000836
785+1027450159+1029402107+1032620485+1036511740+1039141145+1040937285
773+1042184754+1042034259+1043753640+1048350198+1050185450+1049397068
762+1050737693+1052443884+1051397105+1049319302+1048875786+1050583076
750+1052817786+1051976735+1047772674+1046133258+1049508543+1053388714
739+1053837543+1052751835+1053727534+1053616426+1049474285+1045952352
727+1045853518+1047222996+1047400146+1043871252+1038874137+1037976388
716+1039140778+1037816550+1036276883+1035677285+1034934335+1034625743
704+1033982360+1032725547+1031265938+1029509368+1030526927+1036303080
692+1041426142+1041258976+1036904236+1031749482+1031863246+1036949943
681+1039076110+1038346443+1040447969+1045444351+1049155891+1046529784
669+1037279879+1031838057+1035561413+1039301532+1038433186+1033010966
658+1029716379+1032815588+1036639061+1038238540+1039930534+1039546373
646+1035422826+1034206042+1038291301+1038061482+1031426325+1028644319
635+1034582234+1042781422+1041727498+1028795363+1014977478+1014047853
623+1021956676+1021470750+1016017937+1010085885+995825399+985760274+994158779
609+1014206134+1030759585+1030879029+1017907232+1013901297+1030272468
##END=
