##TITLE=Sample description
##JCAMP-DX=4.24
##DATA TYPE=INFRARED SPECTRUM
##DATE=24/8/2023
##SAMPLING PROCEDURE=Instrument type and / or accessory
##ORIGIN=Default
##XUNITS=1/CM
##YUNITS=ABSORBANCE
##RESOLUTION=4
##FIRSTX=4397.6552
##LASTX=599.8556
##DELTAX=-1.9287962
##MAXY=1.453676
##MINY=0.43299234
##XFACTOR=1
##YFACTOR=1.3538413e-009
##NPOINTS=1970
##FIRSTY=0.68003511
##XYDATA=(X++(Y..Y))
4398+502300479+503988051+504953064+504080110+503024888+503286668+504410660
4384+505233996+505138679+504470536+504365841+504841414+504386710+502959112
4371+501853303+501542434+502023421+502599505+502236773+501258684+500783860
4357+501343303+502329492+502185570+500965733+500910568+502146959+502468043
4344+501728005+501400933+501422946+500847698+499923498+499339533+498900018
4330+498733819+499531532+500767923+501268194+500828415+500101056+499586212
4317+498973542+498212943+497433678+496469237+496411915+497783467+498865501
4303+499060142+499276267+499478172+499693901+500260475+500395680+499549846
4290+498439855+498126432+498676673+498465214+496686375+494918234+494474405
4276+494909913+495541382+496282609+496779535+496410154+495457953+495163505
4263+495669367+495858504+495609535+495441487+495581534+495960645+495944796
4249+495413178+494817942+494242826+493593438+492876646+492604827+492904074
4236+492912923+492775869+492911734+492500617+491742043+491639022+492079901
4222+492601745+492764246+492437219+492305052+492808977+493494335+493665377
4209+493003573+491986918+491455652+491504785+491633783+491689608+491831549
4195+491514471+490443971+490110472+491152707+492182835+492409658+491945841
4182+491053780+490348919+490221903+490182587+489896020+489775344+489688568
4168+489359911+489091571+488983398+488927529+488843219+489016462+489857673
4155+490740709+490386605+488793205+487569713+487536473+487942132+488335199
4141+488770663+488772248+487848180+486813341+486827253+487755152+488956410
4128+489472399+488522927+486953257+485882933+485660292+485899091+485730558
4114+485085352+484302256+483724367+483902101+484626026+485072100+485232532
4101+485734168+486153607+485850089+485461997+485436550+485681777+486243729
4087+486339574+485256306+484006135+483235895+482336349+481763787+482251114
4074+483263279+484018374+484134296+483861156+483516518+483102451+483006782
4060+483497895+484215128+484484525+483968581+483055651+482108293+481574958
4047+481723415+482025611+482408640+482978957+483264776+483147534+482687371
4033+482193924+482294524+482569688+482316933+481892344+481721169+481731207
4020+481638356+481547221+481606084+481110260+480194513+479873429+480078812
4006+480337334+480415481+480011187+479316320+479032658+479235928+479697235
3993+480438551+480633895+479798628+478944561+478921800+479519677+479661486
3979+479022224+478476474+478293500+478450234+479037721+479298973+479024513
3966+479039394+478942096+478017235+477155552+477349092+478264179+478544979
3952+477779801+477126319+477589431+478819175+478692291+476644539+475658789
3939+476590915+477745241+478104363+477171490+475920394+475732886+475570032
3925+474776282+474887052+475630348+474786540+472878836+473022978+475189205
3912+476576870+476608613+475948527+473404026+470043057+469901512+471570285
3898+472813853+474493941+475666450+474496583+473702788+475727867+476295322
3885+474093390+473007965+472163760+472176836+473468172+472711624+470859613
3871+469565591+468755111+470095580+470686721+469811170+471556373+474825195
3858+476635777+474465236+465502402+461413458+466496120+471584022+473582993
3844+472853785+470934193+468504205+466187980+466766354+469328950+470916230
3831+471681188+472075531+471664150+471556021+469855108+465045013+464787855
3817+467500096+468867730+471493856+474451588+474970834+472173798+469940915
3804+469163147+466136778+465417916+468278130+470723571+472924139+474698179
3790+475366367+475536176+475425846+475419815+475509276+473991909+472242876
3777+473207800+474805207+474603787+472549079+471095726+471568216+472390980
3763+473332043+473201152+471019340+469991898+470820958+469856737+464579435
3750+461419710+464365247+465913520+464633147+466861054+470456155+470409796
3736+465983434+463254771+465399865+469072761+471680263+471765058+470380694
3723+469860523+470690816+472647609+474758011+475447903+472156716+466096361
3709+465572844+469414581+472451472+473162805+472863603+473601175+474796534
3696+475703564+475770352+473373868+468529036+466991989+470363744+474114302
3682+475387895+473957965+471260957+466833098+464061905+465268314+464074717
3669+462366012+465152393+468250965+468776243+467774953+466420087+463852912
3655+461916987+462321941+460261421+452550432+449176916+452361559+455371286
3642+455859626+454142028+451398836+448449337+445860853+443643468+437942984
3628+429060147+427135492+429012246+429027611+425422956+420412806+418380859
3615+417394185+415197712+412831078+410229430+407944685+407084939+406021351
3601+403564903+400993105+399007474+396579511+394373793+393754386+392501794
3588+388283368+385064956+385119857+385564655+384800930+383179353+381541134
3574+380412211+379910839+378804106+374467866+368725667+367752531+369417915
3561+369870682+369509754+369497735+368831727+366851071+365462084+365326373
3547+364478779+362292079+360550420+360088826+360036259+359696596+359007430
3534+358144338+356964785+355097079+353607998+353566746+353601769+353029140
3520+352938710+353184355+352778212+351574687+350020140+348430570+347228827
3507+346776391+346359197+345548409+345037109+344793049+344360865+343963505
3493+343615653+342584975+340874443+339659779+339408807+339315713+339132387
3480+339339201+339522461+339223478+338509877+337487696+336629425+336122792
3466+335843225+335575171+334916802+334179075+333886498+333722588+333221062
3453+332559941+331931905+330897881+329615461+329068874+329198113+329554968
3439+329803079+329365347+328837648+328806499+328668895+328258415+327860836
3426+327580014+327279270+326893468+326584579+326391502+326515876+326982709
3412+327283497+327175698+327147499+327419252+327356470+326951252+326988983
3399+327338001+327257015+326905355+326969479+327626154+328695949+329641216
3385+329764578+329465441+329805566+330942568+332340668+333466333+334126485
3372+334793132+336036721+337537468+338631984+339487306+340466671+341637375
3358+343208982+345205224+347238623+348705272+349563345+350349413+351009851
3345+351446791+352188458+353545393+355320578+356920803+357637111+357712946
3331+357855635+357768794+357415923+357512054+357966538+358308072+358281238
3318+358038125+358207142+358501568+357928807+356876248+356750201+357699782
3304+358428330+358119837+357634249+357991633+358935953+360086999+361188142
3291+361803563+362143623+362635044+363208289+363928119+364984025+365818697
3277+366064122+366275735+366849089+367958465+369446268+370612569+371241309
3264+371581060+371752675+372077149+372595911+372959436+373443505+374282559
3250+375157626+375618361+375351826+375267648+376153589+376936685+376984982
3237+377045562+377406446+377831872+378097087+378136799+378617610+379835774
3223+380947659+381272529+380893330+380346744+380023150+379991892+380302805
3210+380913362+381522995+381729478+381611796+381609683+381784379+381925131
3196+382076406+382503813+383188158+383782910+384136177+384336761+384795251
3183+385760484+386251906+385917702+385913607+386326178+386721270+387401477
3169+388199058+388540306+388541979+388858704+389482689+389980979+390271949
3156+390432425+390631908+390861593+391092555+391468188+391788963+391677357
3142+391405890+391622368+391959697+391575788+390821925+390758043+391581247
3129+392257844+392014378+391443973+391353763+391723981+392075663+392074254
3115+391910872+391835499+391719622+391761755+392244636+392645231+392416691
3102+391805561+391447231+391677357+392222491+392834368+393516908+393976059
3088+394082647+394210499+394455461+394528501+394621044+395157285+395641486
3075+395542911+395479866+396001886+396581140+396478735+395877379+395536484
3061+395479558+395409203+395739357+396428149+396555957+396107197+395952620
3047+396390066+396866695+396893727+396801360+396824562+396477106+395851580
3034+395698456+395935054+396005628+395949362+395954646+396115562+396389141
3020+396511622+396644010+397008151+397155992+396848468+396632607+397008547
3007+397789530+398366671+398506719+398558054+398613131+398579274+398853294
2993+399646736+400703896+401846071+402722767+403011624+403208157+403947491
2980+404774350+405033312+405062018+405385699+406026018+406427582+406096460
2966+405559559+405299275+405072320+404960317+405088609+405111019+405130390
2953+405487928+405869548+406102315+406483583+407006308+407371682+407281384
2939+406734709+406234747+406208067+406558736+406958407+406996314+406532056
2926+406111341+406046930+405760715+404920825+404175063+404121219+404463436
2912+404788790+405172303+405498538+405637662+406089768+406899896+407346279
2899+407343373+407312555+407281032+407255056+407447275+407692546+407707691
2885+407718654+408028951+408682390+409367439+409582816+409513386+409714631
2872+409897472+409435504+408764367+408789770+409335036+409686938+409791545
2858+409764512+409536676+409259575+408921893+408320449+407892866+408231648
2845+408969441+409506650+409890956+410285476+410773728+411463752+412197671
2831+412609273+412748044+413113506+413640722+413906464+414100180+414476869
2818+414982996+415564099+416069433+416448588+416757300+416833906+416803396
2804+417178016+417938879+418575587+418894030+419106193+419448981+419883345
2791+420101892+420036909+420075784+420473914+421110491+421728708+422049220
2777+422100334+422241042+422527125+422748534+423004679+423451942+423958113
2764+424348934+424629030+424897018+425226643+425765833+426362830+426549458
2750+426430499+426491871+426861516+427417305+427974238+428307825+428480276
2737+428900727+429591588+430061041+430132936+430263166+430893755+431801753
2723+432506395+432935695+433270559+433626952+434049341+434522184+434955623
2710+435252360+435511719+435960083+436457140+436732877+436966525+437407801
2696+438052742+438671884+438956294+439113160+439509089+439839022+439829820
2683+439919018+440419113+440912824+441039443+441119835+441385226+441574671
2669+441612842+441679718+441777192+441818665+441849263+441943348+442217147
2656+442791427+443420343+443778849+443934922+444049082+444177815+444272428
2642+444309146+444547328+445151898+445877760+446405635+446652226+446851049
2629+447270180+447745092+447940657+448066044+448563849+449338800+449965779
2615+450365362+450851413+451418516+451752191+451921868+452175504+452666442
2602+453461028+454308667+454922746+455450358+456014027+456408282+456779644
2588+457358282+457907687+458231676+458391800+458725828+459542164+460545171
2575+461122400+461088940+461000051+461356136+461833601+462087809+462355533
2561+462664158+462751726+462872226+463416391+464139348+464724501+465294246
2548+465830222+466085619+466120664+466274316+466685213+467187510+467646440
2534+467928561+468050822+468322860+468811949+469401901+469971690+470365549
2521+470757295+471260428+471519259+471495881+471666703+472158345+472639641
2507+472872804+472990486+473282733+473705518+474035055+474279929+474587189
2494+474993156+475314195+475445086+475608599+475851184+475901991+475898425
2480+476129915+476376154+476371708+476178828+476050932+476142330+476321297
2467+476463855+476519240+476390155+476066121+475635676+475338410+475402248
2453+475529088+475426859+475371121+475351310+474996854+474366177+473769048
2440+473260456+472801878+472572853+472646949+472763355+472660949+472372797
2426+472002844+471491610+470952948+470502295+470103196+469844630+469579547
2413+469116611+468625541+468190869+467766236+467391263+466968919+466326663
2399+465587373+464996760+464628040+464391178+464111787+463705336+463104773
2386+462205183+460907508+458951683+456238781+453130347+449809882+446132276
2372+442208386+438116140+433903306+430064475+426950406+424571928+423111487
2359+422790051+423760082+426236387+430212844+434780266+437705550+436980745
2345+433081819+429249372+427427475+427088736+427726237+428786347+429447666
2332+429613734+430101017+431150912+432002161+432408436+433211212+434801751
2318+436534979+438006162+439342845+440626344+441861415+443027452+443983043
2305+444758214+445511372+446075702+446277430+446353244+446638578+447261639
2291+448065515+448654147+448873838+448973602+449112021+449254754+449382695
2278+449581341+449895205+450180143+450444213+450829487+451245096+451597703
2264+451994776+452494651+453055942+453673720+454289780+454797711+455193068
2251+455555669+456031549+456671075+457283261+457753815+458227582+458820176
2237+459460803+460122342+460903017+461714906+462359848+462888076+463434222
2224+464058691+464846322+465701313+466368884+466938981+467659075+468466958
2210+469271671+470135028+471119324+472131401+472936070+473575596+474343767
2197+475337617+476450118+477580626+478620968+479458965+480311799+481487169
2183+482750813+483823030+484864604+485988860+487140457+488276732+489397114
2170+490588202+491747326+492651187+493535896+494780255+496171619+497258321
2156+498084122+499041783+500212663+501240413+501848593+502188828+502503044
2143+502774774+503000365+503146709+502965848+502559838+502235100+501831995
2129+501159317+500286583+499230392+497982422+496566535+495043533+493558173
2116+492130620+490506489+488602659+486721810+484978720+483166641+481129323
2102+478952882+476888709+474965947+473020865+471071467+469252168+467550375
2089+465844487+463996438+461937371+459952929+458253645+456607193+454908702
2075+453151612+451346885+449720597+448231847+446519839+444589197+442889781
2062+441514003+440137828+438718508+437327188+435928032+434550933+433160053
2048+431669102+430067557+428452055+426969733+425659642+424459132+423255277
2035+421936028+420492669+419059261+417752251+416533691+415321999+414083186
2021+412849569+411543396+410128918+408929553+408040706+407181004+406211765
2008+405151567+404089168+403025888+401864606+400681003+399622214+398648396
1994+397509743+396111467+394937241+394312200+393832181+393094652+392168250
1981+391395941+390807133+390045433+389027721+388062092+387249938+386286510
1967+385239564+384568119+384137278+383599100+382919422+382058883+381075511
1954+380210923+379517508+378816609+377938416+376814688+375545718+374700853
1940+374732156+374945287+374683022+374064541+373380063+372779853+372238725
1927+371641816+370643343+369313705+368391023+367710134+367205416+367414079
1913+367562910+366852656+365950886+365752548+365951459+365880378+365476723
1900+364963420+364363099+363674462+363182027+362721006+361934388+361516710
1886+361735939+361889657+361896173+361862294+361731360+361571611+361341485
1873+360716708+359002961+356649557+356321186+357907256+358942183+358983238
1859+358796346+358699312+358638027+358550063+358347079+357789684+356767459
1846+355211745+353936787+354557910+355778232+355991341+355702440+355531618
1832+354549589+352427653+351447451+352016513+352430603+352908772+353482655
1819+353479221+353032596+352393731+351296309+350016486+349629362+350059433
1805+350308248+349640479+347917289+346538495+346457684+346271145+344676842
1792+343104728+344051206+345714234+345950545+345015338+343948999+343333225
1778+343349338+342973089+340786918+337419698+336902322+339255397+341282699
1765+341821295+340854389+339988149+340386719+340747207+340970156+340681387
1751+338301941+335226461+334918012+336261255+336950399+336563584+336112138
1738+336411055+335712401+332899538+332552236+335117826+337528267+338769457
1724+338677486+338014295+336539744+332433805+328517158+330480996+334273665
1711+336388007+336323795+334263451+332121395+331452018+329596309+326238972
1697+325940166+328715475+332295717+334254624+333917888+332263446+328838022
1684+325076017+327158374+330993793+332760194+331919930+330157072+328974548
1670+327522428+328041454+330631610+331288637+329895754+329837573+330645632
1657+329878100+325849802+319825042+320416602+321833875+320995064+323136350
1643+327543648+329957413+329738426+327263289+326025401+330902592+336518171
1630+339685820+341576200+343791340+346529843+350720620+355245711+357944371
1616+361018882+367003005+372732436+376750410+380152235+383996349+387928824
1603+391827090+395992200+400002909+403314921+406424324+410072344+414046644
1589+418066423+422114819+426073225+429863583+433460533+436207907+437485419
1576+440090764+445789135+450404810+453650033+458321270+463926656+468753262
1562+471848003+471479855+471422577+480115089+489800439+497746661+504165478
1549+509976291+514424270+516291162+515939303+517083635+527965620+539995239
1535+546988467+553222506+561500994+568591477+573431950+577561487+581298573
1522+585931682+593404577+601726035+610547236+619137519+625259863+627764520
1508+626940171+631589086+645323272+656277240+663090268+666990428+671812806
1495+679926548+687151531+691107560+694351903+701602641+710676730+718265634
1481+724473521+730178539+734827542+737452303+739709752+746566939+756572272
1468+764425775+769579935+775515211+782960590+787956080+789275108+795379709
1454+807987438+819098536+828185656+836273202+844980815+854461794+863266265
1441+870970783+877811944+884555807+892394693+900743932+907702379+914425198
1427+923119691+932024630+939831905+945149580+947032233+950324697+957048396
1414+962907859+967181053+971203562+973627915+973068076+972610907+975049525
1400+977614322+977668650+976074898+975968002+979568210+982758885+981246229
1387+976781696+975996883+980771361+987079012+991267675+991993493+990263435
1373+989705622+990934220+991879729+993779025+996874251+997503475+996072179
1360+996845017+998302817+998159819+997666548+997851283+997833760+997097728
1346+995630331+993686481+991352998+988493753+987081125+987948795+989077366
1333+989749208+989985453+989551353+989274604+990905339+994371971+998003790
1319+1000905300+1002898900+1004265389+1006509674+1011414646+1017339884
1308+1020780101+1022095607+1024491519+1028278839+1031104448+1033034474
1296+1035289854+1037352839+1039455976+1042427753+1045079546+1046210934
1285+1047282271+1049334513+1051354265+1052859701+1054723599+1057137121
1273+1057973533+1056063320+1052637368+1048696044+1045875189+1045120666
1261+1044557042+1043246466+1043034611+1044910309+1046978665+1047326913
1250+1047109335+1047675514+1047595210+1046275036+1045623799+1046952337
1238+1049543991+1051165128+1050551137+1049142559+1048685301+1048588179
1227+1048084518+1048471245+1049683818+1050122056+1050077766+1050421523
1215+1050890227+1050914001+1050985852+1052506169+1055310822+1057415016
1204+1057670368+1056694041+1055761475+1055517129+1055350445+1055154264
1192+1056050728+1057919909+1059265177+1059518417+1059144545+1058137840
1180+1056391316+1055299551+1055677033+1056049319+1055633711+1054580865
1169+1053045227+1051907675+1051062370+1050049677+1049076255+1047301466
1157+1044792318+1043750832+1044590590+1045030501+1044141785+1043219698
1146+1042376946+1040830654+1039306287+1037664193+1035002186+1032388079
1134+1029862818+1026019497+1020914381+1016070341+1012565582+1009078962
1123+1004996490+1001763725+999105769+995536027+990883061+986087539+982260067
1109+979622186+976039853+969979982+963769102+959548387+957373575+956091264
1096+953025095+948023618+944327608+942009095+938292921+933777582+930330850
1082+927065418+923415372+920093234+916199987+911494278+907641183+904635506
1069+901538871+897951871+893887009+890502266+887922324+884502535+880273456
1055+877402852+876010916+874105016+871482281+868846777+866312094+864452687
1042+863595582+862563341+860102534+857602896+856956325+856767012+855198002
1028+853292808+852176828+851597442+851306604+850884744+850145366+849370943
1015+848578646+847808801+847489435+847909974+848602420+849135843+849633340
1001+850443512+851467388+851639003+850973853+850748615+851128914+851471615
988+851408745+851205608+850906141+849534105+847242095+845369832+843274443
974+839765810+836412941+834670732+833125320+830500647+827643692+825685577
961+824560441+823953406+824338460+825346310+825891708+826750398+828739683
947+830911589+833230543+836506541+839987702+842976561+846522793+851008722
934+855424826+859362188+863123092+866915607+870611264+873858821+876574100
920+879128419+881289847+882744917+884442307+885818746+885557758+885138187
907+885171559+883994384+881666184+879153866+876272256+873566751+872200614
893+871947551+871601328+870049752+867657890+866079811+865510639+864387087
880+862448080+861615543+862604462+863802330+864320431+865706996+868954113
866+871871649+873478082+875722015+879150344+883133669+887228205+891156673
853+895482963+900658873+905714327+908540024+909400651+911808714+916869275
839+921989272+926149758+930719602+934723708+935867511+935108586+935072044
826+937847463+942901772+946249886+946904293+947894092+950494022+954042720
812+958125104+962890337+967318680+970470083+974866816+981039129+984387683
799+983841228+983992414+984287919+980074424+977620309+985382325+997512544
785+1005481132+1009326654+1011400206+1014644065+1020499213+1026750069
773+1031684275+1034382912+1034243436+1034280154+1036376423+1036785604
762+1034783375+1033317299+1032044146+1033045480+1038190132+1041049993
750+1037607487+1031916558+1029006066+1030592510+1032663684+1031684275
739+1029383459+1027177036+1024979419+1024228682+1026297743+1029050797
727+1029766048+1028579099+1025066063+1019482381+1015815077+1015690306
716+1017531311+1020878191+1022714529+1019764942+1015305428+1013400850
704+1013245261+1013128679+1013952323+1015748685+1016428892+1016269693
692+1017157791+1019384290+1021437590+1021071555+1019008658+1017850501
681+1017683113+1018210813+1019572899+1019912430+1018509840+1015504515
669+1011357852+1013539533+1020454658+1020654273+1015268270+1010774328
658+1009978244+1011376167+1014372246+1017757870+1017825054+1018548847
646+1023647006+1026936213+1024639712+1019306100+1015225652+1022668918
635+1051536181+1073741823+1051587252+1016481635+999849989+998324478+1007381483
621+1013722594+1005322813+990623218+988187154+1005020880+1022178905+1022816758
608+1018372918+1016453987+1007446819+990683446+983063547
##END=
