##TITLE=Sample description
##JCAMP-DX=4.24
##DATA TYPE=INFRARED SPECTRUM
##DATE=24/8/2023
##SAMPLING PROCEDURE=Instrument type and / or accessory
##ORIGIN=Default
##XUNITS=1/CM
##YUNITS=ABSORBANCE
##RESOLUTION=4
##FIRSTX=4397.6552
##LASTX=599.8556
##DELTAX=-1.9287962
##MAXY=1.7251346
##MINY=0.56609088
##XFACTOR=1
##YFACTOR=1.6066568e-009
##NPOINTS=1970
##FIRSTY=0.81607604
##XYDATA=(X++(Y..Y))
4398+507934262+507491045+505822835+503836541+503279469+505276670+508267926
4384+509602806+508207456+506258038+505648917+505196537+504490663+504037059
4371+503931625+504504129+505273479+505685162+506251842+506969922+506793333
4357+505896438+504941299+503433094+502260557+502975706+504288476+504085101
4344+502535977+500879935+500142972+500543265+501443573+502526739+502886113
4330+501676441+500417390+500547606+501260900+501454109+501234077+501681820
4317+503258731+504127579+502709376+500617314+499712258+499698420+499827634
4303+500129320+500747159+501363588+501948187+502600083+502670533+502119768
4290+501849505+501524819+500198508+498647158+498604458+500082538+501014306
4276+500684425+500437868+500251151+499394212+498686297+498891304+499336820
4263+499161418+498567211+498084781+497980720+498118318+498078697+498404385
4249+499406417+500311993+500714178+500036017+498257957+496636379+495684616
4236+495257315+495591944+496489692+497236078+497762914+498001050+497636593
4222+497124374+496667208+496327015+496310951+496182108+496153616+496623135
4209+496963106+496660085+495842136+495388978+496038685+497345518+498407019
4195+498153599+496059905+493591664+493137429+494934409+496678672+496826955
4182+496042840+495666957+496077972+496367675+495920192+495046150+494162982
4168+493348335+492606883+492104197+491892031+492242093+493198419+494246491
4155+495333404+496123232+495707728+494359456+493131902+492529198+492447359
4141+492287947+492240460+492940881+493525295+493365140+493284636+493426241
4128+492980910+492354538+492892876+494269306+495183377+495197586+494709443
4114+494499540+494016442+492312098+490698682+490487071+491264620+492343001
4101+492417272+491061765+490199892+490588907+490806416+490313970+490292527
4087+491286211+492023953+491431601+490119313+489577452+490054205+490466445
4074+490532295+490511519+490316863+489986130+489623862+489271315+488984172
4060+488953343+489522361+490126807+489712417+488733126+488218309+488429994
4047+489181499+489956117+490322762+490370656+490423855+490150773+489442673
4033+488913462+488509422+488195011+488049845+487908203+488191339+489147183
4020+489891899+489569105+489085043+489274283+489467492+489066085+487926974
4006+486758370+486392356+486393951+486123206+485903471+486401667+487209080
3993+487590120+487478267+486859575+486030274+485469715+485609910+486138676
3979+485985273+485489377+485405089+485391140+485368695+485494719+485809278
3966+486184159+485978892+485037999+484336688+484539394+485034586+485165098
3952+485034734+484834921+485145102+486336522+486716820+485350925+484435889
3939+484455032+483976535+483408519+483363518+483397464+483873698+484774710
3925+484894650+484701366+485019227+484038230+481589391+480966469+482489588
3912+483686758+483968633+483922445+483059904+481299243+480106191+479704191
3898+480023684+481534263+482824810+481910071+481228534+483096965+483516884
3885+481723354+481424599+480683519+479878183+481301061+482705984+483337067
3871+482821583+481241221+481459917+481339495+479389632+479055115+480624755
3858+482341602+481966387+475982427+472837360+477317530+481960228+483358696
3844+481763050+479685790+477367687+473790978+473115859+476285930+479507272
3831+481533261+482628559+482282429+481490004+480035481+476719019+476707889
3817+478783182+478879045+480028507+482496303+483180103+480479254+478307802
3804+478115297+476197895+475961095+477918675+478338074+479151942+480915533
3790+481652756+481587982+481507997+481462663+481485478+480585801+479614005
3777+480922174+482862577+483106091+481282289+479512911+479084831+478473743
3763+478491328+478844914+477602447+477365461+479615118+480400642+475641380
3750+471189368+473295193+474986887+473741415+475874433+480173525+481453425
3736+476793253+471110126+471667272+476302068+480239264+480988691+479570525
3723+478590864+478922970+480300736+481697645+482116710+479910867+475606878
3709+474879413+477330922+479517808+479753829+478579548+478664356+479860599
3696+480808986+481260179+480180017+476592142+475040013+477774918+480568328
3682+481081623+480130045+478740667+474847100+471444643+472236994+471021571
3669+469031160+471019123+473283025+473713442+473092635+471889566+469952354
3655+469115819+470125604+468714375+462091244+458856473+460915406+462408882
3642+462039269+460878010+459276206+457042428+454945284+453159508+447820840
3628+439737325+438675973+441176712+442092193+439598391+434994164+432629539
3615+430946934+428427757+426953163+425086364+422397127+421622435+421708800
3601+420353590+418434593+417263763+415460402+413234452+412911212+412514146
3588+408300233+404049518+403649224+404698816+405102820+404222953+402541498
3574+401210291+401033479+400911240+397863148+392501294+390601440+391394904
3561+391361181+390423552+389970431+389621556+388464489+387347155+386886280
3547+385998734+384276174+382901190+382492957+382304942+381920898+382047515
3534+382549941+382085467+380562015+379306451+378530387+377592276+376733036
3520+376135119+375618632+375238595+374851360+374095440+372859465+371986758
3507+372482395+373196876+372584861+371722060+371533451+371017892+369704529
3493+368365865+367647192+367189767+366426909+365557356+364653339+363601966
3480+362807908+362407021+362357532+362502142+362283817+361926150+361942102
3466+361733534+360701267+359321868+358420633+358335640+358514307+358236773
3453+357779830+357408251+356620648+355641098+355221513+355157481+355128953
3439+355124056+354786718+354308889+354489188+354978963+354720126+353953336
3426+353745993+354024306+353690975+352689648+352340885+353101183+353820412
3412+353712307+353311123+353037188+352837560+352845240+353199420+353759051
3399+354022785+353744991+353267421+353081149+353769216+355103429+356060868
3385+356349940+356329647+356395608+356696589+357017974+357434108+358283628
3372+359585045+361040051+362427240+363636616+364507504+365312617+366422309
3358+367603749+368753916+369982026+370755272+370870648+371389768+372825000
3345+374213821+374860783+375323068+376177262+376932589+377229934+377436387
3331+377651411+377773391+377718225+377455308+377403963+378141371+379293541
3318+379693612+379301703+379180799+379604575+380053876+380340982+380395405
3304+379938796+379403427+379899398+381336744+382151094+381754622+381313483
3291+381634163+382451444+383491725+384285819+384574669+385037325+385723425
3277+386091332+386340040+387091138+388415222+389252833+389339607+389674310
3264+390172024+390350876+390542973+390824736+391212936+391951011+392592890
3250+393038592+393571736+393636287+393287783+393322025+394032314+394910845
3237+395093110+394890107+395049594+395390270+395517184+395618426+396036267
3223+396379391+396411816+396694803+397392627+398122244+398569950+398481173
3210+397932077+397420970+397500621+398245300+398941121+399274266+399639427
3196+399964076+400094218+400161329+399936586+399497785+399831597+401220642
3183+402642406+403245814+403240992+403372766+403559297+403673524+404238498
3169+404839791+404808368+404650514+405128084+406148146+406887594+406895422
3156+406694311+406731001+406800746+407023857+407644701+408234828+408340930
3142+408324310+408728832+409264498+409402060+409063165+408712769+408777914
3129+408974128+409087130+409110910+409241052+409751306+410003390+409580578
3115+409367039+409792522+410042863+409980760+410123182+410076883+409706194
3102+409600723+409999124+410645603+410820338+410363543+410011886+410009734
3088+410097843+410335163+410804942+411115160+410965764+410880660+411437620
3075+412111033+412236872+412315558+412613162+412363675+411577964+411089970
3061+411049866+411327475+412073712+413081754+413678373+413447212+412808746
3047+412720155+413296889+413563701+413229258+412912993+412581480+411953550
3034+411653608+412216430+413013864+413257342+413094516+413080790+413380769
3020+413684012+413643463+413464166+413505160+413509871+413390117+413611225
3007+414177237+414755604+415141503+415047495+414653509+414953525+416295862
2993+417694032+418639266+419589620+420467038+420773880+420796473+421155958
2980+421683091+422029517+422240089+422147973+421733026+421536552+421648849
2966+421520117+421207117+421123608+421132549+421078941+421167384+421544973
2953+421919335+421982031+422071105+422595938+423020308+422804692+422639455
2939+422881671+422843497+422572381+422986326+423888600+424005572+423212219
2926+422204474+421528130+421507615+421499750+421150393+421237315+421877154
2912+422027662+421478826+421250856+421710359+422471918+422962138+422988997
2899+423164993+423437816+423173414+422741810+422823018+423159910+423325778
2885+423384690+423473875+423891716+424573031+424822964+424523060+424189803
2872+424110264+424362126+424875162+425402036+425829374+426047921+425866361
2858+425422848+425160005+425081170+424697720+424189358+424186650+424621111
2845+424971099+425126393+425479905+425951057+426202251+426583773+427329417
2831+427987990+428087340+427749632+427654140+428210359+428958266+429298794
2818+429470152+429942676+430589341+430959436+430863611+430760402+431148008
2804+431764660+432180387+432486598+432808799+433014548+433229942+433641773
2791+433948392+434000442+434100126+434333698+434614089+434858568+435086687
2777+435516808+436036448+436404317+436616075+436593927+436541062+436889121
2764+437468674+437717531+437604715+437599632+437917752+438474824+439177397
2750+439728644+439771827+439535027+439588671+440046801+440646240+441063302
2737+441130784+441093426+441169218+441333231+441681586+442135153+442445408
2723+442783005+443291218+443844283+444473883+444985287+445078589+444970447
2710+444979128+445132086+445450799+445958011+446423820+446766537+447230528
2696+447775691+448191640+448463684+448525231+448372533+448392047+448915730
2683+449642787+450055546+450143915+450233842+450352186+450344210+450332932
2669+450477282+450773143+451205675+451692742+452014016+451980813+451804669
2656+451928949+452435307+453066353+453482525+453500555+453413893+453677329
2642+454222196+454498358+454393628+454493535+455062478+455696826+456006154
2629+456037688+456093336+456290440+456649999+457170900+457697032+458158167
2615+458491164+458781386+459357007+459947059+460057390+460056166+460405412
2602+460982406+461688614+462417452+462855104+462974487+463085560+463294870
2588+463434806+463623007+464147246+464849114+465399619+465762443+466016160
2575+466261345+466702558+467242750+467423457+467252581+467358460+468013064
2561+468605268+468668855+468621109+468849191+469217877+469574653+469991975
2548+470425694+470737879+471089462+471421753+471471280+471533309+471931450
2534+472388171+472558305+472598223+472901615+473592872+474353801+474752721
2521+474916511+475215600+475537096+475608659+475520068+475543551+475762692
2507+476265192+476949327+477328363+477473344+477815949+478233864+478461612
2494+478515331+478599062+478797094+478960105+478926605+478723120+478787078
2480+479306643+479742922+479891057+480045758+480217042+480324108+480347888
2467+480367513+480465750+480233996+479627731+479321408+479386219+479401875
2453+479255002+478971866+478673519+478588118+478603254+478412642+478221696
2440+478219878+478164750+478078866+477970798+477526172+476874870+476479140
2426+476375041+476373446+476226239+475671170+475095994+475049844+475194305
2413+474959323+474490397+474267843+474342708+474276153+473747313+472982601
2399+472430834+472247604+472181680+471846680+471162657+470422912+469887394
2386+469430674+468719754+467639964+466137287+463899873+460832750+457412338
2372+454075731+450844410+447482242+443745713+440165405+438116749+438149989
2359+439024254+439779766+441165731+443968786+447535107+449869423+449419677
2345+446660249+443779175+441900505+441143101+441808018+443002072+443479790
2332+443350465+443455045+444120074+444976717+445690901+446530701+447915590
2318+449681815+451171693+451905057+452197987+452754651+453693987+454616442
2305+455107775+455198704+455352069+455676014+456011162+456424292+456921672
2291+457357172+457696105+457981652+458198419+458276326+458239450+458412997
2278+458917278+459289710+459222858+458893312+458649834+458753228+459185908
2264+459721908+460151806+460438318+460696302+461166377+461831184+462280781
2251+462466237+462720473+463192515+463770659+464166612+464290744+464426969
2237+464737670+465060872+465411639+466038531+466735538+467124962+467464154
2224+468031650+468574885+468899979+469164937+469570721+470078415+470568635
2210+471095843+471813700+472670862+473376847+473948388+474632745+475353273
2197+475883745+476249945+476766282+477575105+478453302+479266539+480060040
2183+480749740+481198892+481599668+482218583+482974763+483805102+484634255
2170+485174225+485539942+486121314+486940338+487767228+488449953+489137018
2156+489871681+490338640+490513560+490699535+491100644+491605259+491888173
2143+492007333+492254150+492577389+492743554+492571046+492034081+491329617
2129+490673046+490157896+489683925+488971781+487942111+486840692+485890041
2116+485121953+484367813+483362146+482122497+480911935+479693841+478300159
2102+476899911+475592892+474254599+472988648+471980866+471118028+470039350
2089+468592543+467132975+465908723+464743049+463620632+462619454+461528459
2075+460240435+458988470+457988664+457080602+455915374+454601529+453545296
2062+452695739+451774804+450788131+449758906+448613043+447455420+446419888
2048+445481925+444570562+443575467+442416100+441229132+440259116+439516626
2035+438767309+437825637+436773447+435824503+435051852+434369313+433608125
2021+432701621+431690203+430619984+429706024+429028790+428362018+427622718
2008+426874218+426085725+425225038+424341202+423473801+422712168+422185331
1994+421661722+420777033+419802825+419167327+418778608+418395454+417827698
1981+417103200+416459540+415991728+415544245+414924810+414149896+413306423
1967+412563228+412168536+411879835+411298167+410565619+409923888+409351198
1954+408866579+408503867+408181926+407721199+406954557+405836258+404799836
1940+404556729+404742444+404717774+404508649+404059868+403378071+402815323
1927+402391064+401699435+400872212+400388855+399781477+399045553+399014724
1913+399186973+398738414+398016180+397732376+397809652+397769660+397464895
1900+397043381+396596826+396132612+395826215+395540556+394915074+394471190
1886+394584638+394663138+394540676+394456240+394418770+394322833+394157559
1873+393842518+392796821+391083499+390625740+391648064+392487605+392721622
1859+392731973+392685192+392560021+392359318+392175903+391885384+391193496
1846+389863587+388614961+388989730+390053049+390437427+390382150+390255311
1832+389365761+387460528+386380144+386721302+387210335+387812593+388428429
1819+388474098+388028655+387473364+386667472+385660580+385293342+385550435
1805+385626969+385053685+383723220+382627514+382575724+382508687+381287217
1792+379898544+380545024+382036905+382462054+381817690+380941310+380276727
1778+380100064+379751448+377929613+375051618+374627841+376579893+378113696
1765+378516697+377772871+376907733+377053716+377282206+377469071+377446033
1751+375831133+373500082+373237350+374228698+374746371+374397163+373795276
1738+373879675+373360295+370934012+370462712+372527062+374442497+375490494
1724+375521100+375072319+374002694+370735127+367394885+368764823+371754855
1711+373489324+373438981+371719797+369974644+369511914+367980893+364966525
1697+364581627+366817965+369627921+371141245+370849205+369604104+366824717
1684+363273829+364588973+367760936+369438533+368949240+367416328+366337427
1670+365057416+365214380+367262109+367905175+366782758+366827203+367737564
1657+367224009+363593359+357980830+358629350+360241208+359581818+361148898
1643+364885056+367159717+367318424+365369155+363697606+367257583+372168949
1630+375172708+376922647+378840976+381259171+384872273+388786579+391124715
1616+393343988+397997148+402802672+406184985+408969602+412140304+415395146
1603+418575902+421918296+425216172+427992442+430392830+433137084+436305078
1589+439593457+442922050+446200598+449367071+452306723+454294872+454723620
1576+456228671+461116480+465421545+467875354+471115987+475844903+480273357
1562+483199209+482991494+481872194+488082937+495936664+502605500+508229937
1549+513333956+517149765+518620166+517666622+516853348+524731300+535874296
1535+543104878+548520340+554702109+560449157+565021257+568923024+571669763
1522+574618690+580351233+587061212+594192889+601542484+607073767+609518265
1508+608840845+611381206+621304921+629762723+635080356+638211400+641950934
1495+647843149+653167014+656343986+658986590+664479773+671333063+676889907
1481+681164477+685087797+688163787+689428180+690387252+694792408+701676268
1468+707593635+712139470+717077361+722231389+725067277+724655780+727560968
1454+736806669+745504277+752503958+759108020+765869528+772152836+778171706
1441+784183823+788902611+792097835+797175366+804711269+812213265+819450525
1427+826120326+830865008+834597123+837708727+839105636+842668878+850179480
1414+856849132+860485829+861992105+863112407+864678040+866186764+867054351
1400+867257132+867316267+867111483+866381532+867534109+869649246+868733654
1387+864984697+863776100+866632911+870602605+873496292+875226421+876420771
1373+877805660+878990588+879282480+880059620+881527536+881123458+879317352
1360+879273873+880826002+882373828+882513764+881199659+880028086+879828348
1346+879687373+878827280+876666512+872879714+870866079+873146601+875909850
1333+877004554+878724443+881205001+881624511+880461027+880257801+881154547
1319+882560434+884982153+888264559+891464903+894443101+897105219+899901337
1306+904112171+909031588+912602620+914056290+914332229+915120870+917307088
1292+920348724+922977083+925127463+927414441+929242435+930267913+930874697
1279+931308602+931749036+932133451+932886552+934492474+935445981+933998692
1265+931170224+928728842+926773600+925643430+926187888+927461704+928260065
1252+928828267+929652300+931203464+932940790+932993247+931385767+930318145
1238+930791225+931835772+932142726+931221791+929717890+928230980+926950857
1225+926975787+928760228+930923445+932168249+932165430+931653841+932146139
1211+933869144+935056446+934634710+932933444+931165995+931941874+935678960
1198+938912321+939383250+938674891+938387228+938279346+938537626+938640018
1184+937239770+935320217+934316404+933946161+933544309+933328766+933327728
1171+932943906+932919050+933123166+932671232+932788389+933145945+932092049
1157+930329274+929197768+928614505+927909113+927149038+925975833+924057022
1144+922479220+921800391+921149385+920029232+918986911+917149271+913794819
1130+910883844+909102669+907178441+904427286+901132489+898096344+895131501
1117+891673694+888243190+885164010+882095440+879221193+876324167+873489911
1103+871885992+870284077+867125358+864148718+862724653+861540764+859474745
1090+858041851+858238176+858148991+855928495+851744371+847010002+842998239
1076+840287818+838316698+836269451+835077178+834810365+833568677+830887119
1063+827858467+825531423+823334595+819868255+815789194+812781763+812189225
1049+813213219+811947046+807237903+803159140+802292147+802569273+801952027
1036+800642152+799363735+798299600+796089936+793208492+792580932+793501496
1022+793000443+791408989+790376240+789582256+788290114+786777531+785934504
1009+786681817+788498162+789475561+788631198+787453096+787798484+788989867
995+789552132+789665654+789767601+788930509+786878143+785795459+787076249
982+788439324+787283630+784930246+783567245+782398492+780315037+777958686
968+775778404+773552268+771795651+770915451+770302360+769510974+768469618
955+767624512+768132243+770717938+773837259+774857989+774596370+775493784
941+777518623+779979741+782476473+784776881+787424456+790614709+794030150
928+797577514+800915123+803662048+806056018+807985068+808854584+809108561
914+809844151+811074339+812271287+813151487+812856925+811789748+811701231
901+811847176+810628860+808922697+808197198+808078557+806865731+804832285
887+804283746+805187541+805382679+804459741+803493472+803195868+803719848
874+804475248+804818781+805015700+805907920+807386298+808730527+810747946
860+814115604+817823902+821240382+824782552+828286436+830821009+833007598
847+836145097+839428096+841554957+843149749+845457724+848420267+851627362
833+854354551+855339666+855337589+856582542+858953511+860373198+861692497
820+865880553+871517678+874720693+876830710+880737708+884007500+884598183
806+885250598+886904081+886605883+884773140+885870144+889932139+890357734
793+883699063+880188575+888914080+900876732+906510444+909927073+913711125
779+915678610+916844395+919805527+922463045+922652470+923664445+926084680
766+927017041+926534092+925468547+923378118+920624292+917709088+915417584
752+915722535+917324153+917654553+918620228+921049219+921409298+917866757
739+915138307+917294771+919624931+918550483+917054521+916222178+915071158
725+912227035+907954023+906488185+909225539+911808192+911445739+910610057
712+911442771+912215163+911477866+908384218+903158738+900022872+900983947
698+903798985+907136074+907906760+903294445+899142745+899437605+900168669
685+901905697+905942539+908204290+907116486+905814104+908404251+912625176
671+912403104+906755146+901420523+900502259+900201241+901436475+905103073
658+907837682+908472958+910518795+912484944+906864884+899257380+899472700
644+903675002+900778866+892775224+891055261+910319649+985368021+1073741823
631+1014097364+923705179+899764814+906331036+916815755+928359860+926736131
617+905568512+889059358+890853890+899132284+903303645+895241313+887787843
604+897221782+907633046+909989101
##END=
