##TITLE=Sample description
##JCAMP-DX=4.24
##DATA TYPE=INFRARED SPECTRUM
##DATE=24/8/2023
##SAMPLING PROCEDURE=Instrument type and / or accessory
##ORIGIN=Default
##XUNITS=1/CM
##YUNITS=ABSORBANCE
##RESOLUTION=4
##FIRSTX=4397.6552
##LASTX=599.8556
##DELTAX=-1.9287962
##MAXY=1.4241228
##MINY=0.36448526
##XFACTOR=1
##YFACTOR=1.3263177e-009
##NPOINTS=1970
##FIRSTY=0.51629412
##XYDATA=(X++(Y..Y))
4398+389268810+389759150+388870642+387004151+386037583+386472647+387144004
4384+387659555+388024782+388051926+387854909+387647377+387645579+387697350
4371+387310057+386807988+386619780+386717075+387319450+387661488+386937415
4357+386069086+385730059+385836701+386530754+387702967+388724542+388631157
4344+387260758+385914447+385517583+385597351+385505045+385348204+385618608
4330+386062929+385721790+384651860+384108536+384335258+384503738+384690913
4317+385014076+384809824+384219493+383869680+383762363+384041440+384863033
4303+385387886+385155861+385080542+385550973+386006035+386459254+387223818
4290+387780309+387387489+386193030+385115146+384839035+384909590+384491604
4276+383940281+384195315+385129751+385910628+385899842+385140941+384644130
4263+384760525+384817239+384528185+383992771+383680618+383813640+383811483
4249+383277641+382908774+383915339+385420872+385200576+383746994+383295842
4236+383955380+384166553+383751803+383742095+384222009+384353818+383811438
4222+383422617+383870938+384530207+384551689+384229784+384360963+384422486
4209+383388823+382537390+383527732+384707406+384349998+383798675+383940595
4195+383972997+383475512+382666728+382283794+382970477+384177339+384941003
4182+385031647+384630109+384009623+383539416+383393766+383292426+383019911
4168+382741328+382383516+382086059+382109248+382249370+382591678+382821411
4155+382324465+381686408+381525388+381579226+381738628+381996718+381882256
4141+381417981+381521523+382180477+382072621+380978648+380222624+380440897
4128+380926069+380943595+380945797+381578776+382122325+381884053+381443283
4114+381548712+382077924+382301905+381880773+381220156+381129781+381659668
4101+381828867+381380726+380808551+380118183+379433568+379306793+379881664
4087+380794440+381561160+381771119+381251793+380394204+379822029+379661908
4074+379870834+380312638+380689864+380953707+381099087+381125377+380905756
4060+380337221+379818479+379626136+379700152+379959545+380206400+380182223
4047+379806929+379360316+379138448+379065870+379055219+379267650+379590633
4033+379559175+379138717+378746571+378519669+378367907+378516299+378978731
4020+379205992+378926736+378427363+378321439+378804948+378913388+378015039
4006+377110083+377219197+377923451+378329888+378475673+378771243+379050770
3993+379039220+378662444+378293352+378486594+378879638+378803690+378344089
3979+378221763+378733404+379072206+378780321+378224684+377662889+377321885
3966+377267508+377286383+377209086+377377970+378189181+378937476+378595258
3952+377389430+376161626+375823880+376917583+377546899+376212363+375354796
3939+376402796+377790384+377813933+375885537+374392722+375573991+376985779
3925+376173467+375063833+375584642+375954115+375062215+374864547+376260022
3912+377808899+378713630+378720731+376920729+373990667+372455496+372546994
3898+373997430+376341318+377547843+375991483+374637375+376350958+377212007
3885+375675713+375439531+375319901+374917418+375755796+376335835+376419716
3871+374850727+372085101+372433610+373579736+373610767+374736715+376288941
3858+377067570+375459035+368375848+365532026+370947469+376289120+378282791
3844+377020473+374921912+373190736+370917741+370449736+372570565+374430472
3831+375424274+376388011+377242162+378237087+377237488+372969901+372612336
3817+374489882+374632769+376751103+379963141+380730715+378029375+376236159
3804+376436074+374085782+372786995+374787272+376510045+378178800+379991812
3790+381075134+381459865+380772329+379745182+380037067+380061289+379181230
3777+379689321+381000309+381555273+380520216+378873796+378627391+379666717
3763+381389085+381678993+379466554+378960261+381319069+381977529+377058582
3750+372579732+374972650+377716772+377360713+378738887+381506333+381928724
3736+378236098+374710425+376758226+381294576+384199629+384373097+383681202
3723+384094739+385670873+388385920+391493966+393718359+393517971+393321854
3709+399861065+411473277+424909017+440823015+460429594+480508222+497950807
3696+512252720+522490354+527973387+528147214+525580514+524946816+524292311
3682+520529894+513919183+505736473+492416903+478966917+473648544+466324636
3669+457755038+455531230+454304235+450838916+446702553+442698179+437011928
3655+432210814+431004356+427151655+416324364+410046209+411605041+413986049
3642+414620466+413563748+411874411+409999876+408086648+406565700+402298563
3628+395230138+394224293+396813957+398069624+395630104+391245493+390006050
3615+389796989+387824125+385181792+381824688+379003628+378704418+378594450
3601+376341543+373339959+371224074+368968111+366822813+366153478+364472791
3588+358987354+354771740+355005832+355907125+355325086+353654196+351367067
3574+349119980+347980820+346958639+342824568+336650067+335062968+336581601
3561+336617149+335165633+334388981+333853319+332065182+330120832+329054520
3547+327598960+325651218+324629216+324361464+323739383+322621861+321688166
3534+320926232+319564417+317574431+316103592+315655361+315034471+313767546
3520+312820504+312350972+311837757+310974147+309557842+307727101+306242689
3507+305729947+305283424+303988075+302757642+302240360+302084689+301822846
3493+300776644+298892649+297073525+296051231+295672635+295204698+294366702
3480+293702984+293277920+292639436+291595256+290306805+289409063+289068957
3466+288602256+287626273+286486685+285508523+284691649+284331635+284500812
3453+284526225+283779144+282019475+280040432+279026924+278547932+278106846
3439+278207557+278598826+278610983+278341950+277987329+277458003+276917780
3426+276505209+276036149+275626319+275361712+274977274+274809917+275121531
3412+275301380+275260665+275496015+275905328+276114097+276021228+276011836
3399+276423396+276772939+276735616+276818598+277253617+277535390+277522470
3385+277837072+278706772+279626648+280194644+280545086+281096521+281965188
3372+282976247+284087679+285281014+286360090+287296481+288242444+289105291
3358+289733956+290360576+291671250+293645326+295146950+295882639+296585500
3345+297502050+298425768+299225946+299865329+300439100+301257636+302239102
3331+302956973+303357905+303429067+303229983+303142328+303115656+302695153
3318+302141111+301903401+301702699+301440137+301285769+301254535+301506222
3304+302161334+303009126+303673046+304304452+305207386+305955186+306265452
3291+306512239+306881376+307375199+308256561+309578604+310676667+310868313
3277+310800454+311698713+313296126+314503887+315216050+315852063+316344110
3264+316434889+316208235+316052001+316119928+316212661+316512590+317107663
3250+317527694+317464283+316919364+316446933+316747941+317536142+317877911
3237+317465340+316892265+316730909+316998998+317318925+317492888+317694736
3223+317889258+317810770+317628696+317870406+318238104+318066524+317859216
3210+318233139+318622296+318525608+318422291+318524394+318489903+318528349
3196+318919124+319487839+320073587+320429219+320468317+320633740+321314671
3183+322134577+322440304+322428260+322611884+322929430+323348540+323930445
3169+324399371+324616296+324829199+325150924+325480985+325816574+326196002
3156+326639807+326993596+327086218+327048064+326978429+326982901+327141943
3142+327226138+327283796+327694300+328256229+328394352+328170731+327886396
3129+327564379+327630620+328306719+328814181+328641612+328233040+328256701
3115+328891972+329622606+330136719+330646877+331041337+330999341+330680627
3102+330508237+330688446+331235118+331834123+332081180+332131513+332182407
3088+332292555+332708317+333300558+333684323+333887721+334320560+335104425
3075+335660669+335706283+335700576+335680061+335310003+334773757+334272362
3061+333861925+333910506+334372129+334665317+334612535+334389453+334245488
3047+334399452+334725828+334888668+334687854+334338761+334198953+334175494
3034+333971062+333714478+333763192+334027731+334177696+334095164+333954929
3020+334150035+334651655+334986817+334971043+334784790+334670957+334812563
3007+335294004+335885459+336211453+336355373+336859824+338135152+339801997
2993+340963246+341499357+342132066+343219635+344568575+345906235+347028183
2980+347871728+348414378+348718891+348918649+348924581+348564590+348086541
2966+348042410+348240573+347967967+347438979+347271218+347347055+347470954
2953+347834765+348361888+348796930+349188649+349623622+350067606+350428002
2939+350578057+350484267+350231974+350107693+350300350+350372996+350002556
2926+349581514+349278461+348875574+348403727+348109169+347998010+347829125
2912+347800701+348119280+348334790+348031849+347652399+347891367+348231068
2899+348085755+347860269+347707922+347775422+348072003+348056409+347846450
2885+348049713+348556388+348760393+348671839+348624517+348531964+348395863
2872+348259785+347992505+347661926+347392759+347296385+347436620+347540723
2858+347413970+347212100+347079123+347068966+346913002+346443784+346252497
2845+346608152+347068315+347527623+348102765+348584498+348792458+348939704
2831+349361151+350064798+350737099+351227192+351677760+352170571+352644598
2818+353068134+353449495+353785106+354021333+354052184+354034298+354335306
2804+354962937+355680695+356301653+356657173+356834641+357067542+357380886
2791+357705869+358014067+358308536+358631115+359020947+359353615+359441360
2777+359491221+359734997+359961585+360130064+360439004+360891864+361369306
2764+361749296+362146677+362693529+363160769+363482607+363829251+364214656
2750+364663786+365150867+365607502+366057935+366493898+366970373+367536549
2737+368177977+368771948+369099650+369290578+369624122+370127989+370738723
2723+371370151+371885837+372216752+372518592+372854293+373104429+373424603
2710+373922268+374359444+374640386+374836616+374920564+374931552+375082865
2696+375497840+375963103+376182500+376233934+376349969+376508697+376620260
2683+376704635+376792582+376958006+377299775+377739332+378030633+378091437
2669+378123164+378265804+378438688+378579619+378739336+378870021+378834519
2656+378792635+378955812+379200824+379401751+379535357+379694759+380016934
2642+380335198+380430201+380459322+380731164+381114772+381289723+381432677
2629+381764783+382075632+382217822+382424052+382884327+383373903+383676618
2615+383972907+384457225+385006885+385358900+385381954+385232124+385235045
2602+385410536+385339621+384933768+384678060+384691721+384706327+384727628
2588+384765423+384703720+384521624+384253063+384024363+384009983+384206730
2575+384375075+384326045+384088942+383789282+383526788+383277911+383103274
2561+383182773+383418977+383532585+383447649+383258946+383145473+383298583
2548+383591547+383628308+383307481+382998429+383020899+383244475+383466164
2534+383635049+383732703+383875028+384105210+384269690+384239940+383999826
2521+383769868+383803304+383978525+384068180+384076224+384051956+384123860
2507+384387703+384593123+384583821+384482122+384309957+384088538+383911609
2494+383761689+383600894+383542517+383670911+383779081+383625611+383401586
2480+383415921+383476635+383264204+382914077+382758630+382869092+383040268
2467+383126463+383166684+383156079+383011507+382821501+382707039+382584263
2453+382474474+382450656+382362439+382158681+381995864+381967058+382051410
2440+382224204+382465711+382622372+382487822+382221148+382195937+382370843
2426+382518291+382648841+382769550+382825725+382877945+383002833+383105656
2413+383087770+382993441+382860913+382796469+382910347+383091859+383185065
2399+383251801+383461176+383723985+383875657+383987917+384052181+383987018
2386+383774542+383207984+382023772+380221635+377999894+375493054+372740999
2372+369918906+367320253+365056786+362965618+360966240+359310225+358417853
2359+358443873+359453988+361904249+365809417+370048265+372810094+372736910
2345+370333387+368096861+367224419+367176176+367802953+368826618+369775188
2332+370423604+370861409+371281395+371788789+372559487+373704220+375195484
2318+376841814+378411859+379888271+381118546+382092979+383162325+384203089
2305+384903119+385408244+385906583+386473680+387098840+387600280+387930633
2291+388225170+388572420+388982857+389376980+389654574+389773261+389827548
2278+389974277+390220548+390446326+390543801+390597055+390694889+390759513
2264+390843820+391003492+391119976+391194801+391362382+391632336+391949478
2251+392222263+392291066+392275517+392434335+392731657+393045608+393367243
2237+393654903+393789589+393781544+393905309+394372999+394886258+395085477
2224+395153156+395306581+395530113+395851972+396211717+396451247+396557395
2210+396664487+396861234+397113437+397323486+397479068+397670737+397922131
2197+398269067+398759767+399256218+399554844+399689170+399914903+400258604
2183+400476158+400654929+401118664+401772720+402254117+402462638+402652060
2170+403039757+403456350+403775154+404194309+404774798+405363826+405885399
2156+406361808+406796647+407121877+407302670+407401269+407493530+407675672
2143+408005396+408350086+408497354+408363747+408038832+407666684+407275167
2129+406818487+406335383+405925620+405526778+404849264+403788816+402718391
2116+401994274+401445423+400723957+399823136+398933819+398114474+397316790
2102+396495692+395576625+394516088+393416722+392411370+391510639+390632378
2089+389722254+388751821+387689440+386663417+385810187+385039242+384280117
2075+383523463+382753552+382108888+381635176+381079044+380293269+379438197
2062+378681274+378019623+377401968+376811053+376213958+375644097+375157847
2048+374624005+373986016+373435861+373076813+372812881+372498032+372078495
2035+371635746+371249263+370863341+370357587+369750403+369196968+368788576
2021+368446561+368033720+367622654+367341420+367013156+366541579+366118604
2008+365791104+365481873+365162327+364743397+364243889+363882999+363682432
1994+363229483+362395892+361821222+361737027+361707097+361553155+361254732
1981+360887100+360631954+360467316+360348562+360282883+360069148+359447764
1967+358606466+358149876+358100195+357924906+357610259+357403446+357172072
1954+356872345+356618412+356269049+355784237+355298728+354576880+353785061
1940+353730729+354130694+354318588+354319869+354188847+353913792+353703046
1927+353563620+353003308+352153921+351844352+351764988+351627697+351975195
1913+352337119+352060648+351640460+351781998+352286696+352695897+352906148
1900+352885948+352671247+352478500+352475062+352342466+351817927+351723891
1886+352407495+353070246+353522342+353905995+354157164+354287894+354363528
1873+354236820+353290542+351812782+351924188+353556924+354791334+355245632
1859+355476219+355740892+355948043+355983928+355935932+355775451+355241070
1846+354084900+353212504+354253448+355925416+356675486+356844685+356993211
1832+356432451+354839128+354161568+354959724+355786664+356633422+357568285
1819+358152235+358397832+358395967+357957937+357371156+357518582+358309098
1805+358916664+358800943+357948050+357426006+357957353+358508878+357903605
1792+357053948+358298020+360484056+361638541+361696963+361453052+361480330
1778+362043001+362372365+361336387+359340043+359573528+362135240+364402932
1765+365495197+365394015+365194504+365983537+367002034+368072189+368688427
1751+367398494+365150373+365137048+366810971+368190650+368642836+368761972
1738+369420522+369374683+367635912+368039652+370979264+373882991+375955239
1724+377029551+377493421+377059526+374317448+371535418+373640652+377490500
1711+380065873+380828055+379881754+378906333+379378562+378978956+377029641
1697+377402687+380359646+384075056+386658204+387638928+387776714+386366543
1684+384014926+386261968+390461920+393232828+394035590+394253548+394943062
1670+395466747+397725114+401741038+404311513+405238489+407151852+409798096
1657+411104365+409666332+407177872+410272796+413688007+415843282+420936820
1643+427432665+432205287+434919300+435926044+438872622+447175231+455313900
1630+461261253+466155617+471091821+476540474+483177655+489432081+493957264
1616+499320757+507091592+514076338+519345007+524269212+529882705+535603830
1603+541119489+546553133+551592204+555982926+560160319+564488485+568692302
1589+572786735+577036661+581461313+585978766+590511004+594290319+596763005
1576+601073150+608679954+615199976+620772305+628136389+636678214+644765247
1562+650941388+654122732+659920794+673358601+686832989+699389390+711220684
1549+722949425+733107470+741340064+749139077+759523529+778785059+796816313
1535+809934462+823568433+838836240+851885361+862403286+871740458+880751905
1522+891291041+904277876+917147598+929947842+942395308+951971112+957883141
1508+961313137+969612736+984541965+995581193+1001716035+1004128681+1007119973
1495+1014608496+1022147891+1024731668+1023313363+1025991784+1032099392
1483+1036598510+1038412555+1039176265+1039309916+1036749957+1030258742
1472+1025354446+1027638923+1031174708+1031379184+1031011755+1032905165
1460+1032441205+1023889044+1016264713+1020074901+1024285774+1025108085
1449+1024008674+1023583452+1024654821+1025420238+1024770047+1023026646
1437+1020232730+1019479357+1021586501+1022018913+1021187344+1022300866
1425+1023727620+1024683672+1025458347+1022615895+1018801842+1021098453
1414+1024466163+1025065841+1025059280+1024469848+1021281538+1018061322
1402+1017359180+1015563650+1012026157+1010052754+1009382969+1009985524
1391+1010410746+1007130759+1000969403+997394520+997504802+999816423+1003423843
1377+1005548783+1003850682+1001716574+1002950805+1004694744+1004846102
1366+1003993771+1001682240+999635225+1000177920+1001204079+1001188080
1354+1000889409+1000094691+998168386+996652382+996564479+996890653+996118315
1341+993380844+990986084+991302371+992587294+993712231+995080832+996286750
1327+997281541+998965800+1001377817+1003326233+1004387265+1005927537+1008630045
1314+1011488855+1013786634+1016412835+1020286838+1024087948+1026519828
1302+1028300618+1030166795+1032164555+1034182898+1036847746+1041323495
1290+1046745140+1050442349+1051418625+1051153838+1051504999+1053107198
1279+1055257215+1056997379+1057448037+1056490097+1055762789+1056431855
1267+1057141097+1055985062+1053766108+1052883217+1053694473+1055752992
1256+1058156920+1058593916+1057060385+1056319775+1057107662+1057695477
1244+1058553021+1060694858+1061743217+1060899335+1059980583+1059280239
1233+1059033608+1059516533+1059960540+1059994334+1059877760+1060309723
1221+1061732432+1063367527+1064246822+1064242687+1063743494+1063454171
1209+1063513402+1063164758+1062956596+1064170154+1065877782+1066570307
1198+1066825655+1067869071+1069019534+1068308853+1065944922+1064666111
1186+1065086480+1064785921+1063909053+1063971879+1063391615+1061570199
1175+1060264513+1060040982+1059617738+1057861664+1055963401+1054929872
1163+1053961417+1052736803+1051800794+1052088410+1052983523+1052078253
1151+1049914934+1048662368+1047399466+1045206306+1042799503+1040356118
1140+1037948865+1035227841+1031842156+1028632815+1025951518+1023683129
1128+1022572034+1021665326+1018893610+1015356386+1013174103+1012039369
1117+1010385849+1007876133+1005710657+1004219010+1002295401+1000276698
1105+1000631005+1002802593+1003550573+1003266193+1003846727+1004951621
1094+1005652414+1006368757+1007821126+1008664649+1008106405+1008411907
1082+1010957665+1014097079+1016558620+1018696683+1020648694+1021924809
1070+1022882839+1024967513+1028354546+1032376132+1035793455+1036847836
1059+1036790223+1037870040+1040016372+1041890278+1041866819+1040584233
1047+1040923080+1043619118+1046123261+1046621915+1046842390+1047943419
1036+1047912860+1046689145+1046281719+1046483679+1046969301+1047347425
1024+1045608249+1042551614+1041475572+1042605991+1044109952+1045277761
1013+1045889753+1045749091+1044884447+1044192102+1044261219+1043833930
1001+1043093500+1043405024+1043698302+1043226972+1043006227+1042874193
989+1042640955+1043153450+1043777486+1043193357+1041811723+1040533811
978+1039314230+1038017084+1036719758+1035859966+1036017616+1035991011
966+1035587181+1036180568+1035786535+1033709321+1032473023+1031766117
955+1030566490+1029246065+1028009138+1026992596+1026153298+1025687361
943+1025645836+1025581752+1025531599+1026020905+1026913862+1027758822
932+1028683687+1029670298+1030505372+1030597859+1029467439+1028226108
920+1028439393+1029966992+1030935088+1030644776+1030256764+1030162390
908+1029793973+1028882051+1027918000+1027513091+1027223947+1026083282
897+1024919427+1025111680+1025948821+1027032773+1027913686+1027232486
885+1025986211+1025636668+1026618876+1028892478+1029986136+1028018845
874+1025220435+1024734184+1026691139+1027987747+1027591916+1028879175
862+1032466731+1035771435+1039366001+1043663608+1046099533+1046636835
851+1047681778+1049058199+1049527462+1049594333+1049804382+1050991785
839+1054092012+1056756322+1055046177+1050192034+1047697597+1048792874
827+1050751716+1052927888+1054362640+1053350143+1052407483+1054626528
816+1058540707+1062125117+1066655243+1072043273+1073741823+1070245136
804+1066200721+1064013763+1063317284+1064383439+1065147508+1063912648
793+1061554380+1058455681+1056860582+1058883958+1061821683+1062858627
781+1061970254+1059434023+1057168421+1057651256+1058964041+1058367868
770+1057440487+1056753356+1054776088+1052454760+1050985493+1051528188
758+1055203736+1057804411+1055489105+1052402001+1051557399+1051457093
746+1052706603+1055437784+1057407861+1057522458+1054834600+1050692036
735+1048859564+1048647268+1047830979+1047228065+1047395601+1048661829
723+1049752701+1047563137+1044632064+1046819291+1052147011+1054159512
712+1052813920+1050518028+1046955908+1043550270+1042657493+1044012162
700+1045467497+1045808412+1045888585+1046682404+1048225282+1049801236
689+1049795574+1047617155+1045552883+1045182668+1046664877+1049819032
677+1051153928+1048386167+1045782886+1047396590+1052624633+1058241497
665+1059361760+1055356712+1049065479+1044532387+1045272099+1050454034
654+1054988474+1057944174+1060070373+1061061389+1062828966+1060995057
642+1052143955+1045042995+1040650205+1032862382+1028416743+1034107578
631+1043311728+1039876429+1025317235+1023664973+1034081693+1034312235
619+1022064212+1007784455+1000463738+1004384209+1014677434+1020433612
608+1023598103+1032056250+1042561681+1054996204+1065407261
##END=
