##TITLE=Sample description
##JCAMP-DX=4.24
##DATA TYPE=INFRARED SPECTRUM
##DATE=24/8/2023
##SAMPLING PROCEDURE=Instrument type and / or accessory
##ORIGIN=Default
##XUNITS=1/CM
##YUNITS=ABSORBANCE
##RESOLUTION=4
##FIRSTX=4397.6552
##LASTX=599.8556
##DELTAX=-1.9287962
##MAXY=1.5301554
##MINY=0.58826995
##XFACTOR=1
##YFACTOR=1.4250683e-009
##NPOINTS=1970
##FIRSTY=0.82840735
##XYDATA=(X++(Y..Y))
4398+581310632+580065938+580018006+581604459+583579683+584532893+583802322
4384+582183997+581303773+581681460+582255394+582127993+581858342+581533941
4371+580974646+581059929+581624284+582041246+582243850+581694552+580952102
4357+580987612+581158177+580433712+578708648+577829302+579418767+580799814
4344+579098883+576989231+577073761+577516236+577656144+579191067+580958375
4330+580562159+579762157+580480390+580398662+578910249+578386715+578722075
4317+578994277+579352222+578964162+577982218+577777773+577975693+578245888
4303+579425543+580942105+581082389+579691597+578042447+576762451+576060447
4290+575682760+575083312+575276129+576999938+578174951+576804905+574572577
4276+574220571+575740939+577360268+577867071+577457889+577013699+577026330
4263+576997429+576546839+576867100+577713361+577015916+575495924+575419424
4249+576358832+576378072+575266049+573977688+572993360+572722496+573152967
4236+573231767+572221255+571373404+572669670+575242710+576349798+576143638
4222+575890258+575233258+574927804+575415075+575475513+574888906+574099945
4209+573660231+573343316+572811585+573377488+574708469+574925043+573976559
4195+572937020+572353216+571700231+571447352+572785946+574318987+574217894
4182+572974915+571602191+570670814+570525553+570848825+571422131+572589657
4168+573615728+573296304+572252248+571589183+571356339+571540833+571734444
4155+571303639+570899476+570937663+570817539+570565120+570427304+570163760
4141+569911132+570292834+571036413+571388461+571033444+569762817+569010371
4128+569887500+570496400+569858557+568932366+567931014+566909418+566206368
4114+566020452+566740107+568293393+569364510+569217450+568722986+568174105
4101+567060368+566051069+566092978+566490198+566453893+566042076+565067326
4087+564440817+565838301+568404859+569533528+568720058+567616526+566790006
4074+565766486+565006511+564590804+564070491+563947565+564109180+564005117
4060+563932298+563844590+563821753+564278282+565080417+565965619+566254050
4047+565315938+563895492+563186502+563442058+564653668+567000222+569015264
4033+568369850+565967501+564309149+563561178+562907357+562405447+562905893
4020+564052380+564048532+563714219+565095516+566755499+566571968+565607171
4006+565271394+564905376+563831038+562677691+562550123+563566699+564610211
3993+564718373+564230307+563902937+563314280+562162021+560970780+559891757
3979+559528291+560562392+562119651+562631599+561829757+560855215+560598070
3966+560977848+561316261+561114200+560830538+561052675+561534424+561745812
3952+561507447+560627933+559338360+558732806+558798305+559152402+560269361
3939+561735774+562783051+562787610+561380087+560067760+560265178+561034271
3925+561238423+560854922+560076544+558569058+557063537+557243347+558614899
3912+559743861+561057359+562621519+562234003+558805624+554751992+552413092
3898+553410722+557358786+560399397+558840758+556578567+558424131+559462624
3885+556837343+554497691+553410010+554938493+557687746+557522952+555669190
3871+554026063+553139230+555072879+556169845+555112112+556235261+558587336
3858+559661297+557457495+548334489+544194403+550125387+555676301+557247906
3844+555826497+553784603+551585317+548775041+548423662+550968094+552914918
3831+553436570+554421442+556154160+557319219+555003658+549500175+549805211
3817+552593612+552592860+554942425+558967825+559938519+556767494+554721961
3804+554888386+552614860+551607067+553752438+555641460+557443650+558710596
3790+558697003+558175393+557558588+557464982+557982074+557220259+555951514
3777+557097207+559030187+558861629+555831893+553169888+553693715+555106382
3763+555923826+555358215+553227943+553271902+555899692+556432804+551283126
3750+546904548+548760402+549839633+548825776+551536214+555192459+554496143
3736+548320269+543913417+546608547+551698038+554563357+554159195+552679606
3723+552027625+552400168+554163001+556405617+557254430+554426294+549371101
3709+548987851+552267957+555311370+555928134+554321604+554092984+555592147
3696+556910246+556995738+554554532+549735111+548112645+551214699+554715269
3682+556613701+557021586+555231441+549086852+545375689+548092527+547900965
3669+545522122+547423272+549712692+549507871+548350425+547038056+544032453
3655+541452511+541447241+538852410+530560065+527382641+531149182+534578438
3642+535221343+533842890+531998789+529939454+527565587+525246095+519794058
3628+511265983+509350612+511169449+511159034+507225316+501700126+499998317
3615+500190674+499414680+497956715+494788912+491153119+490267039+490178452
3601+488170269+485445694+483347836+481222332+479880727+480136701+479295333
3588+474773836+471111066+471261681+471820767+470837023+469166458+467783279
3574+466617049+465970088+465523221+462634939+457140992+454767796+455430484
3561+455617696+455043428+454772104+454363758+453255165+452167652+451198590
3547+449466039+447658954+447149223+447213426+446714067+445813014+445212270
3534+445019034+444640552+443666847+442526508+441604165+440202917+438317075
3520+437523973+437996940+438383452+438114638+437190789+435615754+433937493
3507+432962575+432369067+431581278+431243869+431408328+431158210+430334283
3493+429624457+429009534+427847445+426898543+427174384+427487367+426433900
3480+425024579+424604732+424670356+424201238+423153083+422488303+422434599
3466+422102544+421244905+420179393+419269221+418854016+418641248+417965009
3453+416763646+415949422+416009108+416411221+416793133+417022380+416844244
3439+416153031+415371599+414894492+414185293+413194314+412801235+413092175
3426+413493034+413714042+413708061+413612781+413958848+414900556+415634056
3412+415461232+414651107+413946551+413560792+413490106+414003727+414451933
3399+413958639+413372367+413488057+413317282+412887396+413644778+415198273
3385+416554977+417886209+418705911+418750874+419001661+419501271+419740473
3372+420308342+421606531+423083819+424359381+425491941+426414200+426849774
3358+426803598+427112649+428737457+430912525+432166337+433040497+434485286
3345+435612115+435824967+436332816+437713486+438686522+438462963+437729756
3331+437448645+438104307+439262965+440014324+440087854+439888512+439611333
3318+439422071+439668383+440132482+440384525+440608418+441378933+442435704
3304+442725097+442382000+442698789+443615736+443837288+443628535+443700768
3291+443609295+443934784+445352093+446762543+447351995+447423308+447093009
3277+446708965+447100538+448168644+449351227+450487969+451243678+451588615
3264+452021471+452792948+453752139+454507932+454824846+454888965+454927947
3250+455187016+455652035+455699173+455196427+455055306+455606445+455942641
3237+456035620+456700106+457429716+457841826+458499913+459193302+459540539
3223+459622685+459299748+458846607+458908133+459308532+459463705+459393020
3210+459732771+460359322+460394999+460120496+460172653+460778751+461954391
3196+462654011+462676597+463276338+464225533+464448506+464303747+464563904
3183+465311206+466226396+466971858+467393127+467458543+467731247+468638533
3169+469447612+469576310+469296955+469058673+469112336+469425904+470013055
3156+471174516+472689363+473334568+472762809+472162316+472148221+472439830
3142+472897154+473302864+473541272+473993952+474640872+474823191+474276360
3129+473725682+474073547+475099869+475865532+476005941+475991511+476144510
3115+476114145+475897529+475901502+476219546+476567160+476389819+475492446
3102+474513596+474559772+475923503+477268161+477379459+476809415+476300395
3088+475884061+475895228+476426333+477015031+477492180+477949671+478311590
3075+478162313+477881327+478383781+478917646+478697516+478590651+478797689
3061+478718848+478514068+478525570+478741433+479097748+479477861+479590916
3047+479451803+479567702+479995120+480253437+480115704+479691800+479281823
3034+479131459+479230963+479718401+480809887+481776817+481693625+481142319
3020+480944483+481115383+481549117+481861054+482001128+482412695+482919414
3007+483219682+483471891+483889522+484539203+485057634+485281904+485782726
2993+486660315+487558357+488425658+489081528+489462227+489867519+490474997
2980+491137225+491708482+492262883+492542196+492411825+492455700+492684739
2966+492536801+492264766+492148323+491814594+491157678+490483655+490307987
2953+490686385+491057254+491366180+491896071+492706655+493551704+494084481
2939+494423229+494431636+493737202+493057909+493265281+493747323+493505905
2926+492934815+492768683+492626894+492223191+491924554+491714882+491340415
2912+490965112+491042908+491473881+491735669+491953038+492420860+492955059
2899+493173724+492902818+492577121+492507523+492358748+492203533+492613258
2885+493470729+494123254+494301223+494245260+494354885+494606677+494657746
2872+494508261+494464594+494633278+494973238+495524670+495933392+495739320
2858+495092316+494618388+494801752+495073327+494608726+493658151+492844388
2845+492467914+492705484+493593530+494810243+495895790+496379213+496149338
2831+496008636+496555843+497463547+498115612+498214864+498339296+498964007
2818+499580436+499821645+499965902+500216355+500536114+500967882+501521153
2804+502019132+502248337+502231481+502300996+502610549+502943775+503159847
2791+503447609+504035512+504844716+505640118+506293019+506774560+507124265
2777+507387517+507384338+507025431+506740262+506831359+507138862+507479868
2764+507816775+508282129+508935030+509585213+510020201+510208919+510355226
2750+510605512+510923890+511208975+511236831+511137076+511368749+511790312
2737+512106557+512530085+513019196+513276048+513521357+513961071+514307180
2723+514593269+515074977+515680405+516332428+516737176+516704720+516804181
2710+517274847+517623549+517861287+518329151+518754435+518816296+518775265
2696+519033916+519551970+519940448+520176890+520535672+520906625+520967565
2683+520789052+520772238+521035657+521431162+522028477+522754908+523195626
2669+523285175+523222144+523209471+523596401+524162388+524460690+524917260
2656+525701034+526108041+525977336+525798405+525815386+525974241+526141669
2642+526326372+526565616+526813350+527267704+527984013+528659500+529195414
2629+529573310+529764412+529965762+530334791+530797845+531169844+531423183
2615+531821573+532492627+533193460+533739915+534021821+533979075+534050931
2602+534612568+535431392+536185094+536666969+536980662+537415400+537955162
2588+538558583+539127707+539398278+539500961+539842468+540479183+540998492
2575+541152118+541327578+541673059+541706227+541455063+541574810+542183794
2561+542902445+543557437+543832442+543567643+543451493+543920235+544525705
2548+544848099+544955298+545110765+545377906+545623675+545867268+546403182
2534+547225185+547910167+548354399+548593099+548714728+548977436+549161720
2521+549180542+549535811+550210921+550789121+551191151+551358538+551374850
2507+551572812+551865801+552089569+552501972+553185155+553907403+554360962
2494+554419602+554289398+554010713+553734997+553879422+554219758+554321479
2480+554317505+554446789+554587156+554470504+554317212+554431982+554512497
2467+554377191+554345152+554473725+554382168+554097460+554114274+554336661
2453+554253261+553934339+553636916+553311929+553108154+553185239+553223509
2440+552937421+552482732+552129137+551871490+551524335+551140667+551019540
2426+551200855+551305712+551127241+550814175+550467062+550071850+549573998
2413+549023695+548651655+548495561+548167646+547529803+547164078+547247311
2399+547066373+546423761+545842926+545282460+544392825+543548110+543088194
2386+542600421+541817609+540675011+538759347+535926568+532614424+529413452
2372+526496854+523265977+519437744+515788441+512999998+510561636+508124446
2359+507125060+508402671+510928072+514402878+518721686+521633725+521001277
2345+517566206+514399406+513093228+512977328+513179096+513506759+514067058
2332+514642330+515225884+515999955+516789249+517522623+518366961+519244760
2318+520354859+521973727+523590880+524686298+525534149+526523665+527554420
2305+528437949+529080728+529458917+529723130+529914651+530098015+530463866
2291+530919474+531298332+531637791+532010082+532421816+532656166+532501703
2278+532206496+532125982+532289019+532493003+532619108+532818868+533198772
2264+533620335+533923906+534191801+534562085+534954369+535278686+535506010
2251+535790342+536333450+536937833+537348562+537577182+537862058+538501365
2237+539295847+539739786+539838286+539989737+540348561+540738587+541049896
2224+541453139+542069944+542774626+543379092+543798521+544168011+544702252
2210+545422116+546201415+546911533+547391777+547676402+548084748+548743420
2197+549628162+550697230+551597280+552083296+552479512+553133375+553794683
2183+554149700+554607986+555487332+556416032+557266058+558121480+558869994
2170+559613239+560446953+561241016+561857905+562198200+562384785+562838512
2156+563725804+564555880+565014834+565379974+565680743+565756866+565911496
2143+566358907+566652942+566579538+566489111+566470331+566329336+565926888
2129+565248682+564486407+563896663+563307170+562302723+561126497+560089091
2116+558934239+557652905+556426948+555226715+554076212+553005053+551945229
2102+550785942+549455296+548058983+546672248+545176849+543668025+542450141
2089+541363883+539947075+538366519+537204431+536470011+535627639+534447984
2075+533202453+531946214+530578427+529354896+528361031+527369634+526342266
2062+525295324+524107178+522795060+521561492+520477408+519466938+518443419
2048+517343776+516278138+515419203+514643752+513718649+512613193+511321319
2035+509964489+508901988+508266905+507714679+506915011+505967154+505035693
2021+504067551+502926961+501771355+501034301+500593959+499933362+498966767
2008+498021880+497313476+496669986+495910053+495135355+494485382+493905509
1994+493135161+492028450+490961222+490205304+489518566+488797196+488079884
1981+487468014+487048292+486688171+486315503+485809787+484998994+483952805
1967+482984202+482543526+482492373+482213520+481674009+481176031+480651158
1954+480042467+479420141+478661923+477751458+476879348+475994983+475228818
1940+475081047+475185361+474917508+474446759+474054056+473616558+473046137
1927+472379559+471397406+470368909+469921749+469482620+468925082+469005973
1913+469039266+468226340+467184458+466777075+466919659+467070148+466970268
1900+466680834+466221754+465599260+465053266+464476320+463665778+463342213
1886+463684558+463861648+463686775+463409135+463232462+463228113+463214101
1873+462929183+461694527+459509421+458817246+460277887+461692227+462047872
1859+461776757+461454865+461299022+461201192+460983321+460495423+459583411
1846+458014650+456708890+457389061+458650695+458908970+458643334+458448133
1832+457573471+455619913+454566070+454918327+455144270+455523714+456160470
1819+456328108+456078909+455729580+454940243+453807809+453501728+453940063
1805+454109081+453566474+452090901+450631724+450312217+450137803+448728984
1792+447168170+447976872+449724899+450268467+449574242+448510110+447707179
1778+447541340+447204600+445242970+441987875+441388595+443683536+445622372
1765+446167027+445366481+444512231+444770505+445042749+445295252+445275887
1751+443231148+440161969+439738148+441096107+441797484+441359568+440717709
1738+440880955+440384650+437866276+437468471+439795492+441961483+443087936
1724+442985714+442282497+440907473+437250140+433615142+435270315+438648795
1711+440434214+440261055+438309462+436359083+435883105+433967441+430201528
1697+429674606+432302982+435754198+437801906+437786221+436802227+434137713
1684+430125907+431363282+434875604+436652031+436014563+434352531+433147404
1670+431611978+431882298+434493275+435454516+434174269+434054313+435114137
1657+434878030+431199157+424586495+424731380+426482041+425829266+427754717
1643+432206699+434864939+434873220+432495465+430953096+435649591+441585637
1630+445106032+447080587+449116208+451481248+455246659+459564673+462036411
1616+464592554+470320642+476122635+480164808+483431822+487070501+490790155
1603+494238233+497642102+500947345+503870510+506757997+510203524+514073708
1589+517800138+521076688+524228264+527541496+530661074+532773069+533481222
1576+535696610+541333935+545845937+548342771+552131814+557430433+562020691
1562+564768480+563923557+562857835+570781694+580155696+587890628+594018068
1549+599418576+603729437+605723441+605158458+605243072+614869786+627121822
1535+635112393+641730283+649317779+655787898+660437465+664404351+667553793
1522+671436400+678706815+686855362+695031765+703002135+708718218+711084556
1508+710554121+714153483+725337037+734611243+740701751+744668595+749179091
1495+755728177+761049007+763586830+766670062+774371199+783669329+791221565
1481+796567239+800737106+804102578+805619350+806177892+811153491+819815199
1468+826347806+830152032+835127714+841419321+844602015+843864124+847973594
1454+858993944+868882319+876749923+883433605+890374097+898153364+905358029
1441+910551875+912994419+915105368+922866399+933218372+940124400+944187025
1427+948382908+952494469+956550068+960666481+963257841+966084764+972341070
1414+979355427+983983955+985983313+987045019+988216979+989524956+990203203
1400+988306821+984961926+983990145+985314853+988935463+992282114+990329684
1387+985593915+985830314+990104745+994282893+997158586+998252331+997548319
1373+997605118+999412662+1000148964+1000006673+1000836413+1001087619+1000574416
1360+1001267470+1001367852+999742584+998807527+999247367+998970564+997561786
1346+996681771+997637826+998418295+995801254+991964154+991464419+993617361
1333+995436868+995590619+994927847+995277846+997503732+1000287408+1002045932
1319+1003025576+1004704716+1007483288+1010691663+1014220256+1017539553
1308+1020735129+1024896045+1028992465+1031473155+1033337164+1036069645
1296+1039469916+1042594974+1045304032+1047801284+1049430483+1050399504
1285+1052392086+1054789207+1055325247+1055269200+1057307038+1059554673
1273+1058818288+1056777941+1056346800+1056188364+1054020532+1051046717
1261+1049386315+1049428810+1050172306+1050532928+1051455439+1053351737
1250+1054134298+1053274527+1052492133+1052933981+1054435779+1055641617
1238+1055351597+1054525704+1054961278+1056263985+1056645186+1055722174
1227+1054593546+1054066122+1054175873+1054764781+1055422450+1056291758
1215+1058338295+1060588106+1060193270+1057806271+1057610191+1060032659
1204+1061261501+1060555398+1060314816+1060759591+1060945967+1061047437
1192+1061570929+1062828798+1063898284+1063843074+1063911334+1064691971
1180+1065053262+1064985505+1064651902+1063319750+1061688376+1061145560
1169+1060984782+1060080424+1058981492+1058397688+1058510952+1058690636
1157+1057478440+1055344152+1054062693+1053739379+1053862849+1053123536
1146+1050219151+1047819688+1047840099+1047165699+1044303642+1041651049
1134+1040793954+1040303756+1038299714+1035980556+1034277408+1031376955
1123+1026914308+1022630424+1019199954+1016021611+1012951094+1010016176
1111+1007184652+1004821242+1001558494+996320480+992283787+990802316+989064454
1097+987292294+986465146+984391422+980954511+978917594+979157256+979250611
1084+977895287+976926518+976273031+973824381+969786600+965520283+961360622
1070+957791792+955575777+954730394+954572627+953624268+950763382+946995796
1057+943955227+942050897+940777719+939133128+936460459+933024384+929332252
1043+925975145+923891550+923571833+923488767+922357379+921760190+921817909
1030+920374333+917870723+916064434+914900170+913844403+913075477+912781024
1016+912619241+912145606+911823296+911934302+911571170+910880458+910705794
1003+910359560+908992776+907329028+906990825+908697151+911123466+911763820
989+909956610+908016227+907355713+906814654+906026405+905730948+905288849
976+903861752+902157684+900814490+899331849+897335419+895168005+893187051
962+891319779+889565102+888217893+886990472+885851722+885795843+886527711
949+886737761+886907490+888498042+891158582+893200017+895130613+898313474
935+901504031+904134958+907086104+909760614+912487323+916084510+918912772
922+920263495+922331029+925753551+927845846+927415375+926977208+928414175
908+930164418+930439047+930415792+930946979+930837312+929863105+928989615
895+928708964+927892105+925157868+921941045+920767161+921459630+921859401
881+921426085+921228918+921499950+921688584+921170529+920506586+921828450
868+925076977+927406759+928475910+930340171+932750174+934723851+937611756
854+942706057+948651597+953139256+956163011+959293507+962678303+965841422
841+969019431+971669180+973056040+973759885+974149702+974858817+976965500
827+978618707+978754139+981426641+987852843+992749308+994333252+996723597
814+999844389+1001666656+1004507800+1007553221+1008344984+1010503029+1014849484
800+1015514933+1013468981+1016138723+1021978945+1024568716+1024618322
789+1024396059+1024804028+1028446471+1034464286+1037379880+1035909033
777+1036377901+1041900749+1045933762+1045356733+1045792641+1047690613
766+1047272104+1046514555+1047638665+1047564466+1044113251+1041254122
754+1043281336+1047512017+1048433356+1045363592+1042959360+1044307908
743+1045157391+1043277906+1043953309+1048207329+1049752459+1045102432
731+1039469080+1037568431+1036503044+1033811720+1031878698+1032180429
719+1033091479+1034272055+1034797471+1032727260+1031027291+1029476056
708+1024887011+1020614503+1018860412+1017956222+1017629311+1017504419
696+1016719265+1017074617+1021298774+1026560880+1028145074+1026933966
685+1025765018+1026115435+1027395138+1027469922+1026675734+1026343637
673+1027523877+1028667981+1023312771+1016959764+1024058358+1033599914
662+1032834669+1029059470+1036837567+1047800950+1045695438+1037361393
650+1031916508+1027869526+1030703058+1033928916+1012785045+982948432+981142560
637+1005114107+1033270075+1055288607+1059080034+1042976593+1027908842
625+1020990434+1020520730+1024062624+1005307007+967197331+950774759+959676631
611+968195630+973874237+996277901+1035980723+1067967518+1073741823+1052822055
##END=
