##TITLE=Sample description
##JCAMP-DX=4.24
##DATA TYPE=INFRARED SPECTRUM
##DATE=24/8/2023
##SAMPLING PROCEDURE=Instrument type and / or accessory
##ORIGIN=Default
##XUNITS=1/CM
##YUNITS=ABSORBANCE
##RESOLUTION=4
##FIRSTX=4397.6552
##LASTX=599.8556
##DELTAX=-1.9287962
##MAXY=1.4535106
##MINY=0.40653291
##XFACTOR=1
##YFACTOR=1.3536873e-009
##NPOINTS=1970
##FIRSTY=0.58969694
##XYDATA=(X++(Y..Y))
4398+435622728+436368487+435938477+435608242+435020512+434685521+435220810
4384+435437356+434339391+432865839+432652331+434374880+436740640+437401242
4371+436050625+434735189+434436700+434256480+433839107+433625027+433494694
4357+433216680+433006827+432891729+432940032+433337767+433505702+432970942
4344+432169880+431752727+432116910+433038310+433580731+432832727+431195775
4330+429983284+430128191+431782536+433717625+434204611+432973716+431436010
4317+430812306+430769507+430775011+430886367+430892839+430727281+430966195
4303+431613984+431972531+432153016+432970061+434195541+434528770+433998721
4290+433456915+432520677+431210569+430534821+430861885+431554278+431774390
4276+431660922+432019205+432564312+432248035+431611519+431704425+431891866
4263+431412233+430894556+431287976+432021230+432027526+431660437+431237825
4249+430685804+430399468+430286748+429880075+429419815+429594708+430176406
4236+430144219+429838377+430193930+430558818+430365696+430246063+430533367
4222+431206959+432114664+432350320+431134439+429434742+428833142+429465476
4209+430352355+430601792+430280364+430126606+430336459+430774131+431101372
4195+430337956+428768988+428485427+429815129+430885442+431150070+431100799
4182+430183186+428869424+428900334+429725437+429866293+429820192+430109962
4168+430231753+429987115+429731337+429783074+430137218+430373182+430050080
4155+429602105+429394409+428823939+427986772+427698983+427711840+427540646
4141+427481865+427371170+426922799+426627393+426673493+426784320+426752970
4128+426536644+426329829+426415206+427262677+428607790+429064747+428394722
4114+427757413+427702946+428091170+428264433+427637779+426918220+426794271
4101+426939663+427109183+427507359+427999981+427565040+426322740+426193420
4087+427200196+427467995+427030279+427287026+428332638+429037403+428649839
4074+427511762+426399883+425921835+426239301+426718582+426613347+426202711
4060+426326174+426689213+426340044+425840377+426033762+426339252+426337887
4047+426128165+425787539+425681688+425634046+425406624+425635279+426271972
4033+426389403+426051507+425950279+425886610+425540744+425384697+425454706
4020+425362108+425449995+425921659+426302662+426282231+425807089+425030729
4006+424388312+424156927+424254941+424346218+424081545+423607900+423445953
3993+423745586+424314956+424935533+424945704+424057328+423271633+423109422
3979+423165694+423529084+424306546+424930073+424669099+423880366+423740171
3966+424351634+424891105+424965474+424780014+424521859+424383072+424423273
3952+424259036+423825591+423527059+423290170+422502582+422012646+423042142
3939+423995332+423915151+423562768+422610371+421581447+422068477+422850826
3925+422448908+422290043+422771129+421969539+420626936+421202821+422858267
3912+423845626+424323894+424402974+422998859+420625923+419341089+418590311
3898+418913941+421348521+423279823+421945542+420609852+422572328+423524153
3885+421673384+420428971+419591847+420601530+423094759+423097886+421007058
3871+418167698+416174004+417437042+417944107+417040716+418722273+421662861
3858+423783013+423228042+415955124+411927887+417113148+422716530+425017167
3844+423826164+420925688+417537126+414397164+414841043+417950227+420188956
3831+421390395+422155615+422221090+422614113+421355786+416625589+416348280
3817+418993682+419962107+422708341+426066081+426510357+423821452+422858707
3804+423729251+421363800+419836617+421436804+422654534+424369422+426662706
3790+427892545+427886601+426973831+426039707+426068151+425317064+423870591
3777+424883620+427195969+427839135+425655930+423138747+422887372+424023864
3763+426036316+426713430+424375146+423086834+424346702+423831932+418297370
3750+414994272+419079983+422174637+421033301+422565855+425919413+425900039
3736+421518834+418464425+420123349+423655234+426534971+427449942+427157310
3723+427353205+428412026+430345794+432985428+435109191+433933775+431012560
3709+433952884+441539878+449598755+457308200+467223658+480620673+494466235
3696+506426817+515625445+521048211+521108358+519556033+520989033+522365144
3682+521078240+517488322+512049397+500420283+487913053+484134945+478832649
3669+471599051+470259750+470111321+467477939+463458760+459001689+452912024
3655+448430296+448099445+445220104+435055693+429428798+431916347+434938173
3642+435938257+435353212+434067234+432249576+430120266+428313925+424104662
3628+417766485+417480765+419877919+419838995+416226709+411732256+410041585
3615+408815973+406568834+404567038+401255134+397383151+396350044+395964374
3601+393348209+390100943+387771201+385267008+382891870+381616282+379068542
3588+373565154+370573006+371572825+371929963+369962864+367245845+365371453
3574+364459102+363940413+362318871+357162847+350956632+350129856+351949869
3561+351927611+350562904+349866482+349141331+347231340+345619881+345356706
3547+345100862+344130324+343279484+342873185+342426025+341500949+340285684
3534+339521014+339133605+338331442+337099335+335778396+334079931+332374488
3520+331599559+331558940+331478759+330948710+330014519+328938856+328026086
3507+327370812+326254464+324357154+322889942+322692858+323043810+322943529
3493+322328455+321366128+320072114+318760465+317948857+317570232+317092074
3480+316755256+316588597+315946445+314824108+313807117+313242569+312934130
3466+312608782+311935477+310894665+310118965+309855063+309728275+309251063
3453+308530204+307962222+307257831+306428215+305799800+304884257+303890426
3439+303755404+304153094+304261323+303910592+303329356+302853510+302712147
3426+302893314+302714459+301657795+300501643+300315236+301259268+302445890
3412+302860555+302618471+302420330+302381978+302249950+302044963+302008461
3399+302032678+301766861+301551768+301774764+302150550+302564532+302866125
3385+302981311+303491172+304499137+305431456+306155485+306955446+307956278
3372+308944231+309618152+310237607+311093158+311718645+312229364+313226894
3358+314207956+314803413+315796474+317601736+319474344+320572926+321120059
3345+321866654+322985402+324228363+325244077+325761225+326202155+327053280
3331+327898638+328325632+328487028+328419793+328202344+328306896+328719976
3318+328842405+328793112+329027227+329222968+329147124+329167621+329232104
3304+329091006+329177241+329699849+330210414+330668472+331364453+332233390
3291+333104197+334013686+334887422+335487789+335835196+336325221+337200718
3277+337967545+338307863+338716342+339485547+340641656+341992074+342865942
3264+343068398+343380228+344432709+345506545+345724808+345615610+345892964
3250+346449387+346812514+346761525+346743715+347099378+347574190+347747783
3237+347462614+347211019+347314823+347548850+348088431+349101526+349937571
3223+349953642+349521145+349453425+349751032+349838368+349658104+349723777
3210+350392260+351225025+351370064+351041260+351206246+351681784+351655167
3196+351314320+351295453+351667276+352231075+352839433+353234108+353476435
3183+353921371+354450276+354864874+355389882+356262605+357367131+358266338
3169+358620747+358514873+358475707+358944509+359544061+359631133+359458949
3156+359729301+360273616+360430016+360326234+360600439+361193849+361521927
3142+361543986+361503103+361479216+361553717+361591408+361719209+362142394
3129+362346281+362278341+362435929+362740736+363076629+363388745+363521939
3115+363659735+364040034+364526756+364660017+364340548+364113434+364459675
3102+365209550+365674433+365706289+365800582+366202875+366840602+367296547
3088+367346544+367533479+368032508+368342181+368506263+368892836+369308052
3075+369481998+369526910+369574023+369577590+369446244+369023125+368432621
3061+368240446+368389426+368272897+367982819+368067315+368618059+369197093
3047+369408465+369271594+368930813+368358979+367816667+367871310+368312482
3034+368537107+368606325+368686594+368508003+368028171+367984162+368798697
3020+369881934+370764762+371427037+371539449+370848025+370159640+370290677
3007+370732355+370899982+371665687+373887200+376275679+377656105+378610088
2993+379019491+378531227+377840376+377832274+378946971+380310401+381403699
2980+382783245+383584703+383143113+382507212+381925867+381123440+380722799
2966+380845822+380738078+380425323+380430034+380480935+380253645+380271566
2953+380969814+381777437+382336503+382977070+383501924+383741366+384048485
2939+384353622+384276347+383952056+383909037+384064512+383900363+383443274
2926+383019076+382888788+383014541+383012295+382967516+383066322+382968308
2912+382879321+383169311+383298323+383050294+382933171+383049018+383315407
2899+383909390+384604820+384922727+384874116+384723309+384733920+384976225
2885+385229757+385351416+385268945+385151513+385253314+385412575+385431597
2872+385195765+384818064+384807320+385203955+385472810+385417595+385397252
2858+385710051+386082248+386056357+385688607+385282507+384974287+384985207
2845+385262781+385399410+385528642+386100212+386905853+387358936+387583407
2831+388175981+389131197+389946084+390391990+390715664+391051095+391211633
2818+391274598+391633497+392433018+393318091+393952583+394414031+394840959
2804+395124565+395114305+395039188+395255514+395701859+396117559+396498870
2791+396978283+397466591+397866219+398259331+398653323+399081440+399547687
2777+399777707+399832306+400087643+400394366+400682771+401240031+401805922
2764+402125942+402597605+403292948+403805428+404196074+404714103+405336618
2750+405956182+406302841+406392357+406582264+406940106+407443473+408104075
2737+408704838+409032079+409228018+409575381+410116702+410669472+411151879
2723+411850480+412802261+413496151+413851924+414247017+414742149+415142438
2710+415340006+415448632+415589312+415826861+416256871+416729899+417150486
2696+417537566+417617571+417534748+417882287+418560590+418945115+418969993
2683+419091872+419332283+419414357+419544602+419907288+420187635+420252758
2669+420302865+420444558+420744984+421151745+421368159+421374676+421654319
2656+422274104+422531026+422294226+422275601+422614642+422880371+422938052
2642+422920307+423108673+423582318+424028224+424280303+424364183+424423273
2629+424718987+425198180+425647784+426025617+426350215+426714399+427117681
2615+427349374+427371874+427438846+427755079+428191517+428474903+428635794
2602+428790564+428922702+429076635+429138411+429010104+429015564+429378382
2588+429763612+429803372+429628436+429591097+429698401+429627247+429360901
2575+429162672+429088964+429141405+429227663+429103891+428830720+428726366
2561+428806943+428854849+428926180+429069458+429114238+429149023+429333470
2548+429479786+429350158+429070251+428946523+428987252+429070295+429232594
2534+429433993+429535662+429529938+429603030+429846347+429963426+429792232
2521+429717687+429951009+430147521+430113177+430035505+430084072+430286000
2507+430480090+430609982+430823886+431017756+431045452+430947262+430599194
2494+430003759+429667051+429820853+430011244+429954047+429803152+429710686
2480+429721958+429810109+429805926+429534121+429179889+428986107+428890339
2467+428823455+428813108+428863127+428789331+428490930+428306968+428363592
2453+428272403+427899634+427599252+427561077+427603303+427612109+427551874
2440+427358225+427126796+426965509+426823068+426671248+426639765+426835573
2426+427047363+426984575+426751649+426662926+426771199+426825093+426671380
2413+426431850+426239389+426158283+426158415+426150798+426169291+426259027
2399+426436341+426609956+426530260+426276903+426125656+425997877+425767197
2386+425427231+424811233+423606095+421604475+419007904+416219488+413353137
2372+410277901+406973394+403753383+400965496+398707746+396995367+396049134
2359+396198356+397502828+399927590+403519533+407932440+411299736+411443146
2345+408674897+405988634+404952621+405063976+405942048+407135077+407858996
2332+407862475+408211951+409523512+410921155+411816400+412655064+413958480
2318+415771205+417661954+419123090+420134005+421012958+422070195+423306814
2305+424396854+425196551+425905367+426686747+427271351+427510177+427767452
2291+428077829+428308553+428700299+429252716+429638695+429766034+429796371
2278+429785892+429734375+429818651+430193974+430714292+431006176+431013353
2264+431112423+431428260+431723798+431870291+431957737+432135051+432433011
2251+432736211+432973540+433193256+433437101+433758882+434141867+434409049
2237+434594641+434841657+435039533+435250752+435688335+436226266+436690708
2224+437089324+437360204+437452186+437593350+437992406+438423385+438595723
2210+438640855+438878272+439362925+439883992+440280010+440621428+441042676
2197+441543709+442032412+442332750+442411566+442546170+443022369+443780324
2183+444344717+444589708+444926107+445450212+446043138+446623250+447014337
2170+447299087+447796597+448472830+448993545+449289259+449580042+450070111
2156+450696060+451312807+451967376+452577562+452974373+453126237+453090175
2143+453141604+453444319+453638585+453539119+453471707+453341154+452887015
2129+452490248+452372244+452108981+451467048+450777562+450212068+449566833
2116+448809450+447996984+447097732+446204645+445386014+444469414+443417638
2102+442443445+441569203+440639393+439568375+438480097+437536814+436610175
2089+435615199+434676847+433758266+432761044+431786367+430930662+430098030
2075+429241797+428457951+427751468+426984134+426010382+424948170+424179295
2062+423710758+423153013+422415752+421664710+420956290+420275522+419623242
2048+419001563+418413437+417900384+417455447+417007781+416543206+416120506
2035+415739635+415300026+414799258+414245828+413671880+413251909+412907100
2021+412349795+411502897+410697035+410357290+410262842+410007681+409656663
2008+409285435+408803248+408310890+407930855+407541971+407136750+406803125
1994+406283467+405481129+404903922+404755492+404719695+404574788+404237067
1981+403851133+403559469+403258427+402951617+402734058+402452038+401780075
1967+400893461+400463935+400440378+400265354+399909140+399574546+399276939
1954+398989106+398680006+398312785+397902721+397402525+396621453+395935357
1940+396078063+396548714+396548978+396150847+395689574+395352647+395226673
1927+395071110+394378013+393447147+393055621+392802000+392583781+393007803
1913+393440410+393071604+392335092+392171736+392552299+392860386+392930660
1900+392839119+392540542+392083585+391863605+391823448+391431217+391181075
1886+391541251+391988081+392385200+392732607+392913443+392991247+392983057
1873+392705792+391539490+389657503+389390981+391027141+392412499+392857700
1859+392890459+392943165+393138311+393338258+393415357+393195112+392482949
1846+391132024+390035292+390921026+392436364+392977949+393146413+393426056
1832+392711031+390654020+389647684+390389172+391314886+392425048+393520019
1819+393946550+393891027+393698654+393135934+392245356+392075571+392859505
1805+393528825+393238219+392018727+391199128+391596070+391909221+390874177
1792+389872596+391407176+393737358+394669941+394379951+393897191+393706404
1778+394025014+394140508+392713541+390049382+389990336+392808209+395356698
1765+396505035+396202627+395788997+396561747+397511018+398371611+398564071
1751+396482226+393710366+393935675+395922104+397290289+397458181+397233929
1738+397698063+397334629+394932720+395143586+398384996+401329327+402996793
1724+403518961+403622434+402888256+399554468+396109193+398072109+402016348
1711+404596231+405130375+403616490+402027399+402050164+400869684+397946312
1697+398016234+401177419+405099333+407497543+407745131+406732631+403839244
1684+400265662+402578055+406971501+409419995+409340914+408375308+407996594
1670+407479842+408800298+411871483+413113166+412735686+414107570+416480902
1657+417142385+414323984+409568997+411498053+414332482+415273871+419099401
1643+424835714+428777178+430532839+430293441+431135188+437745126+445022183
1630+449896759+453555190+457563053+461999518+467583570+473332608+477304850
1616+481558408+488676600+495680928+501086213+506022081+511454181+516759428
1603+521699390+526871089+532190426+536884781+541094572+545605714+550270480
1589+554701088+558977631+563269584+567636743+571914827+575292602+577183131
1576+580851160+588348110+594754580+599628055+606280264+614295682+621676697
1562+627082071+629154625+633798521+647281001+660599772+672483695+683286604
1549+694022278+703609086+710838282+716356772+724060624+742345249+760876184
1535+774144231+787530019+802955865+816278775+827081773+837120299+846552073
1522+856876890+869640515+882724423+896467656+910575909+922008907+928515240
1508+930318499+937871721+954878468+968129783+976904434+982420854+987585465
1495+995408070+1002714540+1005945911+1006250960+1010383740+1017052725
1483+1021844125+1024997561+1027491231+1027328491+1023538891+1019016522
1472+1018347334+1022293861+1024896729+1023006552+1021416405+1023269683
1460+1022728891+1014167440+1007854581+1013812988+1019907187+1022790447
1449+1023603177+1023010867+1022175681+1022401562+1023687277+1023325427
1437+1018997324+1017168791+1020682755+1022766493+1022504243+1023431895
1425+1024931690+1026764978+1028585673+1026181035+1021807051+1022955388
1414+1026470761+1028412014+1028123345+1025831954+1022064810+1019282559
1402+1019075612+1017954838+1014228731+1009936822+1006586390+1007067741
1391+1009910755+1008992702+1002669100+998467278+999827230+1003148248+1005597271
1377+1006117897+1005465617+1006457731+1008335050+1007565735+1005454873
1366+1004592124+1003574207+1002293688+1002479941+1002920254+1002975205
1354+1003504550+1003457613+1002060939+1001223375+1001026467+999954216+997785585
1341+994625017+992978421+994594371+996171397+996419029+997205164+998774089
1327+999939245+1000858267+1002720704+1005012447+1006530823+1008350461
1315+1011258995+1014008223+1016120229+1018225279+1020612921+1023623960
1304+1027381241+1031362377+1034738787+1037052897+1039967683+1044118868
1292+1046908165+1048423723+1050833645+1053524752+1055369224+1056471328
1281+1057645468+1059518912+1061236222+1062140449+1062475528+1061741261
1269+1059893971+1058464274+1057709753+1056491406+1055420829+1055522629
1258+1056234792+1056550497+1056463315+1057282649+1059031486+1060354099
1246+1061385841+1062408864+1062366154+1061308874+1060824177+1061779569
1234+1063496350+1064382348+1064026575+1063169373+1062162113+1062244539
1223+1064320440+1067107447+1068707017+1068399502+1067582545+1068026117
1211+1069527937+1070391744+1070393417+1071074141+1072145864+1071879826
1200+1070210775+1068476821+1067658719+1067570481+1067451332+1068109952
1188+1070660599+1072926099+1072857586+1071269024+1069046322+1067622966
1177+1067889443+1068170451+1067144698+1065919306+1066028151+1066861400
1165+1066374854+1064488288+1063309305+1063801663+1064741116+1064636585
1153+1063143747+1060792122+1058594431+1057251387+1055522629+1052194125
1142+1048859721+1047016482+1045360376+1042951069+1041351059+1040553388
1130+1037999307+1033027730+1027546622+1023727521+1022005632+1020991150
1119+1019461678+1016586873+1012662625+1009275119+1006230705+1002331467
1107+999397572+999823443+1001156007+1000213737+999121408+1000156848+1002031614
1094+1003214824+1003796390+1005179942+1007482516+1009529708+1011169699
1082+1011837126+1011882038+1013506442+1016732969+1019437725+1020273352
1070+1020134125+1021251904+1023451709+1024632805+1025155721+1027069851
1059+1030386114+1032396497+1031841262+1032041956+1034634785+1036950128
1047+1037970598+1037805921+1036377281+1035407447+1035527388+1035239071
1036+1034177300+1033923151+1034794002+1035417838+1036761762+1039125364
1024+1039494875+1037785314+1036297056+1035661860+1035716723+1035477809
1013+1034858640+1035018562+1035827417+1036664101+1036764316+1035013983
1001+1032406272+1030786976+1029990977+1029686809+1030054735+1030875478
989+1031683894+1031568532+1031099158+1031795997+1032292935+1030365332
978+1027853785+1027928198+1029186701+1027993892+1024067443+1020184056
966+1019010357+1020456346+1021917746+1021896787+1021004624+1019812960
955+1018986845+1019007099+1018885661+1018207754+1017675151+1017599594
943+1018040876+1018073899+1016792235+1015346863+1015525894+1017145454
932+1017589202+1016516159+1016814867+1018264907+1019245749+1020513146
920+1021293998+1020339839+1020100397+1022404644+1024397238+1023878196
908+1022747912+1022616787+1022449556+1021003479+1019393254+1018889271
897+1018529359+1018174819+1019267764+1020743518+1020262696+1018675631
885+1017158488+1015513037+1015361129+1017845729+1020636698+1021248381
874+1020026952+1018197627+1016679251+1016697392+1018857480+1022458715
862+1025764146+1027483305+1028782582+1031777064+1035584805+1037238269
851+1036681625+1036551733+1037719708+1039038006+1040555325+1042718496
839+1044332332+1044624700+1044636148+1044866872+1044195659+1043425023
827+1044664240+1047208282+1049095729+1049267099+1048749995+1050549819
816+1055748422+1060997132+1063059559+1063611360+1064690744+1065708044
804+1065726889+1065161527+1065868934+1067136948+1067185471+1068325442
793+1072070834+1073741823+1069635990+1064314100+1062628316+1063219481
781+1062849618+1060889960+1059975781+1060950371+1061443786+1060258639
770+1056947923+1053600486+1054257169+1057514518+1058842327+1057735644
758+1056127620+1054722316+1053451043+1051874722+1050567520+1051669800
746+1053905183+1053574331+1051542197+1050580113+1051111835+1053846445
735+1057529577+1057991378+1055585418+1052504282+1048646521+1046617646
723+1048578889+1051755661+1052104125+1048344114+1044589475+1047178341
712+1053736719+1055002179+1051231072+1049216023+1049948352+1051067276
700+1050061952+1045865327+1042440746+1042224200+1041810570+1040144337
689+1040071685+1043373682+1047727852+1048698302+1047372343+1047384936
677+1048358645+1049359653+1050634272+1049125934+1042470247+1039772888
665+1046364290+1054843490+1061910606+1060862748+1052283949+1047580523
654+1047984819+1049255651+1055995350+1066485549+1065914638+1055790164
642+1055103451+1062258453+1060899471+1057252972+1062285665+1068613759
631+1067295989+1054847013+1038432311+1021266346+1004567026+997042601+1005430568
617+1023626249+1025754635+1008984513+1009798916+1036585813+1056188735
606+1051699918+1042329523+1045038242+1057037483
##END=
