##TITLE=Sample description
##JCAMP-DX=4.24
##DATA TYPE=INFRARED SPECTRUM
##DATE=24/8/2023
##SAMPLING PROCEDURE=Instrument type and / or accessory
##ORIGIN=Default
##XUNITS=1/CM
##YUNITS=ABSORBANCE
##RESOLUTION=4
##FIRSTX=4397.6552
##LASTX=599.8556
##DELTAX=-1.9287962
##MAXY=1.5251193
##MINY=0.58997172
##XFACTOR=1
##YFACTOR=1.420378e-009
##NPOINTS=1970
##FIRSTY=0.84222901
##XYDATA=(X++(Y..Y))
4398+592961159+593513237+593199640+592512481+592342695+592334386+592587345
4384+593448864+593884702+593548612+593340178+592908746+591166488+588569928
4371+587082852+587643658+588087636+586801400+585913989+586374543+586459184
4357+586054064+585593678+584376892+582947097+583030102+584672822+585954568
4344+585947518+585388223+584808071+584351378+584179955+584266527+584506309
4330+585105889+585741559+585909960+586605638+587949869+587955870+586115667
4317+584450077+584285914+584837320+585830481+587205974+587411304+586239293
4303+585296783+585413233+585850455+585160778+583369590+582229891+583062120
4290+585138663+586023515+584829725+583554903+583251419+583184319+583434928
4276+584371059+585434635+585411513+584405973+583770975+583067659+581485493
4263+579651963+578816965+580295690+583101063+584840677+585133753+584488936
4249+583126409+581938914+581987382+582947810+583401273+582787550+581648271
4236+581018435+581418855+581682598+581195145+580888892+581238997+582122296
4222+582423009+581387088+580150663+579145920+578607397+579208698+579586248
4209+578776638+578032365+578054313+578828085+579658258+579042731+577837443
4195+578628799+580694557+580716043+578488178+576994681+577357879+578126449
4182+578595941+579118602+579000054+577660271+576251248+575211634+574016207
4168+573769543+575050283+576303661+576307312+574968201+573766480+574382301
4155+575714404+575766145+574695729+573964760+573805087+573220571+572312682
4141+572003366+572677684+573898373+574250702+573624894+574174076+576199465
4128+577405802+577196402+576767153+576147052+575034252+574241638+573868201
4114+573240756+572654436+572126488+571369920+571413521+572922627+574424391
4101+574372313+573310290+572509325+572183055+571832530+571369081+571315451
4087+571832153+572120067+571847470+572049400+572507562+572212724+572071599
4074+572470844+572086076+570467402+569340335+569861485+570119815+568962198
4060+567877052+567879822+568954812+570600679+571618305+571404666+570787796
4047+570408065+570396399+570399672+569458127+568469079+568703532+568966352
4033+568843356+569554602+570484943+570038153+568863289+568411421+568072730
4020+567676003+568451455+569653763+569754938+568975081+568647384+569496315
4006+570353260+570486705+570685992+570443734+568890229+567984228+569144909
3993+569749147+568545831+567876465+568193167+567780158+566691236+566089137
3979+565844278+565704034+565981122+566463833+566638235+566475625+566273191
3966+566284227+566814148+567487291+567868995+568039537+567199293+565453090
3952+564285485+563876211+563967231+564882506+565640249+565326778+565238109
3939+566096103+567094341+567123086+565132779+562873189+563049186+563885359
3925+563139325+562583219+563517629+563639954+561755648+560681497+562438359
3912+565077555+566371722+566368701+565462658+563647550+562030763+561171972
3898+561513810+563541843+564817504+562088967+559012844+560855564+563449858
3885+562985401+561857494+560131854+559497065+561232819+561533953+559919222
3871+557976376+557018382+558778433+559736973+559488421+562125182+565532192
3858+566505881+563560349+554709610+550708434+555637852+561019852+563488548
3844+562632652+560576839+558712508+556060681+555250567+557249477+559007682
3831+560248975+561726945+562833953+564101138+563441297+558350821+556565591
3817+557921152+557719641+559325643+562597486+563782338+560883596+558397652
3804+558199750+555650106+554233194+556516619+559049394+561605501+564036765
3790+565067483+564363119+562472392+561027322+561218971+561332735+560833742
3777+561695472+563195682+563578016+562218804+560857704+561165299+561430595
3763+561616999+561298325+558409948+556599750+558498114+559301849+554639111
3750+551375366+555447336+558734371+556336174+555448134+557863116+559517082
3736+557542763+553549056+553586194+557741336+561313054+561058501+558578223
3723+557621404+558374866+559909948+561685358+562341380+559598324+554932313
3709+555294839+559165928+561660348+560882379+558936847+559861312+562279190
3696+563562741+563479023+561482001+556887454+554091062+555771130+558567145
3682+560233868+560402101+558719138+553194041+548678386+550107090+550659420
3669+549580947+551140410+552772765+552656105+552382878+552383130+550812336
3655+549379897+549729121+546335582+536388452+532764993+536849804+540265668
3642+540435454+538077123+535546991+533738430+531673133+529118201+523643377
3628+515653403+513887267+515575644+515905858+513508752+509762548+507555246
3615+505321590+502657677+501163552+499309879+497366487+496997792+496225572
3601+493737531+490838662+487966189+484890527+483348436+483876511+482902528
3588+477969836+474420442+474781584+475464463+474935760+473519938+471482506
3574+469576924+468983973+468927910+466360305+461706673+460447671+461175451
3561+460414225+459282920+459409399+459327234+457733779+456086695+455342968
3547+454357068+452798653+451478048+450711032+450260549+449458660+448570074
3534+448474816+447932894+446133732+445115058+445302595+444632263+442960336
3520+441883625+442039773+442423743+441831548+441021980+440784842+440236919
3507+439292227+437862809+435917487+435058528+434955758+434004646+432584922
3493+431552483+430954036+430646776+430374472+430152818+429885256+429429570
3480+429426087+429858400+429829990+428954874+427884836+427399313+426892641
3466+425777911+424440562+423199269+422510977+422545345+422717775+422530868
3453+422129231+421497548+420471950+419702121+419387979+419254996+419803926
3439+420740687+421037288+420568509+419673040+418862465+418531537+418347358
3426+417933677+416992175+415684411+415362463+416323186+417320584+418181768
3412+419006905+418877824+417756380+416915590+417087852+417903757+418612360
3399+418559024+417995155+417978579+418385545+418231579+417834894+418172704
3385+419190119+420003674+420254534+420645303+421720335+422828014+423248661
3372+423557767+424694025+426118280+426719330+427170610+428782612+431033138
3358+432359324+432716940+433301414+434316438+435502254+436951311+438361928
3345+439189457+439614845+440579974+441907041+442487864+442468267+442562853
3331+442949089+443376114+443401125+443325632+443832011+444393026+444070743
3318+443405447+443414763+444217156+445283669+445813589+445876745+446207337
3304+446601756+446619716+446507841+446611408+446877753+446942881+446959331
3291+447420556+448245693+449354170+450538728+451268858+451856143+452677084
3277+453238309+453410949+453832770+454800585+455815734+456259251+456111873
3264+456060048+456303858+456434073+456902978+457928030+458687578+459051699
3250+459691355+460589215+460726353+459963323+459625304+460147671+460801720
3237+461243433+461610743+462087453+462382795+462008645+461737012+462384180
3223+463025011+462850399+462418716+462483005+462931432+463050693+462764961
3210+462814646+463503862+464201974+464624383+464946120+464897190+464449141
3196+464082754+464383132+465570585+467017292+468172727+469214691+470319182
3183+471062950+470973525+470635590+470989849+471730303+472283849+472930681
3169+473594005+473947089+474250027+474573107+474811211+474952923+474873989
3156+474829003+474955902+475025394+475473695+476545580+477644741+478404288
3142+478752505+479006806+479438867+479448015+479020822+479185111+479864549
3129+479955317+479412430+478948015+478911045+479329131+479733915+479548309
3115+478980579+478815283+479323844+480113353+480658465+480460814+479849232
3102+479687881+480168578+481045120+481746296+481731021+481225901+480740924
3088+480508737+480581461+480979195+481395309+481504499+481661864+482206136
3075+482834001+483175713+483208403+483090904+482910962+482584231+482200177
3061+482160731+482526531+483110123+483627287+483479826+482922670+482821034
3047+483022041+483084777+483192457+483607983+484105718+484040548+483544450
3034+483433120+483593716+483508907+483576678+484166355+484775923+485149990
3020+485590401+485960565+485972021+485871182+485908824+485702361+484969041
3007+484495814+485078148+486290234+487237570+487637654+487875295+488440927
2993+489478276+490831570+492053728+492681424+493057421+493813443+494749743
2980+495337531+495429474+495297708+495309038+495520788+495737825+495888937
2966+496355031+496980083+496841854+496056499+495241895+494447938+494217136
2953+494923557+495739839+496045799+496246764+496617557+496762123+496602072
2939+496534594+496541351+496523390+496646009+496738749+496577440+496240805
2926+495704967+495236860+495472907+495883524+495402701+494588769+494397287
2912+494738748+495136944+495117389+494787888+494820997+495431530+496261283
2899+496946428+497145421+496777356+496451590+496601233+496881174+497004926
2885+497098002+497270096+497615627+498247856+498772195+498719320+498312774
2872+497844960+497546848+497802073+498417054+498874545+499160152+499189107
2858+498679790+498228930+498499220+498793135+498390827+497734679+497409920
2845+497543995+498025153+498539673+498828217+499029770+499365859+499827000
2831+500367622+500816426+501082016+501553816+502258307+502621630+502831660
2818+503532961+504323855+504585794+504774296+505390243+505977654+505975597
2804+505637956+505610595+506041900+506596873+507127507+507663429+508038964
2791+508187474+508372157+508722850+509055078+509218318+509265905+509551302
2777+510200820+510576355+510419955+510324865+510541357+510836951+511074467
2764+511310472+511683909+512208080+512806654+513382651+513838799+514210305
2750+514512991+514747821+514984582+515149290+515185841+515221804+515454158
2737+515912069+516351767+516776316+517340773+517797592+517939556+518040815
2723+518373463+518842746+519355587+519802796+519971240+520143292+520635403
2710+521003007+521031416+521266624+521911861+522674850+523298350+523628228
2696+523822269+524019500+524065492+523991342+524052022+524455547+525100155
2683+525653240+526042665+526298435+526297931+526130034+526207751+526734818
2669+527379720+527806325+527995247+528018243+528070740+528300618+528563984
2656+528633056+528497135+528517236+528916523+529375650+529781273+530321727
2642+530715307+530715348+530654291+530805739+531184421+531769063+532448753
2629+533014888+533357607+533606789+533898690+534335367+534968896+535537675
2615+535850517+536125800+536623240+537279095+537775822+538212960+538917702
2602+539493825+539662940+539933019+540385517+540751568+541122613+541431048
2588+541654967+542069697+542597687+543063361+543580944+544089337+544319761
2575+544391603+544777252+545330966+545463865+545353962+545529917+546050227
2561+546781743+547432310+547723749+547933485+548417371+549026603+549408895
2548+549347208+549052075+549020980+549252453+549378681+549673393+550448761
2534+551036591+551132353+551337557+551778346+552160721+552401175+552588585
2521+552959253+553632270+554295426+554561016+554655267+554992783+555362863
2507+555569913+555985230+556692364+557234328+557376460+557319725+557302771
2494+557365633+557516494+557807220+558263661+558745114+558977090+558976041
2480+558859591+558759214+558927489+559165928+559199163+559208353+559257241
2467+559193624+559081664+559128748+559194967+558997988+558773020+558828118
2453+558855227+558444400+557818886+557488336+557506129+557584559+557528999
2440+557454135+557544735+557407975+556758122+556104156+555736594+555546371
2426+555471717+555349896+555191944+555163240+555078389+554665884+554098406
2413+553665967+553281914+552780319+552237096+551702517+551231388+551001342
2399+550859336+550532437+550142970+549866175+549732227+549627359+549170162
2386+548098235+546610740+544917789+542971837+540658492+537798230+534486395
2372+531066545+527525586+523859407+520212364+516807453+514375853+513491295
2359+513938253+515251724+517038842+519592137+523259449+526141028+525841532
2345+522615009+519405566+518106656+518111062+518179590+517862888+517682149
2332+517963475+518676275+519654412+520404811+520897509+521886977+523584292
2318+525456974+527160710+528463144+529220258+529682029+530310984+531345143
2305+532481988+533193864+533326764+533243969+533411867+533856768+534322736
2291+534652866+534824666+534943089+535060671+535202510+535505783+535961427
2278+536333437+536549887+536740026+536782493+536581360+536468771+536605196
2264+536741914+536902259+537436585+538229997+538822444+539151819+539371542
2251+539618542+540068017+540638475+541049092+541263234+541585014+542265962
2237+543082664+543709312+544173894+544567516+544920600+545204780+545523328
2224+546171545+546788667+546903144+547076078+547752494+548546746+549203103
2210+549748635+550198824+550747460+551490515+552210490+552780193+553203819
2197+553664583+554394209+555201973+555941545+556817039+557816158+558574824
2183+558945282+559334287+559891400+560374153+561056193+562110663+563070798
2170+563807894+564538234+565188969+565826905+566718764+567683095+568424766
2156+568999126+569453763+569717339+569816541+569982047+570419269+570905421
2143+571066059+570923760+570795728+570847385+570792874+570341048+569703113
2129+568995937+568187208+567534920+566991949+566250572+565359594+564364336
2116+563154935+561943269+561002899+560074699+558812801+557337937+555973144
2102+554836803+553674234+552320268+551081031+550082122+548942004+547471714
2089+545949514+544535959+543182664+541984049+540874690+539645273+538437551
2075+537430291+536522317+535532430+534293949+532878002+531535408+530328987
2062+529197891+528092309+527038889+526094448+525103302+523882404+522587187
2048+521442873+520256384+518905901+517749207+516868343+516056257+515242828
2035+514274049+513185672+512257178+511509801+510765025+509802708+508576690
2021+507481809+506649160+505725366+504834053+504243662+503638332+502760699
2008+501778029+500894815+500119699+499407151+498703710+497970642+497344456
1994+496678657+495607066+494505554+493874249+493561324+493282306+492751798
1981+491980878+491224898+490467072+489605300+488745795+488051964+487364091
1967+486543486+485909243+485535890+485154942+484664971+484057837+483394555
1954+482757626+482104332+481393799+480725733+480138615+479278187+478249441
1940+477955526+478113688+477855232+477370423+477105798+476925227+476517212
1927+475878395+474967778+473871051+473111378+472427324+471664377+471502271
1913+471559426+471161188+470595682+470353382+470350319+470327407+470236681
1900+469976546+469406340+468656277+468137057+467850234+467390183+467046667
1886+467088379+467138610+467095219+466898660+466510535+466150107+465945407
1873+465623670+464368990+462275578+461750819+463256778+464723921+465272851
1859+465121319+464737643+464513136+464308730+463949938+463545028+463016241
1846+461815443+460358036+460518086+461473899+461716534+461660302+461740747
1832+460974192+458919512+457725009+458109902+458553839+459119848+459773730
1819+459909651+459675031+459272597+458371841+457181912+456817749+457138857
1805+457060090+456252327+454890681+453890891+453801214+453475951+451869236
1792+450216235+450838266+452402136+452959123+452466215+451611116+450820306
1778+450508136+450069319+448119969+444961805+444314554+446366338+448246280
1765+449069780+448598274+447751861+447790384+447942923+448173305+448127984
1751+446176955+443359916+442988829+444266883+444976325+444486228+443731759
1738+443830122+443189920+440415853+439914300+442331171+444636333+445887110
1724+445873304+445321101+444209854+440645396+436678923+438089960+441576701
1711+443539186+443361889+441353663+439500368+439184170+437531546+434041742
1697+433648288+436411025+439739478+441463063+441148669+439968266+437336372
1684+433332090+434184125+437595793+439507837+438808550+437090463+436132846
1670+434798309+434867844+437197136+438175315+437129867+437110144+438153158
1657+437995541+434508087+427798054+427477072+429109805+428704979+430715890
1643+434899988+437285847+437202717+434973551+433594910+438086393+443721520
1630+447058323+449003729+451215019+453826056+457571043+461805456+464537601
1616+467263494+472584521+478111632+482261990+485716209+489407399+493050581
1603+496422886+499911306+503463637+506643369+509590161+512834476+516378330
1589+519983367+523600532+527097344+530290715+533209097+535372673+536063316
1576+537912582+543452492+548337555+551194208+554968989+559994464+564346501
1562+567169037+566686368+565859846+573671768+582886333+590501821+596677443
1549+602270438+606791212+609082317+608938464+609054453+618062975+630010022
1535+638002347+644706084+652489512+659150489+663685405+667304710+670546004
1522+674783983+681751506+689289445+697007577+704556762+710084419+712661675
1508+712115725+715500871+727458157+737168527+742690309+745754263+750292410
1495+757527663+763306684+765899467+768671017+776124398+784792300+791165866
1481+795848285+800502337+804495204+805727265+805820174+810894536+819494792
1468+826000628+829773856+834410703+840966979+845347174+845242013+848490692
1454+859678192+870041940+877532082+883597884+890016183+897190505+904506832
1441+910911619+915002347+918308601+925035167+933083681+939387083+945399507
1427+951995062+957025194+960674210+964749579+968003798+970420165+975147233
1414+980459783+983847363+986206156+989045100+992132302+994825715+996537004
1400+996037549+993870616+992301333+992242415+995152446+998957903+999332893
1387+996261553+995242165+997660714+1000131802+1001663150+1002735664+1002862143
1373+1003098484+1004709983+1006984428+1008984849+1009407341+1007334155
1362+1005271712+1005885560+1007143052+1007090345+1006192401+1005664746
1350+1005532140+1005354633+1005196261+1004716110+1002490007+998370408+995699236
1337+996078590+997646195+999603560+1001049973+1001387279+1002502680+1005086148
1323+1007216908+1008755306+1010883045+1014377717+1018490182+1020741883
1312+1021913012+1024272476+1027520904+1031315702+1035180832+1038163292
1300+1040254775+1042440928+1046088516+1050720495+1053778658+1054986464
1288+1056613322+1059187389+1061838586+1063761374+1064123438+1063464773
1277+1063276942+1063850841+1064207618+1063758688+1062834810+1062113954
1265+1061956421+1061473752+1059363134+1056904803+1057139130+1059614750
1254+1060936614+1060102371+1059222303+1059835228+1060416009+1059434892
1242+1058960364+1060592677+1062254449+1062361289+1061771612+1061362799
1231+1061419535+1061846560+1062233803+1062504050+1063088104+1063970018
1219+1064469221+1064828349+1065652940+1066481476+1066927468+1067291967
1207+1067702458+1067888778+1067852941+1068038841+1068703885+1069460495
1196+1070007453+1070799396+1071932170+1073055461+1073741823+1073251516
1184+1071970106+1071253446+1071472498+1071805020+1071222980+1069868972
1173+1068846311+1068961124+1070372959+1071581436+1070542577+1067886596
1161+1065833301+1064863430+1064124026+1064197295+1065479713+1065663515
1150+1063169179+1059263680+1055764727+1053963887+1054043367+1053638583
1138+1050742400+1047431362+1045299091+1043679703+1042810294+1041741976
1126+1038991912+1035703031+1032950869+1029771849+1025697571+1021962614
1115+1019242176+1016837475+1014253672+1011259545+1006995423+1001997686
1103+998503182+996313504+994184842+992843171+992015307+990806661+989293023
1090+987441154+985873466+984198685+981054832+978078246+977493521+977776106
1076+976064397+972320963+968578452+966318694+964952936+962447186+958839211
1063+955778781+953404378+950947139+948012181+945054396+943228797+942775335
1049+941494260+938002693+934668407+932475959+930209907+928821488+928889470
1036+929051787+928737896+927625516+925230215+922722115+921681913+921210323
1022+919392109+916941920+915767517+915708432+915671923+915437932+915173476
1009+914574315+913416026+912599660+912751150+913316068+913940156+914602179
995+915020391+914831637+914356857+914578763+915259166+914706753+912541414
982+910571123+910138559+910525970+910010821+907649175+904088032+900421895
968+897522439+896003597+895465955+895141238+894399819+892851854+891207288
955+890346691+890814757+892674179+894638594+895712703+896009052+896264948
941+897505486+899499528+902115811+906082913+910198652+912644393+914394457
928+917241962+920679731+923479228+925648931+927622243+929365089+930547129
914+931626693+933610076+936329507+937989097+937483095+936501475+936209826
901+935127828+933619980+933933534+934717840+933479065+931472602+930137142
887+928871509+927255143+925754932+925665213+927222075+928532609+928421237
874+927555772+927220313+928644736+931451788+934349397+937339159+940344532
860+942678734+944524643+946189436+947852634+950479073+954587090+959427797
847+963428135+965301992+966865316+969881935+972619662+975140771+979041822
833+982495873+983481690+983794824+985475228+988118116+991968139+997344642
820+1002589546+1005507969+1005372761+1005032014+1006689841+1008418755
808+1009292276+1010561098+1013241502+1017608184+1021039659+1021402983
797+1022236722+1026258041+1030198958+1032283726+1036014823+1041882555
785+1044957337+1044060064+1042991159+1043159350+1044354147+1047332159
773+1050895317+1053388142+1055659230+1057536528+1057166490+1055319490
762+1055005096+1056462084+1057331157+1057860741+1059302538+1060069387
750+1059408959+1058639340+1057609965+1054737534+1050112857+1046285327
739+1044031360+1041715791+1040951795+1044949196+1051217348+1052574461
727+1047366654+1042099089+1042187381+1046832705+1050307234+1048779831
716+1045234634+1044121499+1046122927+1046861324+1042720323+1037059137
704+1033842854+1031301686+1029148013+1031707393+1037957585+1042440676
692+1043089438+1040393256+1036625734+1033761108+1032552127+1034028335
681+1040006264+1047865269+1049379579+1045067450+1041205174+1036312096
669+1028602566+1027820442+1037817342+1045146258+1045664093+1046754064
658+1051458892+1050944163+1042559853+1034158423+1030878438+1031728711
646+1033488091+1039873994+1054384198+1066189155+1064175809+1047310926
635+1024002984+1015063324+1024319224+1026814567+1014848133+1006831008
623+1017399372+1047994182+1059357007+1026007769+1001397434+1008687408
611+1023295892+1036903032+1055992675+1062447399+1047380082+1038069713
600+1046388055
##END=
