##TITLE=Sample description
##JCAMP-DX=4.24
##DATA TYPE=INFRARED SPECTRUM
##DATE=24/8/2023
##SAMPLING PROCEDURE=Instrument type and / or accessory
##ORIGIN=Default
##XUNITS=1/CM
##YUNITS=ABSORBANCE
##RESOLUTION=4
##FIRSTX=4397.6552
##LASTX=599.8556
##DELTAX=-1.9287962
##MAXY=1.4416916
##MINY=0.53224301
##XFACTOR=1
##YFACTOR=1.34268e-009
##NPOINTS=1970
##FIRSTY=0.67024171
##XYDATA=(X++(Y..Y))
4398+499182031+498463941+498097483+496977021+496471127+498203980+500688040
4384+501720649+500931886+498893747+497036906+497020437+498488712+499677760
4371+499624045+498257739+496324144+495568631+496483157+497148775+496535851
4357+495934291+496552098+497832283+498118036+497496633+497336022+496997264
4344+495772614+494867455+494211071+492863542+491738952+491419062+491416709
4330+491897655+492896482+493684400+493212111+492074469+492965778+495910985
4317+497557406+496648429+494611134+493052298+492909222+493362024+493422486
4303+493452717+493452628+493423862+493996967+494386731+493179482+491631567
4290+492069986+493680272+493818909+492667861+492524829+493490539+494077361
4276+493653281+492431073+491330055+491043769+491511042+492327062+492735337
4263+492303578+491417108+490584309+489834878+489282372+489051443+488761428
4249+488618618+489343722+490745542+491781391+491700686+490747673+489660505
4236+489079588+489050777+488876315+488263347+487549563+486946982+486673392
4222+487137514+488496051+489685454+489394773+488406378+487842996+487131654
4209+486125991+485628309+485902520+486829742+488043338+488772615+488274622
4195+486559881+484802701+484238164+484957408+486087369+486671661+486420800
4182+485564695+484575279+483996404+483956095+484088784+484009632+483825982
4168+483726365+483685258+484098950+484797329+484579674+483431156+482435659
4155+482132948+482546063+482852725+482288321+481645698+481630427+481566236
4141+481282347+481606544+481980949+481399099+480779649+480745511+480726556
4128+480628316+480592225+480976751+481733861+481668649+480619659+480114564
4114+480354504+479860151+478644335+477990570+478191134+478985446+479882880
4101+479935885+478864654+477600051+477063215+477476374+478568203+479287446
4087+478957656+478336652+478297765+478870292+478953883+477741263+476684637
4074+477008435+477399398+476853506+476307125+476464496+477125187+477669525
4060+477289216+476224423+475482050+475246194+475270699+475397882+475235540
4047+474873743+474792194+474923107+475041412+475008296+474717215+474228057
4033+473817472+473692863+473274999+472465905+472418982+473366802+474270851
4020+474478163+474099230+473516226+473233936+473778096+474370911+473778851
4006+472997458+472929982+472732303+472468391+472559084+472643696+472689464
3993+472941524+473014638+472269291+471356585+471325600+471935017+472253665
3979+472465683+473369155+473767575+472773721+471809831+471369592+471286268
3966+472238749+473696681+473605943+472122486+471229757+470938188+470823301
3952+471897461+474304767+475804871+476034601+476250348+474489971+471014854
3939+469510488+470677960+473002075+473973778+472387774+471236549+471786480
3925+471666044+470478240+470126697+470588954+470522765+469462988+468462741
3912+468134726+468975916+471433695+473593247+473101691+471022178+468626371
3898+467175453+468148266+469558831+468296802+466763492+469007390+470911508
3885+469301799+468505535+467572142+465288692+465222147+466275399+467183221
3871+467151348+465661720+466085356+466477872+464052411+462750962+464563677
3858+467885818+469766320+464819065+458924301+460070155+463206604+465516158
3844+466315485+465843995+463632149+459284456+457517909+459597377+461278114
3831+461692561+462169645+462819459+464156954+464368617+461325259+460775993
3817+461568839+460125379+460992228+463858150+465174515+463248022+461695757
3804+462881697+462227754+460760145+460961597+460495922+460486955+461366233
3790+461902225+462572283+463501236+463930243+464026752+463100728+461426651
3777+461442010+462694406+463782150+463765326+462956498+462766321+462760684
3763+463338050+464052810+463080796+462327637+464148209+466605855+465687246
3750+463813136+467117033+470673432+470493954+472238261+477102946+481554872
3736+481783226+477448096+475564176+478788566+483963198+487009930+485979274
3723+482894320+479765818+477837417+478154200+480651533+482794260+482201046
3709+482637689+485744395+489820584+494243122+499263846+504848974+510188967
3696+515463970+521083369+525271826+525282969+524888810+527647924+529960984
3682+530154313+529593505+529779109+527830243+523944142+524533494+524944833
3669+522938923+523630954+525824954+527647214+530000849+533128463+535643376
3655+538442177+543690811+549790712+551642714+549236785+549276915+551101483
3642+552305713+552230157+552008906+552474714+553563702+555318795+554040741
3628+546796673+543465342+544616701+545338609+543290970+539395146+538485149
3615+539708733+539502842+538184568+536434269+534413665+533823602+534236628
3601+534210126+534421389+535199719+534370382+531921171+531678167+533768911
3588+532612092+527422012+524076298+522784926+521853797+520764100+519549216
3574+519161138+520858123+524336791+526576782+523627802+519108045+517518179
3561+517347891+517067331+517352241+518130749+517805664+517365204+520077972
3547+524212049+523967314+519886553+517170233+517280681+518043518+517263368
3534+516411080+517377500+519512903+521969173+524093655+524153451+521648483
3520+519184178+518392219+518331402+518442782+519323259+520515414+520449980
3507+520366833+522287244+524005891+522746438+520073666+518516518+518246968
3493+517896091+516987336+516055009+515684911+516351150+517851122+518567258
3480+517786220+517234024+517300790+516889984+516554955+517038121+517869234
3466+518608365+518523132+517619705+517458783+518051065+518080763+516941967
3453+515056627+514742951+516277326+516587406+515522080+514917990+514643112
3439+514123811+513420194+513293098+513954277+514805322+515498596+515797490
3426+515743375+515624892+515289065+514395670+513394934+512734777+512428470
3412+512995270+514005373+514036669+513255454+512767938+512836790+513421969
3399+514255923+514557125+514085812+512869773+511234406+510783247+512008962
3385+513178921+513208620+512816769+512900671+513092845+512607593+512380260
3372+513441102+514477618+513983487+512415995+511309651+511226548+511416015
3358+511495921+511325010+510972047+510984211+511038014+510622902+509945786
3345+509092699+508156821+507862189+508431831+508586095+508105948+508276458
3331+508557462+508087081+507774160+507700912+507328905+507151913+507364907
3318+507530757+507084525+506064923+505338399+505001994+504589501+504209458
3304+504137498+504255493+504112994+503844953+503906969+503535494+502175359
3291+501150252+501324137+502268450+503504109+504231699+503791327+502546035
3277+501306912+500415382+499950462+499830336+499762771+499668970+499487450
3264+499252615+498993852+498642265+498180230+497653382+497241999+497046717
3250+497228592+497541247+497693468+497757660+497673980+497642373+497555941
3237+497087203+496438321+496095346+496000879+495558599+494830521+493992971
3223+493160127+492900033+493314657+493331837+492144165+490358263+489377638
3210+490376109+491853573+491822366+491429139+491607551+491152575+489737925
3196+489223552+490330385+491252502+490443674+489207260+489984347+491791690
3183+491617184+489473125+488945656+491432468+493108100+491276518+488988628
3169+490284528+492758821+491174282+487259859+487318013+491431847+492665375
3156+488763026+485953083+489722477+495802401+495441980+490046185+489127798
3142+495589673+499405369+493527918+487036565+489807666+497543289+497596027
3129+489643636+486356964+493879283+501329153+496197759+486677743+487425708
3115+498129046+502809237+494035455+485927912+489753685+499162809+498542915
3102+487594177+482335022+489905196+499296252+495441492+484709877+483445495
3088+494142307+502122488+494488966+482524932+480692063+487928273+492027369
3075+486241322+479800533+481672378+489919357+492494110+484599340+477477795
3061+478917215+486093584+488428264+482162513+476054711+475340528+477860945
3047+478257767+475533989+473616553+473885037+474988008+474946990+473533628
3034+472412501+472553402+473701165+474122936+472943210+472495914+479549894
3020+509626650+568149101+615121476+605412925+566273882+534392578+514700379
3007+501643850+492311347+486366597+483001839+480448127+477199499+474096700
2993+473405689+476920361+481323011+479887941+474388979+471962230+475690605
2980+482131927+482604883+476457216+471900125+473098628+478680160+481446599
2966+476884980+471477510+472181128+480837714+488766933+484051139+473595023
2953+469690276+475209171+484937343+485784525+476387431+469435109+471343490
2939+479904011+484677914+478813159+471033054+469803388+476531928+484938497
2926+483006544+473212938+468105205+471836644+479466259+480173162+472166345
2912+465754145+466003985+471158551+475350649+472876178+467617556+466046379
2899+469426142+474646809+475190926+470043284+465535513+465597307+469519144
2885+472492584+470314299+466241350+465062513+467159560+469980558+470022997
2872+467094437+464661206+464886497+467083605+468605329+467466089+465105928
2858+463952439+464439778+465182328+464421710+462317116+460671804+460562066
2845+461389583+461684037+461186888+460886174+461200916+461845670+462362662
2831+462284576+461645283+461166911+461388962+461985905+462286219+462083834
2818+461709385+461521295+461623797+461747785+461544645+461252189+461246240
2804+461225687+460876852+460564597+460631496+460894298+460966835+460858918
2791+460986812+461151862+460867485+460578669+460873168+461363569+461405120
2777+461145425+461028718+460995957+460853413+460629010+460502536+460664302
2764+460976380+461146225+461277493+461580781+461809756+461641998+461330142
2750+461374179+461673117+461822674+461952477+462236943+462438706+462557544
2737+462660446+462430982+461992342+462016225+462643443+463201277+463213707
2723+463185607+463492490+463695274+463615590+463581497+463751830+463796578
2710+463468652+463257478+463561210+463977609+464273173+464664491+464918859
2696+464927738+465081291+465235465+465143484+465175802+465554291+465943966
2683+466115809+466262303+466538823+466881709+467211322+467561089+467902465
2669+468072355+468049803+467946902+467871435+467959332+468318776+468780412
2656+469094221+469336692+469633277+470003597+470433537+470811315+471052631
2642+471242453+471565851+472021493+472495647+472957682+473400140+473801225
2629+474036326+474169725+474407712+474661237+474927946+475425228+476202715
2615+477046879+477625488+477955101+478252129+478355519+478228868+478283515
2602+478614015+479044931+479658255+480426730+481169191+481863886+482408047
2588+482581976+482518051+482730779+483348143+483861895+484030097+484325839
2575+485023375+485701423+486081732+486348707+486600944+486733011+486828099
2561+487188298+487848501+488623279+489420210+490077882+490349873+490360128
2548+490482828+490697154+491042393+491746499+492425479+492724106+492945624
2534+493221566+493458222+493908359+494543746+494853782+494886055+495042183
2521+495339922+495776831+496324233+496777744+497098922+497265838+497357463
2507+497675046+498040394+498033913+497856211+497898161+498149200+498499588
2494+498835194+498960691+499003663+499168003+499282535+499331899+499599008
2480+500024863+500234794+500206649+500233684+500354476+500357672+500181923
2467+500062641+500222498+500521613+500640007+500493734+500233285+500070099
2453+500099043+500194752+500270130+500261873+500044706+499676827+499428231
2440+499480880+499606954+499489314+499097508+498556233+498113775+497915030
2426+497798367+497667632+497610233+497501161+497284660+497141583+496885396
2413+496414704+496043762+495770172+495431104+495104865+494725266+494128590
2399+493569247+493448189+494106038+496208014+500819751+509273820+522524964
2386+540380122+561410306+583443001+604633663+624171777+642286808+659858343
2372+678010353+697298716+716102759+732194433+744679633+753064671+756951927
2359+755211305+746154389+730924725+712921652+695212811+684655790+687421119
2345+697833377+699442420+690639028+681670453+674854105+671485573+674438016
2332+680727960+682453932+678765643+676759200+678637749+679185861+674357488
2318+665027515+655612353+652466094+655819976+656941903+650030600+636986234
2305+621882866+609364949+600933609+593787027+585962175+577182267+567179307
2291+556807580+547342299+538732636+530783041+524198820+519271098+515382599
2278+512097081+509386488+506971281+504547861+502256641+500321137+498792932
2264+497571212+496509171+495620348+494911359+494362581+493992172+493622207
2251+493145877+492757667+492537925+492383839+492261938+492139016+492043883
2237+492167516+492552930+493008084+493372944+493652482+493931754+494246718
2224+494673771+495275509+495863574+496255646+496601818+497157520+497974871
2210+498865203+499671811+500391233+500993237+501683626+502687868+503602482
2197+504159872+504819453+505773887+506602381+507175618+507745926+508387084
2183+509150987+510048998+510940085+511796101+512606616+513287638+513834596
2170+514364906+514931574+515505788+516131941+516745398+517277040+517809526
2156+518187482+518243993+518229255+518334110+518498361+518469062+517989315
2143+517468593+517318237+517216090+516777316+515930089+514956345+514095090
2129+513168267+512048472+510844508+509494272+507818774+506142032+504864911
2116+503638840+501971243+499989438+498118258+496504110+495074101+493775582
2102+492437643+490863448+489234384+487843928+486644315+485548092+484458217
2089+483068249+481292957+479506567+478089387+476979535+475916251+474822603
2075+473660235+472357587+471107190+470280383+469958495+469591104+468493371
2062+467071131+466107685+465519221+464978034+464437159+464053742+463874753
2048+463774559+463805989+464161394+464755229+465042714+465055366+465395677
2035+466044293+466727002+467331714+467891456+468619046+469488069+470205982
2021+470832845+471590710+471901900+471220745+470137262+469245599+468540827
2008+467810573+466802691+465489522+464105770+462786786+461415419+460089999
1994+459114789+458081469+456503012+454706101+452812326+450883703+449174333
1981+447686792+446397994+445264393+444156184+442896819+441719135+441078599
1967+440474153+439290699+438070133+437197336+436436852+435715166+434962095
1954+434032299+433086610+432389207+431957314+431906085+432256607+432153306
1940+431257736+430449219+430132968+430156008+430143489+429933514+429756877
1927+429918776+430617377+431305325+431277135+430760320+430344365+430412729
1913+430731421+431062543+431372179+431400724+431287434+431351581+431461142
1900+431703435+432244666+432633187+432588573+432517589+432411980+432056620
1886+431810331+431754353+432064122+432910949+433336716+432880851+432759971
1873+433904493+435404287+435485170+434766947+435355678+436771703+437691866
1859+437635977+437185040+437153122+437712553+439004325+441059688+442857043
1846+443365779+442699584+441871401+441477464+441368791+441546449+441990062
1832+441644379+439490287+437574937+437575070+437396081+436041538+434858129
1819+434366972+433318160+431378439+429566168+427613972+425447495+423654890
1805+422826041+423268810+422459494+419074138+416524333+415381720+413710172
1792+411426899+409700838+409130130+409125380+408320504+406840997+405585716
1778+404398888+403195369+401536518+399346646+399445063+401131083+401004432
1765+399900750+399287471+399115761+399345935+399118603+398811674+399873582
1751+401030579+400019633+398750280+399026577+399061425+397721932+396403481
1738+396638893+397565849+397955391+398582077+399175913+398884167+398911868
1724+399734013+400520644+400985609+401035728+400907168+401316021+401875586
1711+402419258+402833261+402873658+403386744+404813379+405015719+403410006
1697+403202694+404334875+406272332+408788842+410963266+411905004+411224559
1684+411015516+414288116+417269768+418257231+418126185+418451802+419694742
1670+420994770+422906569+425518434+427461573+428896865+431297112+434435692
1657+437023141+437505197+435591401+437030732+439741769+441240764+443631289
1643+447264754+450190917+451829347+451885592+451200264+453442386+457153271
1630+459906037+461805894+463695718+465593889+468033955+470740420+472104640
1616+472857178+475734731+479421067+482126689+484052959+486359183+489222842
1603+492052806+494654550+497386096+500333922+503353220+506569308+509927585
1589+513368432+516996304+520784742+524565367+528250949+531630046+534256427
1576+537315145+541987168+546315816+550228509+555151658+560584299+565725725
1562+570168062+573276056+577658552+586186134+594808938+603384419+611665358
1549+618902279+625858285+633085750+636895408+636591321+644690917+657450550
1535+666601932+673550392+680453394+687248522+693461979+698679405+702911100
1522+708145884+715816784+725313716+735103549+743594019+752418675+761640020
1508+766501953+765150296+769687100+777933235+784923956+789955112+795271533
1495+801964560+808170159+813462430+818116341+823527229+830096223+836657049
1481+842643528+847889010+852320160+855415191+856834856+859793603+866510690
1468+873179655+877238088+880740729+885534564+888578188+887856192+890648734
1454+900273871+909044901+915498297+920431258+925605535+931390827+936638352
1441+941517154+945905865+949074409+952724255+957881840+962393341+966360147
1427+971615218+977098022+981629055+984831959+985778491+987125709+991699535
1414+996078303+998724971+1001589073+1004567619+1005385946+1005089051+1005805631
1400+1005100770+1002179668+1000841241+1003004832+1007089456+1008635551
1389+1004802898+998605290+996793285+1000036586+1005024682+1009427953+1011444518
1375+1010330804+1008457893+1008694238+1010230300+1012262668+1013865141
1364+1012294630+1010172679+1012108893+1014398292+1013644245+1011730227
1352+1011463606+1012276163+1011994716+1010269276+1008614243+1007085106
1341+1003894987+1000653284+1000393234+1002433947+1005128471+1007293572
1329+1007982363+1006885429+1005940140+1006361600+1006906205+1008161530
1317+1010709381+1012704460+1014220901+1016552384+1020176660+1026877765
1306+1035093802+1039396304+1040095394+1040435705+1041219673+1043219102
1294+1046084269+1048549285+1050918856+1054095924+1057551598+1060106552
1283+1061254359+1061123047+1060251449+1059279790+1059550583+1061207747
1271+1062012047+1060457695+1057305398+1054792084+1054118564+1054465091
1260+1055161783+1056168956+1057392230+1057798419+1057267754+1057702887
1248+1059153183+1060169589+1060979393+1061826931+1062542890+1063360419
1236+1063890374+1064276054+1065113559+1065660117+1065300007+1064501478
1225+1063872528+1063673562+1063623754+1064071938+1065422441+1066066040
1213+1065097489+1064347792+1065389413+1067507547+1069166842+1070643330
1202+1071972612+1071512264+1069973716+1069961020+1071694628+1072773183
1190+1072316564+1071511998+1070794707+1071124631+1072397802+1072597390
1178+1071570507+1070011450+1068730022+1068961838+1070647680+1072872089
1167+1073741823+1071580629+1068330935+1067197156+1068103203+1068292846
1155+1065782995+1062021192+1059578905+1058208426+1057060886+1056258894
1144+1055151484+1053220952+1050451050+1047743298+1046476431+1045287161
1132+1041912548+1036980386+1032033842+1026845270+1020822301+1015258349
1121+1011817324+1009944236+1008085797+1005310923+1000439579+994212850+989950213
1107+987544239+983850179+978830387+975090247+973953360+973378125+970729414
1094+966573053+962531312+959991362+959474902+958687561+956286648+953364747
1080+950257286+947494044+945762478+944517895+942896866+940815312+939020354
1067+937560557+936199401+935107705+934028795+933338584+933240566+932310813
1053+929791551+926942453+925910954+927366755+928493076+926570623+923436350
1040+922239267+922710003+922526219+921272403+920097694+919138643+918057691
1026+917362152+917693407+918648374+919609290+920531939+921293356+921772438
1013+921848349+922030623+922914563+923394799+923193613+923528242+924198921
999+924895524+925950374+926708151+926656833+926039159+925204672+924471223
986+923046585+920777340+919379959+918827098+917777220+916202803+914680502
972+913570517+912411523+910899078+909099858+906698501+904144524+902085254
959+900426403+899096410+898742070+899620150+900446202+900700747+901599425
945+903786988+906257242+907867084+909220250+911377272+913885259+916023369
932+918706440+922702101+926542567+928744425+929857074+931256585+933050478
918+934309621+934764997+935014304+935852431+936864753+937439189+938067784
905+938261068+937379969+936055392+935097762+934908650+934704535+933853002
891+932770806+931185913+929290273+928616043+929254404+930032423+930852260
878+931892105+933059534+934426550+935732660+936975289+939056489+942346935
864+945751202+948852892+952557695+957149279+962007394+966141116+968620337
851+969188913+969238100+970640452+972931983+975284153+979165637+984805590
837+989158165+990670611+990395823+989576163+989601467+990528999+992802151
824+997616940+1003043098+1006213152+1007292418+1009038455+1011613031+1012720619
810+1013483811+1015047396+1016162975+1017659883+1021158351+1025182690
799+1026785252+1025885509+1025680416+1028370323+1031462246+1032179182
787+1033185023+1037077960+1041957118+1046235558+1049559564+1051125991
775+1052405554+1053738477+1051581101+1047756705+1048782255+1053689291
764+1056432912+1056377688+1056464342+1057030610+1056956209+1056678490
752+1057243515+1059046908+1060870544+1059315126+1054951985+1052660810
741+1053003963+1053351465+1053313466+1054106134+1054476899+1051436826
729+1047296179+1046452104+1048129067+1049157548+1048755975+1048997647
718+1049822456+1047941643+1042683464+1037379651+1035843588+1038223814
706+1040225463+1038819381+1035745215+1032868328+1030720629+1030528588
694+1031530966+1031490569+1029827278+1029162370+1032527928+1036886541
683+1039872544+1043070654+1044808612+1044987602+1045837271+1047204553
671+1046772350+1042897524+1040800343+1041223934+1037861307+1033095528
660+1031218000+1033097126+1037844527+1042007547+1043680604+1046197914
648+1048304328+1042041996+1031959529+1029160062+1028339337+1025508263
637+1029091432+1033527110+1030075254+1029059735+1035012032+1040376841
625+1040572611+1027751938+1001789904+983746034+980782138+978724556+973256845
611+969307174+973093837+991745792+1017911143+1038795321+1048104385+1043982383
##END=
