##TITLE=Sample description
##JCAMP-DX=4.24
##DATA TYPE=INFRARED SPECTRUM
##DATE=24/8/2023
##SAMPLING PROCEDURE=Instrument type and / or accessory
##ORIGIN=Default
##XUNITS=1/CM
##YUNITS=ABSORBANCE
##RESOLUTION=4
##FIRSTX=4397.6552
##LASTX=599.8556
##DELTAX=-1.9287962
##MAXY=1.2840971
##MINY=0.34296879
##XFACTOR=1
##YFACTOR=1.1959086e-009
##NPOINTS=1970
##FIRSTY=0.48582724
##XYDATA=(X++(Y..Y))
4398+406241112+406316894+406567367+406069536+404799127+404211458+404951639
4384+405429958+404642603+403658678+403599941+404209614+404372019+404055009
4371+403984211+404044044+403826889+403408753+402852408+401980101+401609387
4357+402503874+403708468+404059669+403133658+401930086+402046538+402789136
4344+402431431+401053093+399564433+398247448+397534181+398040785+399250886
4330+399919272+399675128+399167304+398720683+398110487+397862555+398767533
4317+400364945+401318418+400834044+399750711+399239274+398878877+398246701
4303+398200723+398980103+399547861+399315056+398588432+397900135+397984241
4290+398727213+398782187+397815431+397392136+398359988+399201046+398537844
4276+397228385+396586141+396357871+395713484+394913395+395021574+396406964
4263+397537172+397060622+396212512+396285827+396743986+397092769+397465950
4249+397475095+396619733+395461341+394951074+395077071+395295397+395668952
4236+396346234+396690482+395660429+393528054+392394956+393015370+394294925
4222+395694545+396385907+395758390+394855530+394508142+394325078+393828717
4209+393480457+393546371+393640295+394197412+395107748+395171718+394133118
4195+392890171+392302876+392054820+391818526+392257172+393364403+394091775
4182+393858696+393509065+393534982+393147672+392697712+392974626+393189961
4168+392932062+392894781+393112136+393111338+392778678+392448360+392585446
4155+392989279+393079390+392916736+392900338+392817952+392351819+391903255
4141+391890820+391977343+391481181+390633644+390333480+390806565+391439365
4128+391202124+390279627+390007074+390273073+390069599+389535060+389476597
4114+389960947+390309132+390232403+389724778+388756702+388122158+388428701
4101+388730037+388387184+388120388+388276538+388292288+387916566+387630157
4087+387583307+387280003+386832585+387068381+387687000+387411507+386444777
4074+386031076+386390725+386602297+386006455+385189868+384530629+383886715
4060+383798547+384279607+384625076+384594125+384080619+383480166+383474185
4047+383463968+382696798+381924869+381903164+382451733+383031352+382954299
4033+382384324+382245144+382531303+382461626+381972168+381673873+381502347
4020+381014084+380399477+379956719+379969727+380474063+380649900+380223889
4006+380317464+381111971+381024177+379859580+379318163+379903489+380583812
3993+380443237+379711653+379315945+379368402+379372987+379158648+378847345
3979+378546483+378246094+378192840+378445357+378381611+377879244+377688878
3966+377990014+377901622+377206098+377027869+377642152+378086754+378003571
3952+377620970+376879344+376357539+376799176+377165852+376833665+376830276
3939+377233984+377599813+377494525+376136223+374720853+374793072+374807227
3925+373919917+373905936+375197876+375934543+375002103+374184171+375039882
3912+376373065+377247491+377336705+375439727+371933450+369940006+370152451
3898+371539237+373606345+375072453+374503698+373849218+374971825+374790829
3885+373110034+372871647+372443468+372517481+373867684+373542450+371752878
3871+370063735+369583372+371432753+372177070+371237254+372377429+374714125
3858+375810117+373760278+367050255+365206482+370095084+374517105+376576912
3844+376339447+374474492+371986655+370204833+370792328+372451716+373592266
3831+375044442+376553836+376542447+375951813+374591168+371178043+370725666
3817+372434596+373398137+376127625+379290003+379655508+376897810+375336632
3804+375530761+373687286+372916728+374704605+376283078+378294863+380449118
3790+381151918+380845948+380631883+381043515+382090016+382222068+381674620
3777+382505660+383679927+383700934+382527366+382112294+383091335+383654333
3763+384319903+384870117+384086425+384024897+385674093+386542314+384497510
3750+382711277+384329522+385295156+384316539+386105837+389335673+390292685
3736+388441062+387925537+391823809+397348775+401793373+404631638+407637343
3723+412706118+419591006+428447607+439037610+449844419+460853581+475083882
3709+492959266+510321941+525489193+538718298+550569465+562138285+573595562
3696+583823225+590922102+592645885+588211030+583633233+583433223+583542523
3682+581426048+577773838+573618189+565832560+557582168+556101607+553633108
3669+549434697+549547536+551012646+551196807+550133361+548401255+545519030
3655+543172591+542571963+538647874+528768147+524647038+528295261+532179129
3642+533991977+534238737+534327453+535160785+536754135+538322964+536054674
3628+530482560+531453402+536400766+539879083+539479512+536145334+534241727
3615+534332337+535701804+537112937+536201454+535127143+536602770+537805271
3601+536673942+535660436+536377740+536917163+537245961+538839411+539547494
3588+536844047+535147328+537547247+540826799+542737683+543378282+543580934
3574+543889197+544668303+545144031+542940633+539343198+540015197+543437742
3561+545701845+546993660+549251234+551850514+552913761+552726510+552602258
3547+552597124+553369851+555555704+558224961+560514432+561806596+562571000
3534+563464839+563603943+563203076+563955119+565834853+567271953+568276537
3520+569751067+571078568+571719068+572551603+574166484+575378555+575457352
3507+575587835+575471059+574651781+574921717+576406564+577612753+578505695
3493+579875012+581432776+582206101+582411394+583157057+584035695+583575767
3480+582736304+583432575+584490339+584742532+585217562+585854921+585856367
3466+585195183+584138466+584034100+585847944+587836379+588477726+588618825
3453+589057072+589548050+589449914+588783747+588564947+588913382+589474486
3439+590206343+590921255+591584681+591448019+590190394+589716810+590775222
3426+591739984+592395586+593656350+594489932+593573466+592457039+593128241
3412+594557865+594972537+594414823+593451606+592936803+593601526+594505283
3399+594588267+594566886+595145683+595842104+596269636+596144237+595449361
3385+594995414+594962021+595109050+596007824+597516594+598429074+598276661
3372+597768189+598198462+599957830+601387753+601167309+600296845+599976072
3358+600053026+600056166+600336817+601441631+602800830+603329289+602873847
3345+602111238+601648020+601810052+602659433+603591549+603792456+603470387
3331+603252136+603230106+603272820+603161625+603233495+603838559+604340053
3318+604653351+605087910+605081829+604498746+603653800+602626040+602119013
3304+602609742+603306711+603138699+602027107+601435899+602174136+602966949
3291+603247750+603568423+603815333+603932707+603913070+603585568+603716051
3277+605241817+607616815+609211411+609554812+609820511+610405140+610620351
3264+610267979+609733191+610036520+611688632+613322103+614130964+615216689
3250+616873984+618194707+618929405+619406329+619626873+619521410+619466287
3237+619337798+618768072+618506509+619109529+619934339+620346619+620173174
3223+619680601+620211202+621940717+622193507+620052610+617733334+616669888
3210+616449244+616139186+615486575+614597222+613634304+613173330+613446705
3196+613948299+613732589+612385551+611029890+610546587+609937886+608471928
3183+607091646+607058303+607940031+607512150+605703489+604709022+604681511
3169+604560747+604309402+603746902+602275661+600021477+597786730+596459129
3156+596202052+596105611+595353169+593974283+592725679+592109850+591526717
3142+590786486+590136218+588742529+586758180+585641505+584686511+582533104
3129+580311764+579262971+578726738+577869232+577076071+576587934+575886628
3115+575220959+575067201+574894155+574144006+572868389+571342972+570023794
3102+569300310+568950978+568290044+567214536+566327675+565694601+565219871
3088+564962196+564579271+564213293+563880010+563285014+562840736+562359776
3075+561186332+559742254+558895066+558489314+557707268+556456471+555177166
3061+554103503+553230148+552564379+551931904+551065078+549803417+547950747
3047+546304167+545555513+544834770+543768284+542970239+542518784+541662076
3034+540024168+538195671+536539373+535002990+533568781+532127694+530632031
3020+529235053+528113393+527125704+525957195+524545164+523052592+521409302
3007+519546863+517919572+516764768+515922913+515255250+514557384+513997127
2993+513702819+513252809+512408312+511441706+510752762+510155174+509335498
2980+508533465+507777286+507021156+506465883+505883946+504932342+503712446
2966+502208112+500498733+499116557+497858733+496441370+495444361+494719332
2953+493490366+491938084+490912866+490527649+490167751+489499041+488450846
2939+487171541+486023815+485076497+484055515+482913471+481939339+481129880
2926+480434206+479848581+478811351+477106358+475449711+474161933+472857458
2912+471597990+470755586+470080248+469313801+468786738+468396188+467686061
2899+466804782+465924051+465097696+464629345+464605472+464683472+464347497
2885+463434071+462258883+461254498+460667128+460246125+459526479+458449974
2872+457327019+456262626+455061720+453806886+452964134+452713685+452620633
2858+452151734+451162750+449791788+448235519+446816212+445743895+444912157
2845+444373780+444136091+443848761+443310434+442650347+442127769+441830870
2831+441542842+441042194+440441866+439881858+439210756+438507906+437957567
2818+437398806+436763589+436166849+435539657+434830676+434348320+434189678
2804+433904092+433317519+432767281+432406785+431960463+431275755+430667402
2791+430461960+430496848+430329583+429860136+429209469+428438038+427834171
2777+427590102+427404147+426928021+426189336+425510259+425070866+424698657
2764+424265992+423958028+423859543+423763251+423623847+423575701+423549784
2750+423233248+422497752+421799537+421520480+421383169+421010712+420398023
2737+419844345+419425386+418966505+418626942+418524520+418420253+418227420
2723+418137159+418214960+418216007+417997606+417654081+417251419+416889902
2710+416736368+416758447+416715585+416621187+416638556+416572318+416219074
2696+415755782+415436927+415287755+415205842+415148251+414997185+414722489
2683+414540995+414340886+413904632+413567212+413492750+413381930+413262936
2669+413313350+413383550+413309911+413156527+413058765+413021932+413006656
2656+413008475+412867676+412574739+412441839+412464143+412475133+412614437
2642+412922301+413298721+413630933+413699738+413467033+413196773+413178905
2629+413346967+413460454+413604891+413921129+414345047+414773401+415139081
2615+415459829+415848460+416372134+416787305+416889478+416984524+417319028
2602+417703946+418058935+418527410+419027809+419391395+419780250+420424737
2588+421097932+421406445+421486638+421630677+421816482+422133966+422655098
2575+423097083+423272721+423307360+423297941+423216202+423136507+423167608
2561+423231852+423326250+423545847+423649266+423424137+423203393+423224625
2548+423199456+423016491+422893635+422838362+422825503+422935899+423052576
2534+422993415+422805168+422698609+422662624+422574207+422651111+422935501
2521+423052227+423010909+423056663+423131473+423236188+423370558+423406194
2507+423518235+423824704+424066132+424178422+424278901+424296993+424181562
2494+424149216+424429419+424790064+424889845+424777654+424579339+424436048
2480+424413819+424293653+424047392+423871754+423795548+423815733+423860540
2467+423724176+423406493+423064837+422749646+422441033+422146825+421843446
2453+421417609+420947265+420648571+420481805+420308559+420059805+419691833
2440+419371259+419300336+419211072+418787877+418244167+417748254+417179350
2426+416628513+416374327+416324711+415991901+415330742+414817585+414526392
2413+414144340+413688399+413285015+412827156+412322745+411867129+411460331
2399+411043241+410505412+409870893+409255164+408664256+408064899+407468035
2386+406822775+406019471+404904341+403217016+401015015+398669647+396269753
2372+393799137+391250444+388497257+385695126+383553058+382561955+382041596
2359+381558018+381939298+383560434+386052408+388931193+390931615+390669828
2345+388295229+385914723+384852448+384534990+384484626+384596567+384687302
2332+384756506+385050963+385634919+386376545+387009843+387394013+387868470
2318+388585599+389226323+389752414+390305270+390874548+391565536+392360965
2305+392966228+393161278+393112933+393290016+393701424+393938042+393939263
2291+393834673+393791984+393971286+394174086+394225846+394208451+394131672
2278+394048414+394109817+394362708+394615125+394667158+394733870+394987134
2264+395186421+395278053+395466275+395727838+395923462+396140916+396513548
2251+396928420+397225444+397500439+397894927+398252333+398460267+398739274
2237+399205083+399738451+400258661+400823528+401524110+402266683+402951167
2224+403625584+404339424+405240415+406385674+407549100+408608858+409633404
2210+410708687+411931797+413208834+414384072+415639604+417149122+418807613
2197+420586270+422540316+424633266+426823556+429075398+431345133+433686140
2183+436159872+438776895+441534319+444424568+447503064+450596363+453424161
2170+456121328+458911497+461765014+464543969+467062557+469157501+470997661
2156+472966509+474937152+476460874+477474331+478066635+478217701+478021031
2143+477540020+476577501+474758175+471929529+468550544+465035794+461169071
2129+456728784+451985566+447248728+442348612+437162263+432044195+427261703
2116+422713910+418229314+413723263+409265805+405074272+401180136+397491294
2102+394028029+390719469+387462743+384289774+381260122+378352155+375598793
2089+373100066+370692896+368215127+365937293+364022896+362121382+360033714
2075+358001893+356194777+354559088+352962972+351287634+349577732+348021065
2062+346573822+345014663+343411145+341961012+340685918+339356250+337795097
2048+336259836+334969491+333816756+332640346+331427453+330366848+329426359
2035+328373429+327309111+326388532+325480264+324584631+323813624+323101379
2021+322410241+321678633+320801640+319874757+319010324+318207120+317442642
2008+316623538+315680906+314679910+313659027+312621100+311719461+310991266
1994+310041158+308757267+307767261+307281790+306903326+306432458+305773767
1981+304989377+304301255+303720788+303133966+302501516+301704666+300613858
1967+299584552+299152211+299096888+298887185+298420154+297790320+297090859
1954+296443731+295909341+295446921+294920830+294200187+293179479+292271834
1940+292239413+292624132+292581045+292166197+291777591+291542544+291369273
1927+291042345+290310637+289541524+289292969+289105843+288981441+289520665
1913+290023057+289761769+289369300+289650450+290274702+290645789+290763462
1900+290758777+290516129+290058992+289716613+289428585+288968931+288929184
1886+289447076+289790950+289842311+289834137+289877872+289991608+290054631
1873+289754243+288498537+286785121+286867333+288651896+290160094+290850210
1859+291191368+291554480+292005387+292430252+292702581+292703528+292406902
1846+291778987+291516776+292900696+294811754+295962147+296777662+297644413
1832+297754311+296957536+296949761+298046376+299321370+300849628+302190362
1819+302756973+302779127+302547518+301811350+300765547+300406621+300681167
1805+300614780+299696569+298296450+297559185+297678080+297601874+296657970
1792+296050190+297552532+299512234+300262607+300181068+300065563+300282892
1778+301147649+301845216+301075281+299108003+298867722+300780749+302803973
1765+303912275+303886881+303923365+304723877+305346410+305790040+305443848
1751+303189937+300828172+301005604+302236190+302933932+302980707+302811997
1738+302963387+302168482+299790543+299935479+302692380+305375242+307051402
1724+307686793+307956206+307552498+305085445+303083303+306155694+310797362
1711+314167624+315743455+315827063+316147138+317573074+318318787+318474838
1697+321281853+327380333+333831309+338166034+341127929+343565252+345218162
1684+348384277+355483828+362790216+368706429+373680309+378887815+383808739
1670+389051608+397065232+405325816+411780282+418288076+426129677+433445609
1657+438687082+441930501+447910908+457648390+464535695+471812503+482819422
1643+493180757+501062479+506699186+510469618+515665337+524497068+532279558
1630+537596489+541371556+544724025+548226813+552714897+557021164+559029685
1616+559793241+562548522+565772004+567448139+567988011+568684382+569672519
1603+570696840+572034508+573654772+574969713+576216273+578267657+581060667
1589+584440399+588525424+593093552+598133320+603671394+608776154+613047283
1576+619704026+629229885+637539786+645856765+656209079+666863625+676695356
1562+684208408+688880702+698125760+713878289+727872047+740451781+751665139
1549+762411641+771625499+778380179+783389794+789593387+803520259+817675600
1535+827472043+835756775+844430313+852369501+859335105+865831312+870763624
1522+874954908+881857315+890214066+898841950+907634107+914338548+917260794
1508+915763188+916611771+926351097+934388770+937821682+937198776+936454059
1495+939644547+942964321+942221299+938595106+938339126+941212229+943332044
1481+942818986+940443490+937053341+931976691+924998527+920703674+922622033
1468+924511486+922347412+919533519+919762586+919172874+913089944+910638591
1454+919696199+929062419+935159902+939237350+945061508+953747705+962162471
1441+968037067+970739716+971468882+975887639+984588289+992497573+998846352
1427+1005255736+1010622259+1014120063+1015849527+1015329492+1016394483
1416+1021557258+1025609985+1026607094+1027053864+1027778444+1027428863
1404+1026587656+1026008809+1024002032+1021606699+1020305763+1018697312
1393+1018961765+1020419101+1018070418+1010967254+1006109902+1007953401
1381+1013719046+1018670099+1020184751+1018601219+1016840057+1017531743
1369+1019157040+1020255325+1020126936+1017152257+1014374548+1015778853
1358+1017835271+1017287126+1014968647+1012562149+1010389902+1009211375
1346+1009611494+1009806570+1007680674+1003257532+999731020+999717463+1001275377
1333+1002243079+1002056975+1000879843+1000625756+1002659845+1005363990
1321+1007403960+1008945326+1010562051+1013161830+1016559056+1020052873
1310+1023635406+1027405837+1031573796+1035696002+1038989260+1042044780
1298+1045227892+1047959947+1050490846+1053336736+1056061814+1057630293
1287+1058059221+1058569288+1059686412+1060928437+1061604074+1061667670
1275+1061373113+1060103278+1057745026+1055783604+1054186018+1051363253
1263+1048709946+1048298463+1049364152+1051095012+1052436518+1052583149
1252+1053400233+1055788190+1057747120+1058693191+1059633083+1059715918
1240+1058780113+1059030312+1060869425+1062632682+1063717609+1064313203
1229+1064502397+1065062105+1066059513+1066226179+1065666969+1065456942
1217+1065804828+1066548248+1067948666+1070006778+1071486043+1071944177
1205+1072276015+1072548343+1072567183+1072802230+1073286181+1073505779
1194+1073574459+1073723781+1073741823+1073662676+1073199459+1071968100
1182+1070731658+1069753489+1068363837+1067299843+1067044759+1066407698
1171+1064766153+1062636071+1060795662+1059364941+1058143949+1056740541
1159+1054642158+1052350294+1050215627+1047935525+1044950978+1040870140
1148+1036501025+1032459561+1028639090+1024971429+1021138199+1016702696
1136+1011618869+1006152765+1000201015+993623070+986814165+980313472+974281779
1123+968418446+962631868+957375892+952517642+946954948+940860854+935161098
1109+929816405+926304546+925354886+923958655+921121636+919300166+919093727
1096+918549070+916946699+915795085+915377223+915565321+917343928+919545481
1082+920707462+922116053+924490453+926730782+928569397+930811121+933394752
1069+935703063+938033005+940691297+943215716+945473789+947988938+951491128
1055+955572464+958195469+958970986+959510958+960436097+961423735+962005772
1042+962668750+964593888+967312586+969138940+969214598+968359037+968054611
1028+969201540+971457419+972781182+972316370+971936386+972602454+973144320
1015+972782976+972263439+972546433+973381660+973993103+974409470+974600758
1001+974221472+973775898+973193961+971718284+969939378+968383359+966664859
988+964851464+963023614+961180514+959619311+958214607+956628983+954745611
974+952447567+949752892+946954848+944331545+941979673+940583741+940644048
961+941053637+941161492+941548951+941974888+941956646+942112448+942820182
947+943329751+943667969+945013960+947745218+950864434+952828647+953647426
934+955017142+957164768+959076847+960612432+961559700+961539066+961067276
920+961271722+962366418+962789962+961769529+960541061+959816281+958922840
907+957811996+957146028+956157392+954354164+952697267+951489134+950370017
893+948797550+947025422+946081344+945996216+946038581+945717508+945433218
880+946036886+947810708+950112242+952025916+953956337+957283388+962515740
866+968774307+974353948+977674320+979210503+980937475+983072740+984707807
853+985296522+984592775+983223757+981528583+979496886+978094674+978524199
839+981088292+984286754+986475449+988092872+988196939+984798716+980079521
826+976719277+975080921+976012439+979244594+983117696+986319149+987200030
812+986013826+986277981+989433680+992788442+994104430+993922612+994359214
799+996334193+998734709+1000769097+1002956695+1006370767+1010052881+1012015998
785+1013987088+1018349724+1023283333+1026309347+1028178364+1029901050
773+1031322401+1032795486+1033116957+1031445108+1030513590+1031966639
762+1034812430+1038119345+1040387585+1040970419+1042099904+1044093024
750+1044224105+1042744640+1042605485+1044352494+1044728091+1041469920
739+1037267173+1036119147+1038988463+1041793385+1040644961+1037906925
727+1035208761+1031297979+1028213751+1026940227+1023792104+1018474325
716+1015568626+1016142589+1017048489+1016869662+1017228513+1019309353
704+1021789913+1022108094+1019667407+1016887305+1015462765+1013899469
692+1010615979+1006888211+1004598241+1003714569+1004148680+1006198518
681+1008702803+1010394787+1012402261+1016218347+1019346633+1016893485
669+1008646084+1005498160+1012221241+1016763103+1015818327+1015620859
658+1020698805+1025559946+1024188037+1021024264+1020188140+1018399964
646+1015576302+1017064737+1022031639+1024102411+1023561941+1023365470
635+1024293499+1025751632+1023105103+1017974426+1017093445+1019283236
623+1018294700+1011192234+1002550296+997219160+995605824+999965370+1008477225
609+1012893289+1011791715+1012409937+1016856604+1017439039+1011863187
##END=
