##TITLE=Sample description
##JCAMP-DX=4.24
##DATA TYPE=INFRARED SPECTRUM
##DATE=24/8/2023
##SAMPLING PROCEDURE=Instrument type and / or accessory
##ORIGIN=Default
##XUNITS=1/CM
##YUNITS=ABSORBANCE
##RESOLUTION=4
##FIRSTX=4397.6552
##LASTX=599.8556
##DELTAX=-1.9287962
##MAXY=1.4376216
##MINY=0.53102708
##XFACTOR=1
##YFACTOR=1.3388894e-009
##NPOINTS=1970
##FIRSTY=0.66733128
##XYDATA=(X++(Y..Y))
4398+498421495+498650940+498143792+497628229+497884608+498426614+498783025
4384+498743315+498198682+498015046+498208788+497395177+495666500+494767771
4371+495730027+497385161+498340427+498806486+499116732+498908655+497546271
4357+495672599+495305236+496303597+496862030+497292430+498312292+499118156
4344+498863914+497258596+495331947+494416302+494124308+493564406+492959763
4330+493008243+493628823+493827373+492674491+491060626+491322570+493775688
4317+495657018+494922738+493104802+492313762+492311714+492182390+491992610
4303+492040377+491864086+491386720+491712725+492651565+492316166+490949687
4290+490610282+491122906+491238342+490926894+490790669+491655742+492794556
4276+492955622+493264755+493839215+493074040+491655163+490491018+489071385
4263+487963332+487971167+488553463+489192295+489942824+490224934+489683996
4249+489146175+489167855+489575284+489642372+488811978+488100982+488406108
4236+488562678+487633276+486609007+486466861+487017370+487623749+488054861
4222+488742619+489824451+490146182+488595131+486666479+486553804+487389407
4209+487200161+486481819+486476610+486480973+486137294+486597966+487488548
4195+487144958+485237274+483118842+482290184+482874750+483873110+484275285
4182+484140351+484070681+483894434+483491769+483275857+483443111+483789194
4168+484082344+484179839+483602663+482723077+482770355+483228846+483210504
4155+483414797+483675940+482843009+481215476+480395054+481259816+482690445
4141+483298828+483192475+482793727+482346589+482076587+481793097+481616405
4128+481914586+482319522+482095418+481257634+480581496+480173266+479562524
4114+478861944+478414806+478565588+479092280+479188127+479052837+479025904
4101+478635392+478181309+478308987+478678530+478645765+478068857+477577645
4087+477861269+478493202+478841867+478981965+478798328+478088311+477165988
4074+476439721+476086516+476154584+476690758+477318595+477293131+476594466
4060+475793676+475186273+474927713+474986388+475013944+475031128+475448440
4047+476002733+475904348+475313194+475116692+475358157+475370400+474981713
4033+474727516+474618268+473684682+472175434+471879790+472998482+473943420
4020+474167301+474246499+473833417+472343845+471066669+471221681+471932499
4006+472308988+472126197+471063998+469897493+470210722+472018908+473793039
3993+474944585+475043014+473082532+470629903+470000998+470892871+472012498
3979+472760133+473165959+473042110+472457989+472197871+472056304+471567808
3966+471744322+472993184+473413523+472144538+470777080+470063546+469898918
3952+471011912+473419577+474640082+474001605+473249786+471932989+470515047
3939+470371165+471179834+472518445+472498768+469966808+468380766+469593258
3925+471231475+471532104+471751266+471787103+469863615+467104124+466012232
3912+466608817+468217385+470768488+472923736+472200052+469357312+466919953
3898+465996473+467267283+468889429+467253749+464356475+465714050+468229761
3885+468019503+467707921+466470856+464374549+465068184+466847567+468068918
3871+467849756+465799792+465980001+466813912+464668858+463299930+465351941
3858+468518861+469049604+462716255+457640315+459917988+463302690+465058657
3844+465384306+465865100+465663567+462667730+460254767+460175347+460359918
3831+460970126+462119224+463127690+464367782+463910182+459826326+458433848
3817+459252801+458794444+460114847+462676500+464160907+463179954+461950056
3804+462527944+461352224+459999679+460473929+460012589+460215458+462029877
3790+463504980+464053797+463965563+463525458+463389545+462607942+461228375
3777+461609404+463177683+464133751+463416211+462077288+461918715+462069186
3763+462739404+463783083+463530266+463371782+465402959+467833640+466566926
3750+464399034+468171086+472031819+470502137+471113502+476210365+481761711
3736+483931072+479785559+475761267+478013120+483050507+485293367+483461007
3723+480089794+476779304+475074622+476099025+479541511+482487755+481586088
3709+480917295+483678077+488218732+493098302+498081644+503856471+510323063
3696+516803812+522541066+526433495+526997626+526773434+528692693+530497140
3682+531101516+531342625+531521543+528440009+523328722+522716110+522211544
3669+520775883+522663624+525636890+527298968+528766860+531388033+534248313
3655+538268153+544756603+550481881+550061097+547216799+549079877+552430210
3642+553131636+551189138+550131080+550782021+551937263+553814719+553043267
3628+546635973+543726412+544538287+544940818+543117317+539053183+536729879
3615+535511555+534280722+535779420+537459751+535798117+534354667+534865065
3601+535481283+535729960+535777149+534395356+532340852+532616240+534191686
3588+531902706+527261974+526270915+526582585+524855288+522303072+521131671
3574+521142400+522410494+526237972+529731074+526118530+520063952+518065184
3561+517616131+516503271+516135864+517391493+518051072+517703832+520046189
3547+524473457+524600378+520089995+517032857+517128526+517782717+516952190
3534+515714858+515913452+517964440+521730082+525445819+525337195+521574091
3520+518925894+518504087+517706636+516627164+517751288+520018900+520047124
3507+519655722+522056621+524335407+522641587+519442125+517944763+518163257
3493+518986973+518949845+517755383+517300988+518422708+519862375+520061815
3480+518892239+518132362+518294941+517903272+516813695+516381959+516784090
3466+517330103+518017372+518648904+518288130+517103863+516355293+516398520
3453+517109250+518606033+519397919+517886756+515959573+515299995+515339170
3439+515898583+516403061+515918483+514815639+514831309+516440990+517251084
3426+516308282+515065029+513910945+512707312+512071729+512553458+513598072
3412+514293221+514522711+514224930+513527957+513461091+514603288+515904371
3399+516191957+515570753+514508376+513173104+512204393+512421284+513714398
3385+515270212+515656405+514251329+512772041+512370935+512246418+511939288
3372+511845311+512120298+512169446+511627796+511177408+511084543+510651250
3358+509947554+509877616+510760230+511726982+511547931+510603838+510216443
3345+510446022+510661177+510702490+510476339+509666913+508703989+508330216
3331+508024022+507397030+507237790+507396363+507126049+506707135+506452804
3318+506268722+505756053+505253312+505852257+506583153+505880615+504665408
3304+504515248+505342882+505846291+505493709+505116464+504971647+504223834
3291+503069928+502773127+503637577+504460358+504359035+503850461+503096817
3277+502090978+501399480+501271891+501275453+500871586+500403212+500014392
3264+499504394+499272456+499370707+499108897+498191960+497668429+498019542
3250+497955169+496898401+496090890+495993440+495825741+495696104+495470265
3237+495009993+495084294+495515584+495447471+494682564+493874829+493613687
3223+493758994+494054148+494493273+494693693+494090029+493250955+493361982
3210+493873004+492737796+490568435+489768091+490361516+490949019+490840573
3196+490608813+490714899+490674699+490011604+489464835+490344198+491732536
3183+491390816+489559391+489531745+491900368+492805241+490705194+488594330
3169+490042856+493452443+493404408+489873777+489203024+493177678+494831743
3156+490668422+486890850+489601905+495300651+495496219+490584729+489619846
3142+496022822+499872202+494060648+487786106+490631651+497890618+497353776
3129+489596964+487016480+494714394+501677005+496363651+487101820+487667421
3115+497806879+502396504+493982830+486294264+490601601+499988661+498441439
3102+486911061+482248382+490857490+500756151+496414624+484581970+482413722
3088+492937325+501114298+493465086+481828711+480949793+489040534+493351165
3075+486967688+479468146+480515164+488319476+490961929+483787324+477369212
3061+478867910+485556824+487433969+480952508+474709219+474139478+477253332
3047+478339214+475709627+473356050+473573610+475167309+475256612+473256152
3034+471672292+472036092+473697681+474560618+473612919+473073717+479807684
3020+509587804+567786997+614260467+604565165+565841962+534114492+514560551
3007+501691874+492244893+486093088+482828140+480431069+477288724+474523401
2993+473840673+476576570+480178964+478633255+473615056+471724378+475665687
2980+482063454+482310974+475976512+471487898+472699410+478359648+481788823
2966+477760392+472064272+472532913+481817849+490575113+485753104+474758678
2953+470692540+475884983+484873340+485553085+476833661+470337198+472132118
2939+480432182+484764493+478606545+471200935+470435093+477203783+485319588
2926+482884722+473040908+468248281+471665080+478890881+479907805+472019665
2912+465391473+466096861+472132474+476494790+473577127+467863912+465912601
2899+469289512+474789974+475245482+469702193+465222260+465832068+469944905
2885+472331291+469565389+465337829+464304790+466865463+469756193+469050227
2872+465734618+463858719+464842166+467278946+468305353+466566881+464307950
2858+463841090+464945181+465638637+464362663+462209284+460921468+460911941
2845+461812228+462298543+461664117+460858164+460620794+460905353+461574680
2831+462236039+462400355+462224019+462240224+462559640+462678503+462279979
2818+461830748+461620044+461377154+461081688+460906733+460818231+460690375
2804+460396512+460216125+460485459+460670253+460429455+460223649+460249959
2791+460496499+460829405+460882871+460726746+460730263+460892353+460903127
2777+460635440+460449667+460631834+460892665+461009213+461027599+460879176
2764+460644388+460624578+460889638+461177268+461344522+461488627+461540312
2750+461364288+461059607+460900055+461211903+461836401+462034373+461725418
2737+461644173+461858928+461952104+462248326+462992800+463334921+462792158
2723+462264442+462390873+462871311+463416700+463886365+464271757+464477920
2710+464178670+463511479+463099599+463268990+463644365+463858764+464094665
2696+464409407+464653810+464884280+465120181+465189807+465247636+465661208
2683+466130917+466170716+465951198+465896530+466148368+466590342+467083601
2669+467472689+467665897+467679029+467632285+467692919+467868186+468281135
2656+468878254+469237693+469470121+469797417+469948378+470047252+470481213
2642+471078333+471682887+472464533+473182252+473449315+473460579+473603481
2629+473819482+473927171+474127369+474577445+475249355+476158234+477045344
2615+477491726+477496044+477557612+477932543+478337923+478678041+479056488
2602+479438986+479824779+480237772+480648985+481072885+481556306+481908042
2588+481974329+482145145+482720584+483351493+483767157+484190657+484644829
2575+485013215+485602633+486382766+486839298+487051738+487392745+487759440
2561+488025836+488428144+489055091+489520037+489642016+489823605+490298345
2548+490777224+491065790+491311084+491579171+491863908+492257269+492766154
2534+493277799+493609502+493816912+494283460+494989070+495414929+495402686
2521+495398635+495770672+496320736+496669890+496738849+496629424+496566787
2507+496813951+497220756+497488888+497695006+497989136+498376621+498775190
2494+498961898+498938126+499035887+499217031+499180704+499067406+499168862
2480+499467266+499698849+499743990+499817667+499996229+500133389+500195669
2467+500299574+500531914+500752767+500819678+500703887+500393908+500040702
2453+499797545+499766561+500000414+500240321+500272997+500150795+499930832
2440+499744035+499635099+499527900+499397017+499105291+498704540+498409608
2426+498095534+497709163+497437870+497204818+496841196+496380034+495824272
2413+495306706+495156814+495248075+495207074+494999754+494568820+493911512
2399+493487122+493573398+494130986+495971938+500599492+509113643+522276985
2386+540369134+562223274+584886484+605662889+624635514+643231963+661852852
2372+680190250+697886278+715221443+732766110+747980929+756996442+760493863
2359+758962712+749255211+732682149+714033704+696324098+685581955+687419835
2345+696988306+699378164+691923185+683712957+677762952+674830152+677194012
2332+682877577+684483430+680743564+679114206+682225879+683585680+677769185
2318+666645568+656496538+653793184+657327644+658188399+651493875+638691129
2305+623283103+610359045+601997679+595189457+587316052+578244358+567996187
2291+557222793+547317900+538717562+531302336+525113180+519970865+515632410
2278+511920502+508691658+505993067+503771843+501832907+500258974+499102085
2264+497996971+496769522+495785942+495140119+494403347+493627042+493218367
2251+492928377+492545656+492454840+492635716+492717629+492673690+492517833
2237+492255978+492273251+492831106+493431787+493687676+493917122+494290449
2224+494773603+495417110+496003590+496378654+496811636+497480340+498212260
2210+498767577+499158312+499675922+500389990+501092306+501771962+502536781
2197+503388543+504252103+505031924+505732147+506557599+507578886+508520976
2183+509290157+510033029+510785471+511531993+512269656+512983858+513711282
2170+514570256+515446236+516157055+516824691+517397904+517708595+517920857
2156+518136146+518132184+517909104+517892721+518156802+518170291+517791577
2143+517588708+517710420+517712201+517362512+516586742+515488884+514363247
2129+513306836+512306873+511194725+509621415+507726196+506117005+504976588
2116+503950182+502536113+500601317+498608470+496866304+495294463+493823055
2102+492410722+490980983+489513003+488023253+486526114+485257886+484276443
2089+483116482+481483163+479587721+477817107+476399121+475303756+474335624
2075+473304365+472154955+471041516+470369028+470160906+469590409+468186801
2062+466766099+465883308+465194570+464690493+464478810+464288140+463949224
2048+463503466+463147456+463263514+463927277+464457486+464552710+464815055
2035+465483848+466278538+467040107+467764637+468445807+469164193+469981722
2021+470900305+471834738+471995715+470883433+469546158+468858444+468453731
2008+467759340+466639713+465188872+463612312+462122118+460724521+459611616
1994+459016722+458112517+456130933+453851435+451888727+450183555+448654719
1981+447193995+445881872+444783925+443741092+442609000+441640734+441075133
1967+440344593+439014930+437598368+436494189+435758173+435255832+434560284
1954+433613921+432789848+432270635+432024718+432032553+432169446+431841838
1940+430887907+430019717+429657119+429702438+429707068+429506737+429306139
1927+429371002+430038326+430864045+431097320+430931000+430715622+430590928
1913+430600054+430769801+430993504+430948451+430858169+431142327+431565292
1900+431922327+432414784+432767011+432601804+432325927+432099197+431767493
1886+431620495+431697733+432106408+432931148+433315428+432864639+432706733
1873+433758693+435204058+435317134+434588686+435148366+436584694+437567250
1859+437731165+437482399+437394342+437872421+439210498+441273327+443000090
1846+443521396+442944176+442006939+441242387+440800056+441066407+441794855
1832+441508026+439326823+437394743+437220900+436833371+435401139+434219187
1819+433846438+433012572+431103686+429176458+427196299+424993905+423105720
1805+422213580+422720239+422155885+418945872+416343529+415092529+413409572
1792+411283839+409694636+409032698+408845456+408057488+406741492+405500954
1778+404137591+402665515+400774792+398488794+398498900+400156660+400300809
1765+399562924+399079993+398919105+399257486+399045224+398625019+399691403
1751+401048088+400275523+399041084+399217999+399247915+397976303+396617570
1738+396765682+397638234+397811275+398037961+398414538+398127575+398212961
1724+399017178+399725103+400227666+400668572+401058550+401474392+401792785
1711+402130231+402434600+402551594+403248211+404727142+404935308+403381097
1697+403045743+403868569+405598493+408190952+410768543+412342298+412346438
1684+412344969+414998196+417321500+417961935+417886255+418401906+419747418
1670+421209076+423174901+425765535+427837313+429419971+431785879+434753981
1657+437273476+437996314+436308371+437672713+440377892+441722024+443832576
1643+447330932+450283943+452036749+452158550+451673082+454053502+457639024
1630+460391214+462389804+464230934+466117072+468558437+470986403+471936773
1616+472660724+475896736+479748386+482546519+484726119+487079294+489632089
1603+492348086+495161176+497932643+500631589+503398159+506649707+510391398
1589+514160334+517687761+521350388+525473821+529499225+532668637+534761160
1576+537564858+542682733+547541647+551399530+555878840+561276599+566719367
1562+571372252+574303983+578440504+587612854+596889197+605402548+613191590
1549+620302580+627306459+634316348+638412358+639828786+648786782+660429211
1535+668601687+675392192+682548100+689553849+696212847+701667546+705214025
1522+710052684+718429854+727887074+737356937+746269035+754815684+762760629
1508+767243678+767321228+772340096+780146055+786271372+790062523+794912578
1495+802594243+809971673+816127173+821355720+826506717+832296991+838244147
1481+843873000+849220588+854021851+856962709+858259428+861340428+866909716
1468+871957965+875325839+879416684+885109821+889370458+890745529+894631236
1454+903530735+911005481+915737652+919904713+925495636+931197231+936125905
1441+941079241+945132336+947211859+951237175+958339839+963907791+967718352
1427+972538135+977263183+981195634+984595828+986093145+987814744+992535875
1414+996920985+999178491+1001131851+1004025786+1006262547+1006453796+1006572214
1400+1006738266+1005232045+1003359263+1003101415+1005267660+1007699676
1389+1006947145+1003236394+1001670607+1003733926+1006834336+1009148826
1377+1009611902+1008902107+1010416430+1013906372+1015195346+1014690156
1366+1014321992+1012433718+1011221939+1013703994+1016014655+1016020531
1354+1015264171+1014523124+1013574357+1012704209+1011532051+1010297656
1342+1008964877+1006150807+1003616577+1003066335+1003186622+1003359441
1331+1003485516+1004117849+1005371119+1006737020+1007835100+1008388726
1319+1009299296+1011148929+1012762349+1014004935+1016377209+1021108490
1308+1029005890+1038104206+1043688184+1044505890+1044424066+1046698490
1296+1049849472+1051579173+1052207055+1053081566+1054760249+1056191235
1285+1057485017+1059405789+1061042359+1061780111+1061639790+1061300919
1273+1061519502+1061625900+1061271893+1061345081+1061878317+1061809938
1261+1060263917+1057373455+1055573949+1056559933+1058394163+1059316130
1250+1060320277+1062195196+1063315803+1063046202+1062999458+1063139868
1238+1062676881+1062589180+1063475978+1064261632+1063896584+1062703502
1227+1062049177+1062203833+1062278979+1063012457+1064761390+1065733129
1215+1065625840+1065882709+1067126274+1068823477+1070101588+1070428706
1204+1069864308+1069360186+1069889060+1070656638+1070554603+1070437610
1192+1071280157+1072840779+1073741823+1072876394+1072013190+1072128492
1180+1070981531+1068767118+1068435815+1069561318+1069610110+1068942696
1169+1068453355+1067342097+1065636525+1064714824+1065181462+1065795899
1157+1065644449+1065178702+1064019187+1061549329+1058757162+1056646743
1146+1055341921+1054120971+1052009840+1050187452+1049017253+1046387576
1134+1042306792+1037851077+1033546367+1030653945+1028977398+1025586019
1123+1018741648+1011923987+1008504116+1006615753+1003874781+1000259744
1111+996843345+994240379+990868054+985608879+979912181+975872353+974533786
1097+974191710+972280375+969083362+965671059+961858273+958170493+955683452
1084+954138411+952929926+951987926+950412791+947874287+945754252+944177603
1070+942227449+940345941+938788169+937032291+935405693+933955475+931907381
1057+929963549+929719857+930354149+929566448+927529484+925889442+924637774
1043+923124520+921629428+920571770+920239132+921067967+921992071+921146497
1030+919697526+919898658+920942427+921189590+920632047+919761988+919713552
1016+921507003+923385751+922994349+921474416+921276757+922399678+923513161
1003+924476887+925529470+926021037+926130551+926636542+927211982+927626533
989+927444277+925910989+923765044+922183410+921333116+920331017+918555017
976+916734855+915330669+913844036+911959946+909865732+907866429+906425293
962+905564939+904512000+903083596+901874488+901112786+899796567+897616967
949+897498282+900938097+904476831+905789844+906792211+909234378+912617655
935+915000524+915893109+917605092+920578715+923050798+925356473+928373189
922+930942588+932372772+934032670+936203633+937748852+938722282+939275551
908+939408037+939647900+939122142+936813974+934134081+932763373+932967622
895+933810258+933775178+932881524+931943886+930992715+930142511+929517924
881+929195881+929436990+930207240+931332476+932903249+934788051+936319736
868+937558938+939894974+944342498+950163668+955484189+959272669+962103478
854+964276578+966128259+968626874+971211588+973151592+974621487+976145693
841+979197578+983386541+986307989+987153385+987214820+987700422+987943223
827+987776904+988941227+992364837+996651295+999736658+1002305879+1005845147
814+1008635889+1010076669+1013049757+1017012926+1019067875+1020817521
802+1023414877+1024994108+1025506243+1026905710+1031242383+1036008389
791+1036416084+1035530088+1039050391+1044881444+1048454100+1049870217
779+1050038050+1049937350+1052374442+1056516038+1057733427+1054696411
768+1051709967+1052790418+1056084837+1058910215+1060783353+1059663637
756+1056377320+1055101168+1055510377+1055105798+1054977408+1057774561
745+1062088798+1061923637+1055848625+1049821336+1048787095+1051678893
733+1054813493+1056353637+1055108558+1053529149+1054456548+1053171937
721+1048493098+1045919425+1045551974+1044198271+1042732116+1043324472
710+1043892878+1042474713+1040953445+1040857286+1041543664+1040957808
698+1040029341+1041199273+1043559171+1046475188+1047848122+1043557301
687+1037157041+1036390976+1040242493+1043983427+1047376587+1048041864
675+1047038874+1049274122+1046875760+1032799177+1022924556+1026537635
664+1030475339+1033544319+1035013590+1030913485+1028501145+1034431206
652+1040179901+1033558119+1019388227+1012380385+1017078456+1023976071
640+1018639345+1004219528+996677650+1000115149+1007455896+1013338323+1021062726
627+1030050192+1032148680+1029183427+1024347796+1013590562+1002352445
615+1002712239+1011262984+1013762045+1008383116+1001495028+995489109+998526659
602+1012436745+1013227473
##END=
