##TITLE=Sample description
##JCAMP-DX=4.24
##DATA TYPE=INFRARED SPECTRUM
##DATE=24/8/2023
##SAMPLING PROCEDURE=Instrument type and / or accessory
##ORIGIN=Default
##XUNITS=1/CM
##YUNITS=ABSORBANCE
##RESOLUTION=4
##FIRSTX=4397.6552
##LASTX=599.8556
##DELTAX=-1.9287962
##MAXY=1.4423183
##MINY=0.53525835
##XFACTOR=1
##YFACTOR=1.3432636e-009
##NPOINTS=1970
##FIRSTY=0.67474931
##XYDATA=(X++(Y..Y))
4398+502320846+503912994+505622464+505451007+503403991+501893801+502186396
4384+502829805+502160615+501003545+500848683+501558296+501941502+501278524
4371+500821926+501234063+501074897+500239220+499689128+499711935+500326324
4357+501027773+501244934+500895630+500330584+499861073+499373236+498932967
4344+498752458+498726189+498291067+497006424+495499384+494689399+494884818
4330+495901670+496976251+497682358+498130659+497911323+497021689+496195952
4317+496294504+497646416+498678843+498115306+496748839+495748361+496008121
4303+497166034+497472030+496133297+494620754+493993409+493694157+493888023
4290+494160251+493685238+493330742+493806998+494855443+495424394+495142270
4276+495289455+495987354+495856498+494730045+494121780+494714026+495375495
4263+495302190+494820078+494083264+493257172+493018001+492933471+492108443
4249+491348556+491486467+491808482+492053998+492501544+492151529+491056892
4236+490833873+491364441+491508653+490811553+489810188+489821148+490780270
4222+491787094+493283441+494742247+494471306+493126582+492001549+490805075
4209+489240350+487955485+488121573+489550694+490247794+489513998+488676812
4195+488226693+488408977+489765504+490813107+490532225+490112190+489637799
4182+488360255+487375485+488133820+489746024+490275883+489180091+487691377
4168+487015975+486955450+487154730+487366123+487377704+487321350+487005592
4155+486600067+486497565+486374031+486223873+486155361+485595018+484830472
4141+485017060+486145909+486783594+486143868+485504941+485869687+486235898
4128+485395473+483961293+483801240+484766663+484891351+483733482+482498759
4114+482271037+483019343+484114202+484904353+484567207+483258380+482445777
4101+482425144+482103484+481505558+481184918+480995179+480971218+481030190
4087+480620139+479900142+479896459+480609534+480788224+480306510+480289826
4074+480858244+481284314+481310050+480858954+480432663+480383276+480025896
4060+479551060+479369974+479157250+478916792+478481005+477970893+477750093
4047+477712953+478041402+478657831+479202333+479639806+479702061+479278077
4033+478590207+477823752+477319098+477235721+477200755+476881003+476780631
4020+477474315+478272940+478053959+476746864+475530156+475455387+476012934
4006+476353452+476369382+475996871+475466214+475394995+475953164+477013856
3993+478314384+478496979+477157092+476501126+476946586+476615475+475619168
3979+475881368+477444185+477674881+476226856+475447622+475206055+474732773
3966+474945364+475776337+475876576+475195273+474629517+473954870+473240109
3952+473875752+475718652+476382206+476051982+476206489+475560995+474075653
3939+473410768+473992808+475341437+475567695+474046677+473349267+473939073
3925+473873356+473339061+473888976+474529633+473390667+471488041+470802522
3912+470945759+471712879+473522543+474977889+474494445+472924750+471033395
3898+469831774+470949885+472940902+472316618+469970218+470153745+470815391
3885+469797385+469362707+468197028+466973043+468487893+470054438+470156407
3871+468838706+466484408+466769904+467652128+466165055+465556124+467482578
3858+470115717+469848370+462389711+458110290+461837001+465563801+467385757
3844+467665085+466809041+465308434+462795768+461263613+462200016+463604112
3831+464724486+465685871+466161328+466827810+465873214+461675794+461489516
3817+463930786+463810180+464642706+466735603+467176005+464860178+463267720
3804+463915965+463037291+462645255+463561425+462876705+462906923+464535812
3790+465850983+466527050+466662743+466388296+466246613+465145896+463577843
3777+464350465+466356480+467167575+466059847+464897496+465199410+465556568
3763+466118641+466849464+466444428+466086870+467289068+468469745+466270574
3750+464192320+468096302+471711193+470816811+472812797+478717069+483758686
3736+484039567+479674018+477667870+480973304+486255156+489010320+487406014
3723+484014452+480671922+478640881+479477046+482130907+482946527+481372306
3709+483337497+488695937+493813565+497578393+501462317+507244741+513965033
3696+520162567+525060104+527525424+526735629+526908728+530034851+532691019
3682+533897698+534301803+533623429+529354612+525354696+527019793+527508118
3669+525479917+526486208+529056293+531124518+533276609+536300186+539438334
3655+542742658+547037699+550138440+549265490+548086233+549487888+551641443
3642+553510434+554505587+554400690+553798459+554076190+555414790+553679140
3628+547400715+545812560+547954712+549062661+546758548+541713249+539292213
3615+538986395+538307887+538738793+539042881+537358393+536782654+537954101
3601+537930583+536227148+535004672+533881901+532547295+533365710+535106108
3588+532760285+528172604+526552989+526109792+524678496+522630948+521336011
3574+521521268+523399134+526926211+529205208+525992514+521903896+521018078
3561+520640020+519514277+519536685+521235772+522301700+522375360+524544268
3547+527968488+526773257+521302154+518262248+519279766+521270605+521926039
3534+521586674+521776635+523343357+525749572+527598906+526775520+523252658
3520+520593162+519864957+519443502+519952860+522374383+524433957+523765344
3507+522893415+524467414+525879274+524242176+521565419+520576833+520920103
3493+520728633+519890116+519436846+519911548+521223170+522786786+523409118
3480+522396259+521548824+522029916+521639167+519748522+518745382+519067929
3466+519753625+520594582+520996025+520618544+519628316+518170973+517504047
3453+518447106+519913812+520590056+520156976+519483926+519147889+518939158
3439+518806705+518430023+517502449+516638329+516808234+517667029+518187435
3426+518580092+519208414+519756065+520068585+520154979+519633063+518634138
3412+518438853+518932902+518261494+516350393+515400988+516484044+518039762
3399+518339191+517774988+517573224+517162241+516186435+516418150+517712245
3385+517805428+516860461+516810940+517234836+516593513+515756371+515807223
3372+516126487+516269545+516165712+515752910+515254779+514616651+513611868
3358+512965709+513227465+513272060+512483241+512038357+512663484+513637250
3345+514142170+513711353+512309565+511013474+510817656+511556999+512648264
3331+513300681+512742779+511256017+509931660+509104813+508663834+508997874
3318+509345981+508730749+508355708+508450977+508014524+507750594+507703203
3304+507036854+506458185+506533531+506263699+505676156+505977448+506428855
3291+506257575+506374187+506651075+506381154+505998259+505429619+503960740
3277+502689098+502684527+503349723+504103399+503973297+502825279+502128711
3264+501723763+500360979+499164550+499330505+499706167+499691613+499827527
3250+500222713+500384675+500002357+499471478+499045808+498707242+498528685
3237+498875549+499772726+500427672+500122652+499015856+498039117+497667494
3223+497650809+497386879+496636842+495817894+494980442+494224725+494267944
3210+494981817+494944411+494044127+493258325+492778121+492526481+492420341
3196+492955302+494438603+495772633+495150568+493166429+492886701+494438381
3183+494820876+492844636+491546770+493136078+494615518+493389625+491913158
3169+493748248+496725188+495936946+492475408+492068774+495857075+497519731
3156+494110820+491562256+495043496+500247340+498834060+492539305+491549876
3142+498538003+502364997+496130013+489563119+492151086+499073186+498270256
3129+490477158+488254825+496914617+505180731+500626019+491259055+491486023
3115+501379162+505350413+495924788+487632094+492176290+502159373+500683749
3102+488964483+484651426+493806998+503870662+499514742+487491521+484603947
3088+494421652+502997801+496481581+485310942+484151076+491836082+495783283
3075+489308240+482322598+484152718+492219642+494277973+486296023+479734720
3061+481861917+488863445+490228315+483723010+478372690+478417818+481198497
3047+481750852+479052086+476720151+476694903+477812526+477662589+475694158
3034+473942268+474073700+475291340+475539163+474540016+474564200+482181403
3020+513000852+572294282+619444905+609155471+569673390+538104348+518874951
3007+505810206+496008653+489436745+485803927+483514634+480566758+477743836
2993+477324334+480763597+484827277+483120691+477504932+475101690+478955574
2980+485481912+485893959+479474117+474588960+475712440+481574203+484984756
2966+480948410+475379421+475561128+484080568+492552617+488318900+477819936
2953+473944131+479628358+489338680+490059653+480441759+473311816+475390647
2939+484207519+488687728+482132415+474220265+473639999+480873021+489046706
2926+486824550+477104998+471764929+474784911+482073310+483410713+476220422
2912+469869048+469972348+475499316+480014092+477315637+471900444+470559003
2899+473958153+478640837+478498932+473121367+469100285+469830443+473864260
2885+476509645+474166706+470084878+468577172+470048270+472338716+472098791
2872+469074904+466804337+467578513+470218130+471487597+469831996+467525265
2858+467003483+467928350+468561020+467426358+464934680+463239055+463470948
2845+464617591+464991877+464230925+463537596+463768957+464503552+465115944
2831+465358043+465071837+464467876+464217169+464727192+465385688+465223859
2818+464601217+464467566+464674655+464732251+464608894+464499293+464519216
2804+464400651+464095898+463935533+463959273+463961181+463816303+463810801
2791+464015849+463742112+463001171+462768745+463327046+463977643+464110718
2777+463956921+464066966+464268819+464115644+463874609+464007107+464349223
2764+464502754+464553561+464774183+464990635+464989392+464895810+464696886
2750+464341369+464133792+464230925+464468542+464805910+465136489+465155126
2737+464949102+464932462+465136311+465513615+466129823+466565433+466473093
2723+466162482+465972831+466002251+466297021+466784059+467097021+466867169
2710+466384435+466184890+466110964+465892827+465889321+466434177+467250375
2696+467734883+467733685+467660026+467674714+467698853+467915659+468360543
2683+468720718+468910236+469063411+469124069+469142085+469335773+469628324
2669+469820814+469932190+470089448+470352491+470727976+471242925+471785296
2656+472209413+472516075+472663793+472704350+472775036+472895153+473102686
2642+473378730+473727014+474272314+474898062+475384168+475834865+476373997
2629+476853536+477260215+477720008+478157881+478562474+478929616+479120952
2615+479299643+479596498+479817520+480018707+480380347+480932480+481646708
2602+482331694+482878769+483255274+483404811+483628762+484103553+484497807
2588+484752819+485112817+485561827+486058140+486601576+486972978+487137557
2575+487395808+487800002+488139100+488433293+488880396+489486753+490055437
2561+490444988+490682960+490866975+491099712+491484514+492095841+492833764
2548+493422860+493758320+493965187+494234931+494675244+495083786+495302545
2534+495570381+496065672+496489479+496496978+496378014+496572235+496999857
2521+497578038+498299099+498808013+498890236+498849502+499081173+499548732
2507+499869504+500017444+500217876+500342698+500336086+500502130+500863859
2494+501154946+501323874+501391542+501443503+501616380+501736321+501723896
2480+501835494+502022083+502059489+502242972+502663140+502703918+502287034
2467+501968170+501990844+502229394+502446954+502502066+502400185+502349778
2453+502403425+502320136+502232633+502330431+502383900+502370855+502443449
2440+502306824+501738451+501091448+500706689+500695241+500977187+501149310
2426+500897804+500357208+499836979+499477823+499069814+498337482+497654182
2413+497558691+497747409+497652007+497208810+496603917+496096201+495928560
2399+495955405+495963259+496451762+498432529+502957333+511193761+524046181
2386+541457305+562251117+584217442+604902584+623208135+640174110+657663154
2372+675846058+693404723+710030667+725875913+738743863+746405705+749919337
2359+749299003+741837105+727549130+710102152+693380983+683395859+685460579
2345+694849996+696673416+688586657+679874550+673053443+669152479+671568323
2332+677746199+678952834+674845402+673759018+677491232+679089636+673728134
2318+663316896+653460542+650654349+654181958+655226809+648760908+636450327
2305+622037221+610134650+602105399+595038864+587016092+578020796+567915642
2291+557449781+547869116+539400927+532013709+525954974+521120358+517102382
2278+513566253+510406851+507668903+505300804+503368493+501940215+500771030
2264+499651899+498619694+497711778+496790639+495962239+495457097+495075444
2251+494706350+494423250+494141259+493895034+493807530+493859890+494035252
2237+494332773+494548293+494662420+494842575+495091818+495629841+496404904
2224+496822010+496818239+497039882+497808999+498686209+499400481+500083826
2210+500707621+501374636+502225444+503062630+503674756+504198135+504946087
2197+505902325+506779402+507486752+508154299+508883791+509675761+510515165
2183+511441895+512407319+513195871+513778090+514428154+515261169+515986090
2170+516478764+517029522+517764383+518616478+519322852+519561579+519675617
2156+520100356+520569955+520777355+520841607+520816891+520537563+520141711
2143+519924905+519728332+519280653+518655881+517904779+516979158+516012581
2129+515048134+513926784+512644226+511247098+509676382+508105844+506855546
2116+505831994+504573087+502952363+501281808+499709584+498214258+496785536
2102+495294026+493676497+492086168+490638942+489267861+487989475+486800811
2089+485401108+483708101+482059777+480721087+479686309+478702471+477555917
2075+476346752+475172332+473990989+472963266+472401149+472082018+471308863
2062+470198073+469345224+468627091+467857042+467299584+467052915+466895967
2048+466767507+466761473+467000910+467570393+468089823+468355218+468661747
2035+469079696+469643189+470426461+471271545+472043059+472887921+473793796
2021+474555991+475223228+475392644+474610037+473465835+472577398+471939581
2008+471216301+470141276+468910324+467657453+466182627+464577034+463318127
1994+462498292+461369576+459467039+457352221+455435041+453758451+452215646
1981+450699021+449380611+448255001+447099084+445878515+444886690+444306247
1967+443590111+442371628+441205860+440263067+439295824+438487747+437905707
1954+437358943+436821852+436303398+435765597+435359717+435268885+435012942
1940+434382534+433999950+433874419+433651755+433339858+433185706+433249869
1927+433438854+433874419+434321255+434370066+434171585+433972439+433907610
1913+433942088+434089318+434329553+434428505+434577509+435026919+435452456
1900+435705782+436028773+436258803+436145873+435871204+435411855+435013208
1886+435193984+435548213+435920148+436625679+437064439+436852647+436800109
1873+437512074+438325786+438041311+437552897+438636264+440508050+441677457
1859+441627670+441051176+440879453+441424042+442809545+444811966+446280357
1846+446314081+445453200+444909143+444712748+444581315+444923741+445643827
1832+445135844+442511359+440533432+440643654+440384383+439128494+438203627
1819+437756081+436501612+434363898+432481462+430553810+428506617+426801318
1805+425814373+425875608+424833375+421708495+419523390+418349591+416353649
1792+413913089+412468304+412242179+412336206+411474571+409849631+408355015
1778+406987794+405544695+403481217+401091997+401452838+403502161+403711646
1765+402827514+402150382+401780533+401880993+401549838+401204350+402157215
1751+403037398+402022410+401127540+401591193+401472007+399858871+398476031
1738+398907691+399893393+399956847+400286804+401008576+401103889+401428522
1724+402304268+402947499+402989476+402401666+402269967+403375876+404282327
1711+404797365+405017633+404728764+404816534+405747125+405500544+403928275
1697+404155554+405910861+408319295+410837951+412885188+413827849+412980546
1684+412625651+416369934+419787055+420944303+420788420+420753676+421538768
1670+422766835+424942222+427790791+429975541+431681328+434236192+437206033
1657+439187732+438726164+436359219+438322591+441185626+442477768+445018966
1643+448992613+452003765+453401249+453015115+452568412+455932906+460192271
1630+462677470+464018422+465613055+467334328+469602410+472228627+473481143
1616+474339805+477731634+481799174+484507303+486293671+488602576+491484869
1603+494281833+496917368+499640539+502374449+505125176+508354333+512037115
1589+515843564+519717106+523669232+527525646+530991133+533650407+535154209
1576+537825774+543359310+548126746+551681600+556382743+562073004+567379350
1562+571429851+573412837+577064868+586835316+596712303+605689806+613777762
1549+620977283+627704097+633713933+635955657+635296762+643902863+656696843
1535+665802184+673271492+680666963+687159977+693255674+699277268+703869298
1522+708485066+716413413+726499797+735901372+743564014+751151664+758934335
1508+763239315+763196540+769390035+778226032+785107220+789734615+794714331
1495+801936570+809184457+815120234+820299895+825987538+831575342+836924064
1481+842647739+848067724+852144716+854047608+854196168+857342925+864841963
1468+871723328+875872560+879773657+884818246+887785114+887229387+890944916
1454+900833973+908916250+914246513+918050433+923216072+930302530+936752147
1441+941864006+945619382+947864301+951008040+956095760+961210282+965968577
1427+970557278+974562829+978457714+981505873+982201820+984668249+991582362
1414+997332749+999504186+1000742725+1002001055+1001474614+1000957313+1003663978
1400+1006560914+1006957254+1006794937+1006391942+1006436670+1006825466
1389+1004382199+999259336+997570588+1000689478+1004650656+1007631723+1008857306
1375+1007284194+1006200250+1008791989+1012296746+1014220671+1014309417
1364+1013035912+1012524025+1013404119+1014052852+1013860451+1012329316
1352+1010134095+1009165609+1009509678+1009478883+1009178300+1008381982
1341+1005673986+1002794888+1001334661+1000774585+1000533551+1000421199
1329+1001437607+1002581898+1003018972+1004256002+1005745161+1006494976
1317+1007810458+1010134627+1012679330+1015781980+1020779889+1028401840
1306+1036096652+1040070343+1040590306+1040421068+1041325656+1043675650
1294+1046821696+1049589152+1051633594+1052954933+1053295274+1054229947
1283+1056605589+1058725376+1060199004+1061762531+1062428836+1061232274
1271+1059681881+1059128727+1058849000+1058232037+1057511242+1056377512
1260+1054734113+1054416580+1055465025+1055688399+1055506559+1056225135
1248+1057465272+1058914405+1060375431+1061251177+1062033029+1062997343
1236+1062265100+1059942883+1058627223+1058582318+1059119586+1060761299
1225+1063010566+1064190888+1064067088+1063890749+1063626197+1062890848
1213+1063289761+1065258237+1066949114+1067577436+1067726796+1068096423
1202+1068866561+1069933377+1071498590+1073196656+1073741823+1072064967
1190+1068927263+1066272515+1065549235+1067509723+1070803443+1072419507
1178+1071526989+1069798305+1068913862+1069360521+1069474560+1067439170
1167+1064814240+1064107645+1064659734+1064618289+1063938317+1063030002
1155+1061994247+1061093830+1060132178+1059085774+1058044251+1056266668
1144+1053186472+1049339687+1046019166+1044358994+1043457956+1041017086
1132+1037265792+1033604841+1029844762+1026309919+1023176830+1019716445
1121+1016214084+1013089248+1009617238+1004815369+999494690+995239763+991221254
1107+986688463+983096557+980726062+978373938+974769341+969666623+965641814
1094+964171115+962344811+959040885+957559537+958051811+957051732+953799013
1080+949145439+944434534+941580374+940530419+940480100+940448596+939014815
1067+936700763+934938622+933713306+932736745+932062097+930511261+927590896
1053+925858574+926276834+925947586+923924088+922491994+922206853+921846988
1040+921347436+920899091+920176078+919750363+920377176+921147935+920736775
1026+919719657+919015635+918234315+917195898+916425671+916837541+918663579
1013+920149276+920207494+920161967+920884360+921960405+923023671+923778367
999+924372877+924887337+924514959+923423294+923130965+923924709+924372522
986+923696011+922807131+922156534+920709796+918288361+915655356+912908933
972+910574025+909100220+907906941+906656421+905390105+904029451+902182824
959+900446242+900317027+901119203+900846131+899787569+899908707+901561779
945+903685382+905776505+907623132+908957872+909689849+910624256+913126716
932+917046716+920476394+922645081+925068645+927974545+930522443+933231504
918+935377205+935669712+935359722+935879951+936520786+936709282+937075448
905+937347455+936656567+934969772+933292383+932709145+932500325+932055441
891+932322744+932680213+931765952+929839454+927936917+927943661+930187782
878+931963234+932257339+933232746+935840548+938141288+939538328+942407398
864+947166314+951646834+955205371+958822215+962644506+965781766+968199208
851+970650639+973231373+976519679+980440389+982884365+984013126+985607980
837+986779960+986761324+987262295+988720392+988552662+986244644+985331270
824+988338163+994125823+1000294380+1005832930+1009297397+1009698973+1010499107
810+1014326811+1018333161+1020584825+1022554898+1024318192+1024871346
799+1023685966+1022113653+1023315895+1026552462+1029224693+1032884046
787+1038875023+1043817644+1044305126+1043021326+1045009236+1050469779
775+1055585986+1057956126+1058545222+1058783771+1058356814+1057999434
764+1060038374+1063402380+1065232500+1065387540+1064119537+1061873730
752+1059433570+1057312096+1055936710+1053317549+1050292020+1052129063
741+1057274734+1058608409+1055519604+1052822169+1052828736+1054410457
729+1054389512+1050908184+1047305806+1045262340+1043331227+1043812674
718+1044810268+1041216587+1037419589+1037536023+1037693991+1035576423
706+1032936495+1031343859+1032121895+1036114224+1039698231+1038614820
694+1035594616+1033501186+1032282171+1034154002+1038337755+1041369585
683+1045109253+1049930203+1048869422+1041733177+1038785301+1040640714
671+1037294989+1029474868+1029186089+1032554089+1033067573+1036997868
660+1041914308+1042302394+1044705459+1051722429+1055435473+1053498680
648+1051284911+1047831981+1037343090+1021962074+1012091565+1012727697
637+1015988758+1016907900+1020965545+1030871198+1039911399+1036647055
625+1020773943+1010802885+1021256987+1032292110+1022796731+1012873684
613+1008921380+1007635184+1019609684+1031852818+1031116758+1031439705
602+1036259856+1038165410
##END=
