##TITLE=Sample description
##JCAMP-DX=4.24
##DATA TYPE=INFRARED SPECTRUM
##DATE=24/8/2023
##SAMPLING PROCEDURE=Instrument type and / or accessory
##ORIGIN=Default
##XUNITS=1/CM
##YUNITS=ABSORBANCE
##RESOLUTION=4
##FIRSTX=4397.6552
##LASTX=599.8556
##DELTAX=-1.9287962
##MAXY=1.4672381
##MINY=0.4869048
##XFACTOR=1
##YFACTOR=1.3664719e-009
##NPOINTS=1970
##FIRSTY=0.73469824
##XYDATA=(X++(Y..Y))
4398+537660684+538207191+538922330+539349800+539026581+538242086+538124707
4384+538425768+538121915+538065821+538575469+538702489+539153033+539732080
4371+538250810+535500260+533782180+533163309+533225684+533488229+533625151
4357+534383255+535589854+535736677+534873711+534522663+534787520+534634895
4344+533775245+533151226+533516931+533863967+533596187+533813804+534328687
4330+533619175+532397222+532725065+533677014+532997686+532113870+533184377
4317+534481006+533824971+531967702+530627148+530050979+529802960+530423707
4303+531675670+532196834+532035312+531738875+530814667+529888715+530266372
4290+530963322+530906791+530655195+530488874+530697724+531457835+532019129
4276+531457093+529615135+528067912+528512263+529609202+529423428+528961149
4263+529196738+529404061+528968347+528065295+527745303+528362081+528754743
4249+528413290+528275453+528618825+528847826+529127252+529609900+529913360
4236+529727236+528823399+527597390+526951867+527148765+527419423+526954309
4222+525841318+524955975+525187071+526154025+526761163+526782798+525701212
4209+523428381+522183877+522791975+523520505+524138810+525731222+527320407
4195+526769756+524856654+523889831+524088386+524351149+524119792+523842460
4182+523497518+522900282+522662861+522996070+523709726+523873953+522727331
4168+521338534+521003755+521874529+523500833+525166744+525489048+524292874
4155+523517932+523682639+523396059+522416150+521687358+521267042+520777632
4141+520869364+521876622+522403370+521504418+520400586+520153046+520413847
4128+520191083+518858249+517869267+518731273+519756197+518823833+517382475
4114+517720874+519041363+519328248+518592040+518438762+519031113+518889044
4101+517615010+516729755+517848722+519535396+519413524+518664797+518929043
4087+519326678+519270714+519355248+519422727+519063478+518816462+518904573
4074+518662136+518005490+517622294+517695924+517835288+517640745+517257026
4060+517256502+517324723+516847876+516228786+515874292+515685027+515775537
4047+515828884+515565903+515854401+516688534+517107935+516906937+516102508
4033+515119153+514603529+514252654+513756484+513747455+514299850+514806708
4020+515200634+515269291+514808758+513996958+513222757+513062369+513249976
4006+513180010+512925142+512791405+512970245+513348119+513555355+513520023
3993+513573457+513430604+512637255+511783624+511659963+512258987+513011291
3979+513775109+514315030+513904266+512730207+511492682+510713684+510885152
3966+511812456+512557257+512631061+512810423+513309909+513223891+512465133
3952+511695338+511060763+510393343+510168878+510194744+509902713+510259694
3939+510926459+510457028+509584553+509152241+508750987+508916610+509649895
3925+509540454+508750681+508603597+508600718+508061365+508198068+509511272
3912+510584614+510990711+511091515+510019002+507763226+505593337+503767910
3898+504210472+506927261+508442380+506964686+506087152+507582816+506639460
3885+503310212+502649204+503093118+504751745+507852471+508480285+506746110
3871+504903322+503350952+503625275+503861037+503449750+504934903+507165117
3858+508403689+507162806+499962164+495374540+499584943+505018390+507394512
3844+506014351+503133117+500274217+498235796+499650547+502398000+503229909
3831+503711292+505151342+506088286+506708423+505265625+499769671+498101754
3817+499757807+500861551+504375964+508567131+509470096+505868008+503066903
3804+503212461+502059775+502265223+504393325+505121681+505959652+507317436
3790+507962131+508149607+507974824+507856354+508426066+507972207+506429171
3777+506614641+507806453+507638606+505248831+503177347+503599845+504798330
3763+506251553+506593835+504418537+503605602+505223532+504597289+498916564
3750+495890252+499675148+501304026+498562418+499864020+503733843+503760582
3736+497878074+493434176+495895835+500813875+504340676+504955840+503709286
3723+503295861+503937197+504623024+505519053+506030708+503374681+498664662
3709+498755041+502267927+505148812+505465227+504330992+505044387+506579440
3696+507186404+507006910+505050843+500571003+498682633+501368670+504431971
3682+505815490+505600054+503575331+497737619+493450097+494754142+493808954
3669+491734940+494083974+497251961+498615765+498596005+497530864+495016425
3655+493499256+494069187+491479025+483272433+480411133+483922885+486269215
3642+485850120+484381194+482705905+479936642+476569445+473849515+468145061
3628+459688225+458796165+461833382+462680165+458773832+452343159+449771230
3615+449218791+447387868+445568722+443590584+441282683+440042061+438436432
3601+435545994+432957446+430835059+428431282+426768599+426485379+425287111
3588+421427713+419171763+420061641+420367195+418459807+415578530+413350627
3574+412268125+412066560+411325292+407497736+402026690+400716276+402023985
3561+402421270+402207710+402337826+401756555+399631550+397490711+396250831
3547+394633119+392916828+392758446+393504381+393628434+392936762+392203128
3534+391797816+390967609+388755845+386054890+384955987+385037730+384779983
3520+384662604+384950142+384800441+383985675+382859989+381651820+380653198
3507+380250155+379676561+378330903+377481198+377211412+376365850+375239816
3493+374466794+373800115+373121573+372563986+372197016+371955889+371677335
3480+371329427+370722943+370014041+369692392+369490042+369125166+368768665
3466+368139761+366965745+365745232+364933584+364445593+364291071+364349216
3453+364118120+363392621+362233240+361208250+361248794+361701280+361484034
3439+360861149+360222234+359866279+359883508+360058924+360322908+360179815
3426+359417283+358645438+358362937+358444723+358523151+358754879+359254037
3412+359478742+359114651+358647837+358749012+359459397+359943245+359502362
3399+358894984+359265095+360128453+360390474+360160993+359899887+359934543
3385+360652910+361607128+362248659+362961574+364071055+365299115+366374049
3372+367501042+368820746+369668053+369657628+369667747+370597320+372579994
3358+374985036+376848019+378148312+379343483+380413117+381383779+382273527
3345+382993334+383811764+384860068+385815027+386630230+387515616+388404753
3331+388955535+388991346+388905983+388984236+388837326+388335093+388115818
3318+388343555+388380457+388083802+387908670+388414785+389707140+390898560
3304+391418372+391607069+391616709+391575096+391732518+391741286+391424347
3291+391444412+392277717+393477075+394276487+394887246+395916226+396884315
3277+397327924+397618821+398126725+399167963+400726091+402245135+403385956
3264+404058567+404178782+403953488+404000989+404814403+405771631+405952695
3250+405974504+406664214+407127626+406733787+406617628+407252072+407801894
3237+407947496+408163935+408842216+409549155+409594476+409320110+409473650
3223+409976189+410476459+410872392+410879459+410495608+410402350+410861618
3210+411404418+411943422+412577735+412972534+413066403+413287030+413818750
3196+414213418+414150388+413968801+414084610+414677179+415366016+415891193
3183+416611524+417123266+417071403+417189219+417649359+418129958+418555988
3169+418647850+418686105+419267900+419849346+419849346+419931568+420607363
3156+421161155+421073393+421099913+421791062+422532024+422790949+422907195
3142+423154037+423136938+422751822+422572154+422917140+423475075+423790182
3129+423850202+423871663+423607678+423141605+423259508+423692692+423445632
3115+422977422+423372526+424181447+424345543+423924660+423443626+423123198
3102+423180383+423742855+424281118+424370624+424550249+424873032+424995777
3088+425279390+425740098+425955403+425790609+425620363+425885656+426214677
3075+426216160+426140524+426205212+426461868+426766898+426776756+426764979
3061+427162744+427628991+428049787+428407990+428227449+427717975+427447055
3047+427448407+427622710+427873173+427876662+427449672+427016096+426937406
3034+426943731+426943164+427217094+427606920+427716754+427585285+427509343
3020+427618872+428001544+428628965+429061146+429180053+429266419+429268295
3007+429334552+429776111+430358255+430570246+430350404+430529985+431740466
2993+433137682+433617931+433487945+433743118+434673389+435924698+436907442
2980+437178231+437145080+437451332+438051273+438627005+438839388+438552677
2966+438110639+437841725+437842947+438040237+438180866+438184661+438122852
2953+437655122+436840006+436886505+438029027+438901589+438850990+438346183
2939+437966520+437976640+438323545+438945950+439617819+439682594+438844622
2926+437912738+437534383+437265775+436841839+436597963+436475872+436086700
2912+435687277+435828037+436506013+437586508+438676469+439111529+439099010
2899+439227295+439340487+439266639+439374990+439691928+439698907+439432960
2885+439561288+440218763+440831310+441013857+440961906+441018829+441044957
2872+440587870+440086334+440434722+441183405+441355876+441055644+440758073
2858+440540892+440526149+440794757+440820100+440298281+439868543+440010044
2845+440527370+441076014+441411840+441660427+442083753+442716931+443561926
2831+444315014+444679890+445008606+445323145+445366110+445483752+445818051
2818+446188902+446665924+447311621+448049443+448709055+449045797+448972167
2804+448898669+449323696+449993384+450311544+450417888+450880689+451572056
2791+451992547+452076907+452028184+452237251+452850016+453383656+453690954
2777+454134258+454594050+454724297+454616993+454596100+454895198+455422992
2764+455924571+456296645+456472431+456589112+457011435+457730413+458403111
2750+458873459+459251421+459613461+459753131+459639720+459573986+459620353
2737+459685390+459740612+459846563+460259813+461117981+462203318+463211405
2723+463882053+464147128+464439160+465027890+465558214+465793192+465798732
2710+465832711+466209364+466852532+467387524+467625336+467848362+468454977
2696+469365531+469970750+469943444+469801245+469964949+470215236+470406289
2683+470753718+471231873+471400593+471262756+471382055+471997786+472718029
2669+473071782+473008926+472801996+472921513+473600449+474338924+474604130
2656+474567359+474616213+474828377+475141521+475516822+475868525+476118246
2642+476300575+476468030+476675483+477131524+477831091+478220699+478008797
2629+477798900+478137343+478718440+479208416+479753266+480313775+480700504
2615+480947782+481193490+481774718+482697355+483357491+483733664+484236901
2602+484684785+484990731+485428102+485965231+486461184+486834914+487066097
2588+487459718+488175294+488830588+489212824+489561823+489983666+490343307
2575+490606725+490904296+491308953+491736161+492084854+492363320+492634982
2561+492900580+493309381+494061946+494807532+495090622+495092933+495143096
2548+495345533+495725807+496119908+496479898+497037659+497657142+498030218
2534+498368879+498940816+499439604+499497225+499388307+499563134+500087264
2521+500832326+501630866+502319965+502697622+502747740+502829221+503091330
2507+503347812+503635002+504110453+504620930+504969711+505285690+505661645
2494+505984777+506284617+506544501+506565002+506442563+506448102+506552047
2480+506590999+506576605+506639111+506767134+506755750+506576779+506495735
2467+506566747+506644433+506749948+506758454+506479857+506121873+505925978
2453+505814007+505816625+506108089+506351921+506030011+505272822+504566014
2440+504173788+504067444+503981340+503680322+503379480+503282993+503107338
2426+502776311+502480702+502167821+501712304+501160606+500679310+500236922
2413+499785811+499484183+499323402+499129295+498759839+498330319+498061842
2399+497854607+497563534+497103001+496459615+495737017+494909252+494157821
2386+493625665+492769853+490996333+488282467+484952171+481358284+477806272
2372+474289242+470507922+466968167+464158469+461152266+457927485+456070653
2359+456022410+457006637+458983598+462714450+467606275+470862112+470198530
2345+466315534+462720382+461214336+460960951+461553084+462575478+463100350
2332+462913616+462885132+463503786+464239077+464997487+466355577+468138562
2318+469657563+470819583+471837528+472669088+473334370+474271663+475550191
2305+476530056+476964985+477189799+477476466+477963520+478528957+478994420
2291+479473317+479972235+480288868+480461601+480676034+480906649+481113710
2278+481254121+481181190+481084486+481266160+481687611+482184610+482577707
2264+482856479+483269903+483857282+484351794+484736256+485224531+485784734
2251+486331285+486929307+487546215+488109952+488711332+489392231+490010404
2237+490437613+490745347+491152011+491643514+492087559+492590883+493258259
2224+494043539+494752004+495339557+496117160+497013974+497664208+498296296
2210+499211998+500148287+500872805+501572198+502491782+503500392+504317645
2197+505041683+505807944+506520685+507256500+508127492+509020729+509887010
2183+510793289+511801769+512951837+514147750+515267328+516278120+517261388
2170+518324479+519328728+520223317+521198995+522177465+523022678+523835873
2156+524621066+525392518+526313672+527289612+528066342+528620046+529047690
2143+529417539+529696747+529768718+529573042+529184568+528783095+528309476
2129+527562189+526708558+525835342+524704335+523349736+521867157+520271080
2116+518803594+517413052+515769038+513974014+512199840+510377553+508653628
2102+507220121+505924190+504411688+502504082+500521015+498841756+497268711
2089+495532311+493833904+492321620+490859106+489355285+487768107+486110658
2075+484524222+483095295+481685299+480118011+478421392+476722418+475160277
2062+473794947+472490554+471087886+469570542+468130841+466940294+465788917
2048+464430392+463063099+461829674+460406505+458789579+457436811+456294682
2035+455055150+453910142+452997537+452003670+450811247+449599588+448441014
2021+447324751+446071523+444549294+443160279+442190533+441306237+440342249
2008+439408228+438434207+437474363+436590809+435650986+434713693+433841655
1994+432796055+431421957+430132002+429246790+428552457+427982570+427444787
1981+426703476+425790348+424881538+424122081+423539850+422933715+421951276
1967+420655039+419746143+419417863+419126573+418606892+417806825+416679657
1954+415716585+415375656+415150711+414440849+413436906+412288452+411217552
1940+410974156+411164424+410883821+410167896+409349553+408631273+408117786
1927+407609271+406624215+405323005+404494237+403873577+403316820+403419849
1913+403616616+403170607+402479197+402255909+402415207+402428468+402156937
1900+401776271+401216896+400389698+399763411+399442460+398892594+398450337
1886+398528721+398658402+398699709+398670659+398504818+398315030+398096104
1873+397569793+396051272+393811330+393256317+394545008+395653769+396016900
1859+395995701+395841288+395636844+395334868+394889034+394271340+393360873
1846+391810902+390375476+390891537+392200031+392589377+392381793+392251196
1832+391353640+389166652+387898201+388323272+388904805+389604983+390301585
1819+390421146+390086759+389540776+388559820+387273921+386725102+387000645
1805+387127839+386422689+384770038+383484357+383493430+383338712+381691688
1792+380054697+380986799+382696155+383039440+382309600+381464911+380843335
1778+380624235+380065863+377930739+374752370+374184446+376228711+378065217
1765+378753400+378029493+377052245+377141839+377398495+377664443+377425888
1751+375202740+372391777+372205566+373522871+374202373+373776256+373070800
1738+373055358+372185719+369309938+368967918+371553805+374030295+375422800
1724+375482384+374827875+373310052+369301694+365442252+367314395+371040187
1711+373089163+373035206+371077351+369019869+368496785+366907383+363560119
1697+362955926+365509120+368955966+370782091+370406180+368991603+365826975
1684+361666668+363309548+367208313+369054982+368160349+366423993+365420660
1670+364013477+364272053+366660672+367387676+366257890+366457318+367378428
1657+366563793+362389397+356322576+357090734+358712895+357974179+360058117
1643+364444153+366824462+366592015+364237594+362934356+367536592+373173262
1630+376573740+378643872+380870597+383600952+387774627+392166749+394614537
1616+397425893+403436468+409346456+413417888+416764933+420542458+424212068
1603+427642601+431545618+435669001+439160252+442182987+445616529+449629031
1589+453789054+457674188+461242776+464811364+468405469+471136172+472269447
1576+474666331+480459507+485247562+488164825+492279091+497750095+502588311
1562+505595431+505193129+505399623+514123105+523535859+531230404+537504134
1549+543297179+548013392+550462489+550424933+550486392+559618936+571630489
1535+579275656+585606833+593632143+600859000+605994222+610157516+613498760
1522+617564390+624780168+632891888+641396923+649906452+656007755+658416591
1508+657860444+662750611+675578501+685426795+691484304+695105846+699789956
1495+707523103+714160095+717677256+720965328+727952933+736392845+743928003
1481+750745973+756733778+760902307+762824176+764123597+769542257+778512232
1468+786054631+791596647+797767130+804256384+808383561+810015536+815687537
1454+827346210+838360799+847058152+854618523+863353476+872254009+879828425
1441+887176631+893927514+899985372+908522817+918034980+925224324+931323534
1427+937769604+943428868+949239579+955233753+958624374+961830659+968600211
1414+975208545+979409789+982432175+984995162+986959167+988562267+989590462
1400+989284516+989526604+991992756+993910612+994873553+995493559+994026116
1387+990888924+991319098+996620683+1002380359+1006089227+1007399989+1005916931
1373+1004361726+1005510224+1007306557+1007849094+1006909882+1004126181
1362+1002430435+1004438670+1007329413+1008383257+1007321213+1006852828
1350+1007798758+1007896291+1007083574+1006439840+1004437449+999617421+995924780
1337+996531700+998443799+999791637+1001225231+1003740150+1006644938+1008590362
1323+1010165196+1011351032+1011462697+1012680376+1017050949+1022535126
1312+1026271212+1028662251+1031662479+1034964901+1037193327+1039124270
1300+1042380020+1046792380+1049970226+1050671451+1051798750+1055531696
1288+1059509084+1061346245+1062019117+1063249184+1064984449+1066428948
1277+1067981972+1069374913+1069333475+1068665401+1067959988+1065940150
1265+1063143712+1061285963+1060396477+1060257069+1060818102+1060933867
1254+1060399007+1060353294+1060958818+1061496121+1062153029+1063958522
1242+1066090637+1066211201+1064259059+1062581894+1062080272+1061780694
1231+1062085332+1062866031+1062649504+1062219069+1062430274+1062586954
1219+1062779141+1063597790+1065026760+1066503450+1067815085+1068805419
1207+1068895275+1068923278+1069898433+1070350155+1069652333+1069586729
1196+1070732086+1071906145+1071823269+1071215302+1072298022+1073741823
1184+1072490558+1070656450+1071510256+1073138654+1072721653+1070901766
1173+1069520951+1069003102+1068782911+1068369487+1067233028+1065856488
1161+1065392552+1065792455+1065541207+1063384665+1060538850+1058261832
1150+1056516447+1056267729+1057376621+1057339457+1055373357+1053547974
1138+1052294528+1049454907+1044547030+1038972038+1034065034+1031425800
1126+1031019180+1030180816+1027034464+1022637893+1018874675+1015311758
1115+1010868776+1006471071+1002296698+997138184+991718390+988571252+987314578
1101+984374109+979797041+976245291+973630048+971363062+969888465+968367283
1088+965626591+962994511+961309495+958243228+952810522+947446038+944126342
1074+941216494+936460674+931518076+928580311+926629740+924018772+920784658
1061+917576715+914017898+909670268+905899722+903796571+902068895+899876934
1047+897714984+895224056+892680436+891587160+891645087+890817453+888866882
1034+887303215+886522341+886221018+885717825+883661608+880427319+878104500
1020+877563009+877808848+877555245+876478981+875315652+875156965+876431436
1007+878091589+878343883+876970484+875799827+876204004+877469751+878265892
993+878257691+877717684+876857248+875759872+874997929+875007350+874730018
980+873264669+871228779+869321391+867579408+865759695+863727643+861596924
966+859698260+858286039+856588810+854189047+852807359+853181003+853925237
953+854231445+854222284+855070681+857428221+859693375+861474092+864396415
939+868235269+871403605+873890084+876680066+880387887+884805657+889380107
926+894108098+898486610+901780047+904174053+905965151+907636994+909368858
912+910301964+910231998+909937829+909841168+909740931+908415251+905356225
899+902613177+901316461+900162118+898466371+896954349+896341410+896204445
885+895442327+894080879+893137218+892750227+892369081+892096111+892629314
872+894082450+895165170+895556436+897030683+899790655+902226186+904608589
858+908349822+913043179+917995548+923282216+928292947+932853265+936841907
845+939472155+941540499+944834808+949854089+955720720+961197829+964698284
831+965358158+964162115+961820103+959964186+961186227+964875553+969845893
818+975890142+980340452+982443080+985637850+989985654+993474506+996931428
804+1000001882+1001590936+1002150224+1003395295+1007485396+1012134610
793+1015084152+1018365812+1021349900+1024061367+1030160577+1037788994
781+1040390802+1038152866+1038218993+1042433497+1046365696+1049726568
770+1053757260+1055806498+1055471850+1054527229+1052894207+1051543141
758+1052067271+1053614799+1055940148+1059302329+1061297479+1061492021
746+1060906736+1058004652+1053549457+1050215280+1048213238+1046610662
735+1046874036+1050535271+1052621324+1048498160+1042996536+1041810089
723+1043382305+1043457854+1042561476+1043800790+1045566763+1044779172
712+1042748341+1040208386+1036472299+1034212641+1034195281+1033782903
700+1032755667+1031818374+1030227489+1030121232+1036048057+1043486294
689+1040999118+1030915628+1026413847+1030494526+1036786969+1041643986
677+1042153024+1037951781+1035843395+1035727368+1032187918+1031478841
665+1039312356+1046993902+1048788577+1045084508+1041110696+1039061632
654+1039193363+1044197202+1049952255+1049963160+1050375101+1054230792
642+1050983591+1040655222+1037719813+1043437091+1049313493+1057512713
631+1062143694+1046518364+1022529891+1015262555+1019795131+1019392961
619+1021760794+1028566289+1027446841+1024807956+1027386646+1036552733
608+1053376288+1060379640+1052649502+1053112304+1062702546
##END=
