##TITLE=Sample description
##JCAMP-DX=4.24
##DATA TYPE=INFRARED SPECTRUM
##DATE=24/8/2023
##SAMPLING PROCEDURE=Instrument type and / or accessory
##ORIGIN=Default
##XUNITS=1/CM
##YUNITS=ABSORBANCE
##RESOLUTION=4
##FIRSTX=4397.6552
##LASTX=599.8556
##DELTAX=-1.9287962
##MAXY=1.4567119
##MINY=0.47898424
##XFACTOR=1
##YFACTOR=1.3566687e-009
##NPOINTS=1970
##FIRSTY=0.72073752
##XYDATA=(X++(Y..Y))
4398+531255371+530958330+531482952+531252560+530147605+529398697+529895641
4384+531344471+532608380+532874404+532665495+532715097+532528859+532368981
4371+532927653+532960076+532028971+531209636+530392189+529615821+529484633
4357+529520264+529149500+528608094+528315270+528348836+528480025+528872053
4344+529493683+530042953+530717085+530544203+529127577+528897052+530099936
4330+530288372+529804081+529811067+528812214+526590136+525245475+525047945
4317+525227154+526017932+527002813+527199508+526950487+527286850+527970516
4303+527984443+527413558+527105664+526969731+526620275+526649492+526914153
4290+526272182+525154267+524741809+524845846+525451704+527026274+528218043
4276+527651990+526537942+526244459+526286328+525983487+525788242+525937532
4263+525506710+524143640+522947917+522843309+523598104+524580745+525152421
4249+524908453+524392002+524260022+524374296+524316742+523840403+523372764
4236+523500174+523747833+523090528+521699384+520967962+521057456+521127708
4222+521709929+522871163+523180418+522760053+522571881+521998535+520840420
4209+520252619+520547113+520747894+520557349+520918711+521912028+522469162
4195+521773853+520151658+519224243+519287421+519309081+519690828+520393517
4182+520291062+519755544+519234655+518460792+518226489+518545805+518406181
4168+518191517+518166738+518109579+518435310+518701861+518418703+518666186
4155+519735773+520354108+520321421+519768372+518405566+517472923+517549633
4141+517323897+517015257+517640578+518012132+517185547+516422492+516437386
4128+516804151+517269638+517354256+516807271+516427061+516442438+515990044
4114+515288189+515044265+515125060+515471396+515576927+514971773+514833335
4101+515756136+516359797+515935433+515195531+514547365+513813921+513408493
4087+513938124+514448863+514193691+514162849+514357743+513427956+511718638
4074+510985326+511278106+511696451+512163739+512508010+512794683+513488015
4060+514098046+513504929+512107459+511345414+511206537+511109661+511156978
4047+511267078+511285970+511469441+511851584+511955445+511568909+511055094
4033+511014543+511429109+511576597+511429592+511347435+510821538+509579772
4020+508867856+509646113+510835070+510832258+509666147+509086430+510016613
4006+511192697+511247264+510161158+509070219+509053260+509756916+510116564
3993+509556970+508538918+508246402+508696248+508954231+508754461+508174920
3979+507726568+507845279+508337434+509028920+509231063+508893865+509000319
3966+509219288+508840968+508316170+508144561+508070092+507615545+506996595
3952+506833466+506878938+506717698+506875643+506934384+506111182+505627550
3939+506257528+506630928+505461390+503510168+502812970+503886379+505407130
3925+505723284+505070943+504896435+504499442+503501469+503712003+505525358
3912+507237093+508021544+508153831+506178314+501735695+499204800+499591293
3898+501460225+504455771+506300847+505101741+503954917+505174761+504641834
3885+501792985+500724365+500298068+500853093+502548923+502591408+501893420
3871+500625688+498224972+498002795+497911850+497217245+499427900+502977813
3858+505447594+504860277+497461433+492965258+497230908+502161552+504226125
3844+503196475+500951111+498735008+496522376+496582610+498762423+500219513
3831+500651434+500747211+500723882+501695582+501107914+496369220+495100038
3817+496911109+497527774+499878493+503328586+504547463+502106766+500104360
3804+500342046+499115218+498682682+500116970+501433249+503789240+506133896
3790+506578250+505723415+504702332+504292247+504493994+503731949+502814156
3777+504280121+506442492+506502551+503844334+501542295+501798170+503062650
3763+504659935+504511524+501300259+499637556+501092537+501254919+496374887
3750+492498058+495518383+498134379+496417152+496713930+499344908+499665278
3736+495557221+491184150+492214548+496984040+501101675+501855724+500319947
3723+499804859+500753669+502029793+503147839+503373619+500521431+495471197
3709+495154912+498597888+501531004+502372658+501460708+501089901+501770930
3696+502454069+502356622+500303648+496065149+494725144+497742482+500730252
3682+501765834+501239542+499518976+495099511+491833240+492556886+490868173
3669+489111318+491915222+494515664+494613595+494120956+493838545+491902525
3655+489794193+489515164+486763191+479215365+476385935+479739197+482719542
3642+483074841+481640860+479600671+476938676+473888958+470668028+463748378
3628+455303891+455370979+458276021+457939526+453178074+447172307+444992977
3615+444149697+442311782+440702986+438436534+436017365+435384488+434461686
3601+431693985+429273102+428214235+426290077+423330601+421701288+420129705
3588+416102487+413210099+413426125+413707218+412944910+411775679+410321270
3574+408765371+407913919+407255604+403947024+398327837+396950181+398984483
3561+399780445+399085357+398468296+397526734+395766364+394229138+393166141
3547+391558751+389838449+389155926+388988711+388327627+387091001+386146057
3534+385785969+385445696+384982098+384303529+383160923+381588461+380196965
3520+379633505+379226627+378597044+378372758+378113017+376969972+375599126
3507+375100205+374947752+374244667+373502612+373124292+372806557+372377053
3493+371414666+369700471+367895595+366751276+366494962+366541664+366144583
3480+365660886+365504083+365377003+364919029+364317411+364334084+364791421
3466+364658189+363633394+362164925+360743005+359785077+359567953+359494868
3453+358919083+358441471+358253650+357841588+357637600+357552916+356942907
3439+356407959+356392604+356526890+356456375+356138750+355688575+354951045
3426+354488722+354936767+355173288+354252376+353483785+354064556+355054665
3412+355196266+354719093+354476266+354819022+355445309+355692134+355393159
3399+355155868+355286991+355353618+355063562+355049678+355956356+357129167
3385+357755982+357981761+358177490+358666921+359706720+361070207+362223182
3372+363118986+364173635+365124643+365380627+365569304+366679992+368588224
3358+370663736+372446337+373924779+375426507+376989479+378395033+379412426
3345+379986563+380299025+380756736+381638019+382631775+383436876+383912292
3331+384038691+384275191+384869055+385344910+385243465+385038862+385328654
3318+385680878+385604124+385354663+385087410+384664144+384575923+385088815
3304+385419818+385522581+386126242+387040608+387638250+387893466+388250303
3291+389110102+390240494+391050911+391543462+392054333+392473908+392676666
3277+393244476+394673096+396376791+397452485+397761960+397979831+398558845
3264+398944502+398745040+398685025+399335344+400199976+400623989+400627196
3250+400848011+401407825+401740586+402165082+403000453+403544847+403914424
3237+404663025+405178729+405140462+405299988+405758577+406040374+406280652
3223+406698074+407202399+407739499+407872181+407244181+406810415+407162462
3210+407383805+407280690+407521320+408030785+408463277+408883072+409226508
3196+409557599+410368236+411263666+411197237+410397628+410001514+410337130
3183+411134015+412231500+413165549+413647687+414062913+414702556+415381477
3169+415676497+415702199+415968179+416203844+416138206+416391488+417147910
3156+417858332+418187006+418162403+418384404+419146098+419558292+419301802
3142+419060689+418962715+418976027+419264326+419533161+419672961+419887669
3129+420104970+420238750+420132253+419930725+420137701+420432150+420168719
3115+419853620+420461059+421471686+421789245+421770046+421717763+421301483
3102+420958706+420957080+421006463+421172272+421197446+420581879+420001284
3088+420341074+421213702+421875796+422044549+422062738+422346599+422419442
3075+422084837+422105925+422698954+423228937+423213472+422760638+422439301
3061+422649044+423186013+423674872+424035487+424304674+424367852+424370928
3047+424514945+424443815+424122697+423923542+423855004+424010049+424371499
3034+424483356+424290615+424101785+424031665+424226427+424646397+425024235
3020+425276243+425184200+424728160+424552597+425104591+425883024+426007446
3007+425514061+425199797+425429311+426053094+426944043+428014070+428973117
2993+429619307+430134264+430694825+431131666+431402127+432083728+433386124
2980+434410766+434564537+434504039+434766724+434925635+434795018+434744537
2966+434712113+434565460+434508037+434399343+434124752+434213720+435072552
2953+436044693+436079313+435430268+435040876+434922999+434834383+435013724
2939+435549286+435844087+435409838+435024708+435465459+435949179+435710394
2926+435282604+434877439+434100105+433322683+433002488+432879295+432728731
2912+432835976+433360115+433820242+434046988+434498679+435185376+435715754
2899+436107387+436505874+436718693+436676515+436602134+436552225+436411502
2885+436330531+436713464+437393220+437631126+437323628+437144155+437550638
2872+438270769+438731291+438729534+438335660+437834279+437839859+438529807
2858+439251125+439218086+438466146+437754230+437160894+436396696+435943160
2845+436145303+436899923+438104521+439291149+439901005+439937119+440027492
2831+440685984+441614497+442299437+442624904+442697791+442848223+443308086
2818+443780383+444180934+444789428+445309306+445451522+445611356+445887353
2804+445875798+445717985+445985854+446565878+447034879+447423349+447845428
2791+448400805+449010924+449354844+449481815+449694766+450049493+450454965
2777+450829639+451137665+451514843+451972246+452229834+452175267+452014247
2764+452204616+452814603+453288964+453768510+454692981+455430247+455467943
2750+455312371+455442066+455870472+456396061+456820644+457109294+457206302
2737+457257266+457610588+458135562+458592613+458927526+458890050+458735225
2723+459179052+460162044+461062746+461695711+462292870+462881944+463241461
2710+463369398+463445713+463619210+464137375+465051653+465824506+466042245
2696+466032272+466192282+466584266+467189333+467799760+468107873+468137836
2683+468136826+468225749+468313882+468364714+468640316+469158832+469574321
2669+469928829+470368789+470617635+470659680+470797063+470935413+470998196
2656+471197044+471578967+472090629+472551371+472880528+473284375+473660806
2642+473763525+473663969+473595124+473786459+474246234+474777667+475229885
2629+475594674+476037930+476570373+476875147+477019779+477468483+478219588
2615+478960237+479555726+480050825+480546363+480965718+481289340+481689013
2602+482100767+482438888+482893127+483501885+484095704+484614791+485110549
2588+485580868+485844739+485916616+486221083+486795659+487246779+487564074
2575+487891255+488234779+488704747+489264649+489689672+490021027+490453211
2561+490940709+491406459+491884204+492323989+492656178+492893820+493102070
2548+493343051+493618345+493808010+493905853+494218447+494811959+495371685
2534+495768239+496082151+496293520+496475673+496981668+497763351+498273388
2521+498456770+498773011+499243726+499465113+499589096+500017722+500547001
2507+500921280+501155890+501341997+501648001+502017886+502359653+502747244
2494+503057730+503164095+503183031+503338559+503735640+504103592+504255781
2480+504349494+504397514+504374317+504353843+504274014+504143748+504105130
2467+504036943+503786121+503617017+503666004+503701854+503790426+504105745
2453+504245193+503842709+503233424+502812882+502710119+502794518+502635211
2440+502222270+501988626+501945966+501696681+501104970+500450872+500011527
2426+499856965+499835657+499658908+499212489+498657815+498215789+497876219
2413+497422814+496882200+496551504+496388507+496089269+495686125+495368654
2399+495108869+494723431+494197183+493649495+493005985+492281812+491615851
2386+490885835+489833646+488203410+485878788+483043427+479859665+476195830
2372+471934881+467382953+463083033+459416562+456829431+455534372+455023193
2359+454835022+455288910+457149670+460573183+464502866+466921771+466243641
2345+462972581+459787501+458255459+457939482+458299526+458873619+459420911
2332+460071450+460858802+461588775+462236809+462966035+463931761+465095763
2318+466352336+467637026+468811836+469797245+470673300+471601374+472568769
2305+473326113+473808997+474241797+474774723+475345960+475864652+476387956
2291+476892325+477260453+477623396+478003430+478237118+478345461+478405519
2278+478448619+478424807+478404860+478562893+478880408+479356044+479997268
2264+480623644+481046821+481331429+481679786+482117199+482506591+482839351
2251+483298028+483912453+484647566+485436367+486040819+486485085+486962171
2237+487489078+488008165+488520178+489079992+489736682+490459582+490993958
2224+491419288+492194250+493176100+493959321+494579194+495150255+495793369
2210+496768453+498007979+499070536+499810965+500461241+501061255+501416642
2197+501761177+502603490+503880448+505155649+506207047+507046329+507859953
2183+508797209+509754324+510726068+511838404+512896216+513708434+514476147
2170+515519856+516881476+518215417+519336715+520261011+520929783+521698154
2156+522749508+523572798+524199525+525066266+525964068+526530912+526746060
2143+526865078+527100304+527275076+527243838+527068847+526705640+526154744
2129+525486719+524638079+523617963+522503475+521165448+519623564+518204170
2116+516939690+515525963+513906052+512276519+510597472+508733943+506771518
2102+504768761+502855938+501189676+499587514+497909214+496289171+494805896
2089+493292131+491537428+489661510+487907774+486299945+484749143+483203833
2075+481676491+480180651+478726593+477253291+475580878+473822925+472402169
2062+471310000+470092265+468563606+466971637+465527420+464146425+462778127
2048+461535746+460389581+459050895+457310954+455569300+454336980+453383731
2035+452359836+451291260+450135913+448808650+447413332+446108256+444933358
2021+443768301+442391479+440834482+439584720+438836339+438150915+437241602
2008+436236599+435229091+434170005+433035307+431928771+431012735+430151091
1994+428958794+427552361+426588525+426020055+425263370+424353749+423573428
1981+422902722+422219145+421480033+420742504+420067933+419356017+418320435
1967+417054593+416208106+415867613+415503922+414921306+414152583+413360004
1954+412839994+412388347+411640097+410770544+409933459+408819323+407677112
1940+407339167+407447598+407273705+406735682+405968365+405272661+404675327
1927+403872818+402737241+401698189+401190921+400585634+399929427+400042998
1913+400198658+399527163+398548125+398148935+398215496+398197747+398015462
1900+397725143+397206890+396482366+395921629+395452979+394702137+394311207
1886+394587380+394777221+394736494+394642210+394485188+394322455+394064339
1873+393368899+391690555+389519704+389229253+390715910+391769505+391916730
1859+391749427+391577247+391501109+391552688+391562705+391123052+390024732
1846+388232509+386753145+387391953+388755506+389192040+389093187+388838762
1832+387685480+385525613+384409016+384752936+385091935+385616382+386283528
1819+386400745+386065085+385557949+384570212+383219444+382687264+383043134
1805+383159956+382481651+381132332+380062262+379836175+379438611+377854682
1792+376326506+377201990+378859026+379213534+378471611+377518363+376755000
1778+376617177+376427731+374540786+371113539+370243766+372334436+374274103
1765+375029382+374386532+373427133+373454636+373630945+373883657+373740430
1751+371614480+368879642+368756317+369996810+370507154+370013856+369435019
1738+369552719+368619022+365528972+365212731+368031551+370517610+371706260
1724+371686050+371179528+369931216+366127119+362148537+363819039+367502381
1711+369543713+369401189+367338154+365306576+364774330+362968993+359511365
1697+359105739+361744801+365058323+366810522+366550956+365303368+362276541
1684+358326538+359937399+363662698+365557047+364819473+362967390+361764769
1670+360417274+360746058+363082081+363857240+362660660+362518620+363370467
1657+362959965+359303664+353059113+353261520+354860233+354289589+356166912
1643+360270906+362731263+362761183+360449456+358909374+363336682+368904201
1630+372345420+374574132+376926564+379665269+383728382+388008926+390548212
1616+393700253+399919718+405862966+409901563+413015249+416572587+420430920
1603+424226207+428176056+432124631+435639352+438909885+442448770+446211326
1589+450078490+454002022+457795289+461440583+464925824+467663123+469219154
1576+472092123+477611095+481731673+484233747+488652905+494701244+499809032
1562+502831247+502597120+503164227+511817403+521035138+528657477+535052240
1549+541022684+545760236+547996109+547722792+548162709+557789870+569657387
1535+577363860+584028777+591864551+598654549+603710803+607818025+611162148
1522+615935507+623833975+631907873+639990646+648210100+654792508+658424754
1508+659067649+663445069+674465571+683130828+688747291+692871121+698665563
1495+707035009+713856509+717297024+720082300+726990043+735921852+743455136
1481+749451764+754756599+759010695+761173769+762471772+768033712+777470680
1468+785394718+790448247+796101835+803431614+807885963+807954325+813406780
1454+827209263+839736764+848671999+854734705+861358983+870317768+879677411
1441+887602328+893449754+899218538+907752476+916784631+924145340+931007479
1427+937748535+942728605+947543306+953173169+956498224+960054200+968336480
1414+976718580+981305875+983476946+985556017+987291169+988841971+991333324
1400+993231297+993047299+992557165+993911492+997033307+998060760+994338360
1387+990020911+991356873+996614083+1001220622+1003319464+1003131512+1001521046
1373+1001490732+1005099780+1009072431+1010528423+1010338186+1009346407
1362+1008761111+1009777932+1010117107+1008446188+1006426780+1005399150
1350+1005272355+1005936734+1006293043+1005063051+1002728720+1000675482
1339+1000812821+1003600118+1006156670+1006160360+1005489128+1006635645
1327+1008790371+1010632987+1012033357+1013017316+1013572385+1014862567
1315+1017864177+1021023247+1023163212+1025689449+1030193621+1035330010
1304+1038614910+1041134118+1044829630+1048908426+1052303426+1054688809
1292+1055615565+1055806856+1057076389+1059896461+1062856332+1064577688
1281+1065457698+1066446313+1067190037+1067171761+1066559313+1065665772
1269+1064589551+1063290581+1061762889+1060240380+1059527322+1059904808
1258+1061067580+1062502483+1062719783+1061633282+1061353682+1062878914
1246+1065026612+1065919538+1065107978+1063738626+1062177982+1060561718
1234+1060162616+1061026809+1061989591+1063040506+1064183332+1064578215
1223+1064025431+1063756639+1064910537+1066283755+1066345176+1066261173
1211+1066889437+1066803765+1066185254+1066534182+1067333528+1067777442
1200+1068639526+1070579062+1072304196+1072933163+1073714232+1073741823
1188+1071315932+1069143456+1069726907+1071023943+1071180262+1071157065
1177+1071178505+1070848293+1071339042+1072322209+1071536747+1069080190
1165+1067244165+1067547489+1068783720+1068484350+1067331155+1067134240
1153+1066868788+1064710283+1060512247+1056659714+1055485431+1055333505
1142+1053521292+1051315074+1050927220+1051033541+1049716998+1047338732
1130+1043819838+1038137781+1031260967+1025667306+1022389876+1020406670
1119+1017663747+1013422216+1009000642+1004615797+999314916+994144258+990723952
1105+987766189+983986059+980847023+978409182+975528041+972566500+969416480
1092+965898903+963032963+961354663+960154898+957906679+953683864+949018277
1078+945353520+941815557+937990878+934370143+931749446+930338443+927642179
1065+922711491+918320935+915219067+912071946+908996527+906293848+903886937
1051+901485913+898392041+895057759+892373973+890618611+889395385+887812071
1038+886492453+886257930+886179287+885250423+882849926+879600789+877422250
1024+876566756+875963535+875242656+874786879+875418570+876998809+878045418
1011+877353536+875516193+874374949+874554905+875423403+876189358+876237862
997+875916613+875778219+875500640+875042578+875374899+876353674+876396378
984+875172361+873545552+872118645+871054199+869941600+868180527+865727660
970+862792480+859261283+855800119+853516136+852054961+850642728+849189724
957+848152078+848743173+851132071+853787740+855588530+856696208+858170740
943+860474405+863155292+866269373+869548825+872511684+875659947+879261966
930+883374065+887807941+891113929+892989935+895114611+898240028+901703477
916+904199224+905176065+905969962+907084055+907367257+906788551+905998344
903+904400005+901770521+899821760+899938801+900667588+899140950+895363632
889+892422740+891983043+892775183+892688368+891002951+888979588+888418983
876+889957747+891674447+891199075+890553939+893010584+896831661+899076366
862+900755369+903434147+906656572+910115804+914001201+917982375+921867069
849+925796313+929479523+932736040+936055385+939302149+942755933+948423930
835+955955720+960615772+959167601+955413832+955145831+959070242+964425162
822+968675040+971960554+975140362+976723061+977607200+980277016+983458669
808+985975241+988943635+992263683+994729114+996355572+998488419+1002028491
795+1006115196+1010054369+1014754400+1020264585+1024641874+1026643005
783+1027743830+1029961558+1033516480+1038356223+1043834072+1046966431
772+1047610248+1049657774+1052783016+1053768995+1052646731+1051539228
760+1052073121+1051815489+1048914489+1047653567+1048305381+1046745967
748+1045462024+1046306797+1045366773+1043058891+1042021596+1042653638
737+1045530913+1048090101+1047822188+1047063526+1046275077+1043075410
725+1039450194+1037961954+1036492343+1035809249+1037562589+1037597122
714+1035025456+1033212189+1030923022+1026890620+1024518330+1025738744
702+1029361412+1032401948+1032003198+1029340851+1025782415+1022902153
691+1024223617+1029223546+1033423690+1033872350+1031975167+1030990506
679+1032054162+1033831842+1034538310+1033645559+1029540402+1021901060
667+1018829682+1024196114+1029202106+1030566889+1032954644+1039984438
656+1044888326+1044446081+1045872636+1048029384+1041920986+1029211595
644+1020057653+1021177897+1031669998+1042672442+1045743029+1044987091
633+1044477889+1037689121+1021227192+1003749407+1001952132+1013881333
621+1013146395+996612150+985296540+986405184+992085835+999739324+1015560160
608+1033566653+1040050691+1035142146+1028144337+1026485016
##END=
