##TITLE=Sample description
##JCAMP-DX=4.24
##DATA TYPE=INFRARED SPECTRUM
##DATE=24/8/2023
##SAMPLING PROCEDURE=Instrument type and / or accessory
##ORIGIN=Default
##XUNITS=1/CM
##YUNITS=ABSORBANCE
##RESOLUTION=4
##FIRSTX=4397.6552
##LASTX=599.8556
##DELTAX=-1.9287962
##MAXY=1.5716662
##MINY=0.58921885
##XFACTOR=1
##YFACTOR=1.4637283e-009
##NPOINTS=1970
##FIRSTY=0.83349913
##XYDATA=(X++(Y..Y))
4398+569435708+569028131+568227065+567899789+568194529+568674957+569150783
4384+568823222+567731367+566695503+566367413+567377093+568933536+569175215
4371+567813624+566763996+567295529+568120376+567779092+566799179+566278600
4357+565735259+564373830+563347658+563966944+564974792+564558622+564045780
4344+564628703+564716783+564432468+564914240+565129736+564729651+564711489
4330+564786538+564423754+564270764+563861517+562206733+560466883+559766317
4317+559705643+560270689+561811983+563633520+564510978+564417075+563728237
4303+562000237+559871581+558915327+559218903+560197879+561473509+561906700
4290+560984245+559918573+558965944+557829051+558329717+560849417+562312201
4276+561259438+559973832+560907852+563069369+563576592+562106763+560550443
4263+560422579+561392311+561322067+559382398+557408483+557325168+558675113
4249+559489495+559006990+558092150+558004762+558415964+558013640+557604067
4236+558389048+559526307+559482532+558308664+557571938+557300857+557109264
4222+557720244+558528680+558549407+557824042+557335918+558006595+558433434
4209+557687341+557158455+557146280+557209723+557762472+558570175+558274010
4195+556375918+554841261+555324254+556105041+555524358+555000969+555420234
4182+555903390+556514166+557085728+556639791+555886287+555853018+556101213
4168+556043959+555471054+554489431+553655218+553630826+554456080+555249938
4155+555450734+555529937+555472968+554702361+553804868+553394644+553112854
4141+553087932+553473480+553658679+553053401+551997869+551677068+552481513
4128+553529512+553832314+553337105+552578837+551780947+551667091+552761105
4114+553708685+553173487+551620303+550077217+549536725+550696585+552189502
4101+552138642+551615823+552130049+552523456+551903070+551945909+553422782
4087+554167001+553461874+552882779+552066280+550305092+548999410+548969602
4074+549814403+550994541+551623275+551317623+550316087+548978846+548137059
4060+548416365+549398884+549534323+548393643+548129648+549401938+549971627
4047+548994768+548367337+548981534+548950708+547592414+546906019+547529704
4033+547826398+547737911+548255476+548457901+548314563+548651856+548700639
4020+548662972+548992203+548863850+548452933+547982808+546729452+545421042
4006+545560146+546654159+547484666+548082982+548648801+548814536+548735619
3993+548739813+548597371+548613089+549068310+549051045+547931540+546625206
3979+546275493+546848154+547481042+547455510+547154866+546945600+546544945
3966+546511309+546635794+546002662+545432444+545600093+546308763+547196116
3952+547397442+546794362+546480117+546883948+546421397+544705532+544034529
3939+544743158+545399745+545058339+543613147+542737602+543307372+543549093
3925+542297896+541455294+542493357+543593764+543391706+542984209+543250118
3912+543648615+544086204+544432171+542850441+539085041+536895385+537497365
3898+539718743+542616457+543940300+541997415+540309606+541364324+541265086
3885+539858742+540009043+539700133+540173435+542550122+543236151+541635037
3871+538995006+536972511+537809045+538374416+537979340+539397168+541113074
3858+541501839+539228623+531714112+528928218+534644933+540424154+542930743
3844+541972738+539569052+537298728+535094575+535026367+536892616+538201840
3831+539084674+539995524+540509872+541100206+539759830+535236814+534405859
3817+535761302+536099124+539073557+543329117+545003732+542446284+539914123
3804+538877322+534737003+532241084+534319367+536899661+539514241+541700517
3790+542438261+542172801+541489622+541124435+541456231+540898189+540134302
3777+541642489+543463008+543249711+540986757+539103365+539277937+540101969
3763+541094628+540655532+537689976+536578330+538444457+538478703+533232643
3750+529753594+532834594+534410583+532662099+534475044+537878841+537824437
3736+533582519+530312573+531973668+536648778+540439303+540311927+537686433
3723+536886752+538329949+539713327+540346214+540539517+538500204+534233161
3709+533637533+536587778+539465498+539867538+538321642+538781872+540791052
3696+541582344+540931540+539043668+535812855+535333649+538663251+541443689
3682+541962272+541207221+539234569+532920638+527098496+527042545+525791470
3669+525855687+530670470+533990870+533956542+533484340+533325731+530782087
3655+527706584+527601198+525645363+518095098+515164155+518356243+520656660
3642+520388104+518874419+517122678+514688451+511953295+509434817+503610272
3628+496003975+496050194+499089373+499395963+495013475+488769218+486651679
3615+486314264+484506002+482337277+480104783+478329057+477816338+476591487
3601+473909188+472106993+471638334+470696780+469580655+469286323+467720474
3588+462766221+458821852+458611039+458983515+458023270+456175020+454652743
3574+454022299+453678775+452076237+447552447+442463163+441967872+443801340
3561+444395461+444004620+443722015+442949495+441329080+440252617+440101257
3547+439155509+436973834+435517892+435585814+435880472+435248725+434160127
3534+433403977+432627425+431542819+430421644+429180505+427591934+426434233
3520+426642277+427310429+427015730+426040256+425296770+424605285+423927319
3507+423856057+423568566+422280720+421005090+420314623+419725918+418863200
3493+418160476+417945021+417547012+416895312+416666296+416364675+415391237
3480+414620997+414312616+413653993+412717285+412404017+412860745+412940192
3466+411929413+410281592+408608280+407460067+406906830+406861548+407354599
3453+407595342+406982856+406334087+406224955+405997324+405543324+405400189
3439+405306205+405165758+405212383+404588862+403233419+402949348+404000808
3426+404462178+403761368+403136014+403025578+402947394+402869331+403103437
3412+403389503+403185124+402788418+402567669+402546616+402955294+403411248
3399+403445046+403501242+403737994+403729646+403578734+403770815+404222657
3385+404466250+404713346+405408781+406243768+406879384+407437752+407961547
3372+408219149+408451748+409389107+410907883+412432318+413813416+414771706
3358+415432039+416409183+417658263+418764492+419651317+420407019+421082664
3345+421804364+422879035+424149778+424855027+424822654+424456082+423933631
3331+423662428+424132187+425179493+426287718+427123641+427862811+428624296
3318+428943061+428746581+428384204+427863992+427287707+427159191+427522382
3304+427772817+428002566+428746744+429521056+429544389+429331499+429911653
3291+430903049+431643359+432378049+432928232+433504518+434671055+435572539
3277+435964032+436767337+437728844+438392517+438963794+439406921+439629747
3264+439648397+439556245+439608775+440090384+440634947+440640486+440677012
3250+441348951+442046830+442120332+441965225+442277963+442847896+443549724
3237+444563110+445036859+444458538+443779269+443823736+444745052+446154124
3223+447008250+446794220+446210808+446110471+446673156+447509404+447825726
3210+447496740+447631731+448191402+447805284+446974329+447266992+448178127
3196+448561353+449135724+450304054+451028605+451206352+451140588+450764528
3183+451036586+452419312+453729147+454361791+454837495+455545146+456370115
3169+456871799+456928239+456674831+456317951+456444391+457166905+457661870
3156+457533965+457786884+458946296+459584151+459174334+459198726+460012619
3142+460739206+461423483+462369475+462896977+462460202+461706780+461299325
3129+461258400+461558229+461863964+461956645+462328225+462960420+463111699
3115+462928576+463382617+464319447+464640451+464162223+463350406+462562005
3102+462495792+463323205+463765477+463370930+463628206+464722871+465052182
3088+464616019+464581650+464987314+465569422+466035190+465850968+465529597
3075+465681120+465889734+465867256+465670695+465431052+465201751+464799019
3061+464442343+464543902+465100478+465898978+466538544+466762917+466824487
3047+466837192+466786780+466862195+466948198+466857920+466819112+467173793
3034+467541220+467182222+466738892+467148872+467839828+468083747+468120478
3020+468352832+468641464+468587101+468126179+467942852+468550778+469146405
3007+469030432+468822428+469309005+470315061+471158639+471700841+472159890
2993+472715896+473621859+474738595+475481023+475846128+476574385+477787507
2980+478810299+479511232+480170059+480418498+479819979+478834366+478301489
2966+478475816+478839089+478746286+478262682+477911992+477699346+477587037
2953+477858728+478292001+478750969+479389639+479923248+480189401+480268400
2939+479935587+479117866+478587229+478966506+479575327+479511395+478925052
2926+478762737+479291460+479448318+478583605+477437754+476725419+476379493
2912+476472215+477223113+478068646+478393967+478554123+478846989+479090461
2899+479473361+479833336+479624762+479313409+479705797+480536264+481043486
2885+481161537+481215736+481337330+481382897+481092474+480790689+480822330
2872+480877303+480873760+480973486+481092881+481225265+481528882+481939880
2858+481997989+481568585+481146185+480717269+480062962+479742813+479943446
2845+480224707+480407015+480498597+480785640+481553437+482484932+483160332
2831+483849497+484748822+485288011+485389406+485645583+486086837+486338860
2818+486409796+486614786+487027372+487385148+487565665+487816344+488273438
2804+488731673+489024336+489187302+489437085+489947280+490546572+490821969
2791+490722936+490798066+491224783+491585164+491813854+492119507+492522687
2777+492988903+493348470+493341059+493136924+493222112+493732633+494342920
2764+494704198+494902347+495173061+495475822+495760992+495960730+495953929
2750+496009432+496571668+497378313+497687223+497566648+497733279+498272223
2737+498663186+498826722+499181932+499761435+500236854+500402507+500445224
2723+500847915+501404939+501552064+501534839+501868956+502542117+503094417
2710+503368144+503685891+504103853+504535578+504968118+505261432+505353421
2696+505402246+505670068+506009397+506112422+506413106+507125441+507415253
2683+507081014+506981329+507411873+508040607+508517981+508622756+508716252
2669+509125662+509406801+509352682+509467556+509880102+510232299+510491285
2656+510897763+511496445+512003057+512146110+511987053+511919090+512225883
2642+512678376+513164382+513705810+514109193+514418226+514750144+515149374
2629+515517615+515557928+515467283+515772895+516357325+516753093+517043923
2615+517408052+517747218+518014593+518249268+518675537+519226860+519706962
2602+520316028+520985727+521467376+521689999+521877682+522511751+523386155
2588+523849521+523870167+523806479+523923918+524413549+525128856+525569011
2575+525680668+525813826+526067722+526436818+526780301+526849242+526848672
2561+527153469+527678894+528164208+528534404+528837654+529110037+529259728
2548+529378634+529777619+530395399+530940940+531273754+531355644+531421856
2534+531607341+531651686+531842383+532729533+533687823+533806240+533476440
2521+533637207+534345184+534881929+534929370+534792262+534755450+535005355
2507+535588278+536193964+536478116+536481088+536432671+536594171+537139223
2494+537634880+537696491+537875501+538397628+538567353+538209048+537871307
2480+537965617+538401822+538616748+538502973+538546748+538742780+538781383
2467+538663903+538453782+538199356+538078537+538113109+538038304+537781558
2453+537496143+537262811+537101393+537057333+537253894+537445771+537281055
2440+537106157+536936676+536186593+535275458+535005355+535037851+534861447
2426+534740627+534901801+535056582+534710005+533814181+533119357+533003383
2413+532864768+532315685+531692611+531348681+531171096+530962278+530824274
2399+530728417+530484619+530194726+529888055+529305173+528552769+527980719
2386+527358907+526226249+524496702+522188792+519422729+516291601+512678376
2372+508727613+504748549+501009618+497612704+494887647+493443554+492597858
2359+491727892+491766618+493468882+497055150+501863499+505395323+505172008
2345+501457998+497662668+495952097+495725524+496118361+496688334+497270158
2332+497845099+498707857+499894878+501120990+502217732+503233113+504406777
2318+505657689+506734111+507843721+509130386+510159938+510854355+511758078
2305+512936100+513887996+514430076+514848241+515310833+515573443+515481169
2291+515433607+515748422+516223189+516739614+517252782+517591989+517711139
2278+517619353+517512746+517566620+517618865+517721034+518026117+518341909
2264+518554677+518857357+519342834+519745729+519969084+520221595+520400931
2251+520450000+520740545+521359343+521882202+522081451+522258303+522688684
2237+523293841+523890446+524356702+524706212+525001358+525379698+526076355
2224+526883407+527337651+527566422+527884658+528257500+528669883+529043784
2210+529308593+529830231+530613787+531122882+531546829+532393421+533367023
2197+534084976+534626527+535034063+535414399+536006443+536752535+537445161
2183+538063959+538742210+539468878+540100055+540743164+541431636+542017002
2170+542611937+543198117+543608993+544134255+544980603+545734839+546216774
2156+546794973+547400577+547650035+547845537+548301654+548704915+548995134
2143+549239746+549093761+548555143+548247902+548448006+548636585+548457209
2129+548084122+547586143+546992348+546337675+545444172+544315301+543177513
2116+542068962+540959311+539843308+538594758+537307198+536349885+535617108
2102+534598225+533199333+531626684+530108315+528782151+527470768+526162562
2089+525030311+523986588+523043650+522293323+521466929+520195738+518541931
2075+517042091+516062870+515324474+514436143+513292898+511890300+510504397
2062+509444590+508539522+507509075+506366725+505335626+504576869+504016140
2048+503365172+502330774+500989624+499721609+498843621+498284969+497558219
2035+496520441+495574856+494819154+493959042+492989351+492103829+491266522
2021+490429662+489533105+488521593+487684692+487056366+486310070+485544920
2008+485032241+484613343+483937617+483049082+482231769+481544559+480947669
1994+480193718+479090013+478162630+477753912+477502052+477176039+476717031
1981+476040001+475232909+474599858+474232473+473823388+473138174+472158546
1967+471157988+470628817+470416538+470029524+469506828+468953469+468298470
1954+467718967+467395357+467148587+466662703+465829304+464639433+463542447
1940+463354682+463602185+463434536+462993527+462567706+462128651+461695541
1927+461236736+460373856+459172216+458304897+457573831+457066813+457414286
1913+457766239+457317288+456634558+456436654+456557392+456548270+456369545
1900+456055667+455406206+454533349+454039931+453765715+453024387+452511260
1886+452821555+453115480+453032491+452837925+452755791+452700573+452400662
1873+451793632+450340336+448175317+447851747+449535809+450757728+450894836
1859+450646803+450476141+450512464+450499434+450172280+449549044+448599712
1846+447015539+445593191+446190773+447476909+447763545+447638531+447645779
1832+446708542+444460492+443245252+443709758+444297282+445112356+446046621
1819+446317864+445875958+445133775+444123566+443009396+442726180+443222367
1805+443458590+442812102+441294507+440066969+439832049+439426508+437777384
1792+436228149+437285839+439221233+439764737+439121710+438241320+437447828
1778+437064479+436517351+434398550+431011856+430420423+432913410+435243268
1765+436137178+435315711+434199464+434432104+435002118+435521556+435438485
1751+433205787+430218568+429874434+431015765+431629066+431482266+431194572
1738+431326264+430245810+427042443+426833870+429785458+432409038+433780077
1724+433893730+433445065+432053176+427855685+423700339+425469346+429257265
1711+431529869+431636925+429572365+427315397+426741229+424991565+421277759
1697+420736901+423688856+427404983+429353529+429014485+427538915+424255327
1684+420249754+422296805+426343099+428177748+427342436+425681259+424590258
1670+423065986+423348509+425864178+426760897+425686308+425796255+426833422
1657+426363541+422325350+415720019+416144537+417726878+416968365+419428409
1643+424342715+427147911+427181872+424685220+423024450+427843550+433931845
1630+437637263+439842922+442024800+444446199+448121769+452166230+454389114
1616+456927872+462729613+468541534+472571662+475748927+479174631+482692773
1603+486090217+489558393+492950706+495915122+498699550+501832511+505267459
1589+508803395+512392147+516020724+519611756+522723745+524415463+524372909
1576+525966204+531339640+535687149+538108589+541903756+547191637+551802855
1562+554582804+553881790+553419687+561721053+571205082+579063116+585170673
1549+590454196+594655353+596358066+595097910+594604574+605110580+618381388
1535+626466809+632856196+640742940+647801415+652823550+657054922+660845202
1522+665291337+671912550+679166365+687374764+695908280+702059938+704351070
1508+703223910+708058158+721704373+731923174+738134121+742004174+746872790
1495+754436900+760462078+762980923+766033296+774566161+784399089+791693462
1481+797169637+802258148+806349154+808164745+809178294+814363476+823216979
1468+830718134+834921042+838056160+842868907+846914387+847180133+849613790
1454+859413326+869472011+877303088+883114480+888890363+895548428+901844971
1441+907367731+911876373+915442484+920206528+926307691+931444985+935799050
1427+940346132+943896932+946955006+950037106+951535561+953801610+959143731
1414+964278582+967701111+970117339+971428314+971302567+971049934+971319507
1400+970316791+968520257+967345208+966492589+968286680+971137810+970346598
1387+966001493+963965356+966509937+970214662+972646934+973694200+973076542
1373+972866665+974693089+975699959+974986036+974110044+972634392+972136780
1360+974734706+976898870+976526435+975687743+975974664+976919231+977445022
1346+976917113+975489919+972997054+969645544+967121975+966468320+967353189
1333+968230974+968319664+969668918+972844187+975609395+976395231+975987613
1319+976603479+978919044+982037630+985786660+989878481+993520659+996891227
1306+1000303493+1003668930+1006900395+1009410037+1011434935+1014077410
1294+1017172215+1019290364+1020126368+1021564557+1024588018+1028114466
1283+1031025130+1032584260+1033441440+1035031273+1036435663+1035790315
1271+1033444697+1031085072+1030058004+1029457042+1027157032+1024391172
1260+1024255245+1027013775+1029785661+1030108172+1028496919+1026546704
1248+1026070348+1027866964+1029880215+1030530206+1030185787+1028898918
1236+1027298823+1026666179+1026946911+1026799745+1025664847+1025500415
1225+1027339707+1029169795+1030547553+1032156933+1032825899+1032205798
1213+1031848511+1032935928+1034989168+1036533801+1036411638+1035162151
1202+1034966445+1036478746+1037652573+1037342441+1037097951+1038021995
1190+1038923397+1038399398+1037259859+1037583591+1039325641+1040191942
1178+1039245257+1038281226+1038232360+1037171657+1034634405+1033038301
1167+1033035369+1033431504+1034034665+1034228090+1033680554+1033651561
1155+1033400881+1031486908+1029683695+1029254006+1027901006+1024415849
1144+1021523103+1021045851+1020950971+1018900826+1015790954+1014215047
1132+1013589734+1011089783+1007449804+1004873135+1002923082+1000616801
1121+997688139+994448856+991726731+989712909+987368431+983533398+978974832
1107+975269292+972207798+969010783+966253882+964400257+962853506+961282241
1094+960745781+962399873+963878945+962374789+958807212+954558290+951808148
1080+951939026+952051742+950353835+948744129+947981178+946713530+944973517
1067+943651709+941808835+938417743+933971731+929657084+926249704+923992940
1053+922882883+922222956+921546008+920398976+917854477+915125510+913828950
1040+912737054+911197307+910043271+909062381+908053149+906659184+905022683
1026+904659451+904509923+902305526+899640818+899135469+900391471+900979240
1013+899415793+897588148+897888181+898787141+898565944+898386038+898571237
999+898772400+899293060+899643587+899392338+899041648+898655041+897573733
986+896303723+895852289+895855221+895568055+894360756+892352309+890612947
972+889201961+887293932+884524652+881610242+879561155+877615175+874962113
959+873143182+873004893+873060274+872668863+872761300+873633627+874947535
945+876687548+878591993+879692115+879703761+880494158+883643773+887572872
932+890107272+891689695+893906227+896559614+898764337+901560737+905171641
918+907365939+908049810+909459737+911334863+912157837+912016372+910872923
905+909318028+909555351+911899584+912856367+910268296+907685111+907365939
891+906843813+905472245+904750259+904760847+904780393+904569702+904817775
878+905814872+906026215+904479708+903135830+904308598+907910706+912034615
864+914971340+917194550+920110100+923130548+925436422+928185016+931794617
851+935761831+940178117+942996670+942516649+942578138+946062481+949933104
837+952673228+956317849+960362270+963124139+964904140+965560239+965493293
824+966897357+970393265+974840092+978500350+980532171+982083401+983575667
810+985306151+987288455+987433015+986327762+987172970+990328205+994430857
797+998758045+1001737284+1002335477+1002512206+1004204657+1007867114+1012757394
783+1015478053+1015298880+1015931116+1018015142+1020357909+1022327100
772+1022004915+1021272505+1024002123+1027365198+1026701118+1024641037
760+1024770611+1025909174+1027572224+1029175903+1028085554+1024294663
748+1020558745+1019302010+1019940436+1020291208+1020211720+1018983653
737+1016121040+1014717546+1014655731+1013021837+1011829034+1012442050
725+1012500200+1010664573+1007573759+1005972849+1007335948+1010072081
714+1011750117+1010835358+1009270282+1010231219+1012503539+1011839052
702+1009565755+1010275117+1011152249+1007269003+1001898132+1000640990
691+1002308356+1002545109+1002400142+1004611298+1006424284+1005582660
679+1006615184+1011517355+1014055339+1011999411+1008267321+1003808115
667+1006820663+1017399031+1022200539+1021447036+1019216577+1013373993
656+1004293674+998614137+1001037613+1008382155+1012630019+1009051447+995696713
642+975064221+966148415+981949510+1005614667+1024374232+1039119918+1038820699
629+1028725446+1026304983+1033911931+1035862961+1021971686+1005969592+985363405
615+965964518+968064913+978507761+995448885+1041018987+1073741823+1046401749
602+1011857050+1011630397
##END=
