##TITLE=Sample description
##JCAMP-DX=4.24
##DATA TYPE=INFRARED SPECTRUM
##DATE=24/8/2023
##SAMPLING PROCEDURE=Instrument type and / or accessory
##ORIGIN=Default
##XUNITS=1/CM
##YUNITS=ABSORBANCE
##RESOLUTION=4
##FIRSTX=4397.6552
##LASTX=599.8556
##DELTAX=-1.9287962
##MAXY=1.5021732
##MINY=0.51174307
##XFACTOR=1
##YFACTOR=1.3990078e-009
##NPOINTS=1970
##FIRSTY=0.76187742
##XYDATA=(X++(Y..Y))
4398+544584110+545601346+545724431+545264213+544608991+544215236+544189972
4384+543580338+542195379+541599293+542006298+541414217+539420562+537973485
4371+537978299+538351731+537860667+536996468+537267990+538445590+539500488
4357+540561692+541410511+541250572+540239642+539569679+540015540+540628412
4344+540042253+538793886+537753004+536363316+535381400+536077778+537072262
4330+536989481+536568033+536547583+536177047+534518693+532510807+532169541
4317+533630380+534738449+535007627+536011186+537175537+537040437+536263876
4303+535591187+534711054+534330634+535249751+535924187+535252392+534590397
4290+534577786+534387555+533991542+533772851+533330356+533099735+533850349
4276+534616471+534977548+535180987+534303538+532757362+532227825+532955858
4263+533663697+533069102+532048501+532389298+533741962+534747694+534924760
4249+534686897+534581365+534056046+532828001+532085823+531912889+531343261
4236+530866299+531144381+531317613+530707936+530157949+530183214+530236513
4222+530374297+530932081+531579846+531683547+531117966+530676110+530790121
4209+531058319+530853219+529965971+529476781+530039039+530870048+531533492
4195+531665568+530985763+530714838+531351399+531195593+529648011+527978408
4182+526682195+525733810+525807942+526749426+527334903+527854215+528869917
4168+528910945+527474477+526022415+525368728+525792477+527274106+528598140
4155+528721566+528186661+527851062+527700028+527516997+527405457+527005780
4141+526167485+525917778+526418812+526650881+526340845+525873298+525777650
4128+526266158+526637631+526276383+525904272+525795970+524913409+523930854
4114+524293933+525229111+525618308+525301838+524280214+523153015+522745329
4101+523045012+523721536+524270841+524208936+524248985+524661188+524424432
4087+523810324+523796435+524179666+524308248+523790257+523099802+523103466
4074+523268730+522623095+521880832+522092706+522765395+522958055+522512450
4060+521713266+521138824+521157315+521476979+521799115+521681100+521040066
4047+520920388+521633212+522184477+522055768+521401952+520745666+520661010
4033+520842592+520998952+521354022+521525293+521445367+521256073+520205776
4020+518656745+518136752+518875138+519912526+520302787+519792124+519172989
4006+518952381+518692107+518793294+519830895+520886305+521107722+520659987
3993+519915594+519015607+518343343+518521730+519012326+518931334+518788139
3979+519040872+518971809+518339211+517949248+518134579+518622832+519110062
3966+519146915+518503836+517324446+516285354+516228008+517116108+518210757
3952+518776252+518075699+516647241+516610813+517509224+517202426+516711617
3939+517221470+517420606+516624745+514887188+513214049+513528261+514361486
3925+513312382+512305584+513240677+514367195+514317560+513905868+514267116
3912+515115934+515931350+516229116+514660274+511620752+509968575+509703573
3898+510565897+512597471+513441176+511853461+511466096+513632941+514009995
3885+512327100+512110581+511534989+511114819+512482395+512852674+512223399
3871+511504910+510636749+511885627+512412736+509962909+509033184+510644716
3858+512153612+510684850+504187596+502723477+507944755+512176193+513588462
3844+513061651+512495347+511472317+508240476+506231781+507122352+508090848
3831+509356598+511637581+513051171+513644956+512618347+507947312+506599249
3817+508370464+508326496+509825891+513194238+515027401+513689350+512710246
3804+512935754+509986810+508168176+509952641+510911593+511435804+512447970
3790+513051469+513127689+512544427+512078926+512844111+512948791+511832499
3777+512280788+513920482+514660146+513273057+511262999+510977503+511662931
3763+512990416+513670263+512233539+511341605+512224422+511999212+507638213
3750+504496099+507810081+509736890+506620594+506696644+510287260+511967216
3736+508539563+503493562+503152339+506584124+509712733+509984552+508773081
3723+508869837+509786269+510599682+511923077+513568054+512514348+508169497
3709+507153028+509275606+511277868+511655177+510224418+509960566+511081161
3696+511626163+511448799+510044923+506600910+505418325+508185346+510641094
3682+510949725+510093493+508650890+504050962+500222269+502180733+502356691
3669+500140127+501537910+503946282+504673292+504347152+503333878+500549347
3655+498901345+500617771+499869969+492044591+487060538+488903500+491247964
3642+491464525+489875531+487503246+484840309+482450598+480564861+475885176
3628+468214498+466100611+467276166+467357840+464326967+458930455+456518121
3615+456222229+454290436+451156630+447823262+445486594+445329552+445271907
3601+443730461+441951449+440342771+437611326+434980258+434707245+434545134
3588+430569666+425965052+424921402+425132211+424450532+423023607+421653475
3574+420876020+420910615+420807341+417803181+412021605+409782545+410616324
3561+410424985+409303708+408874123+408607714+407392579+406229719+405992239
3547+405060853+402786942+400659848+399464182+399324225+399756793+399586373
3534+398694609+397653089+396251813+394590262+393390124+392823478+392796381
3520+392687696+391981434+391423267+391172622+390528350+389510007+388543386
3507+388105535+387736746+386607843+385551922+384933043+383832131+382583551
3493+381948013+381467259+380818556+380386159+380334564+380087072+379320353
3480+378887402+378854127+378500038+378128651+377933733+377389796+376423814
3466+375453188+374598746+373770463+372982570+372364415+372331354+372506034
3453+371980459+371186900+370544119+369740590+369241047+369309641+369561819
3439+369703566+369454668+368915076+368135534+367186637+366748445+366896838
3426+367080891+366911068+366248774+365790004+365955822+366283412+366734769
3412+367083021+366955121+366898585+367196521+367326083+367063210+366645256
3399+366425073+366783722+367460970+367549247+366916351+366579985+367365109
3385+368807456+369823201+370106225+370274685+371228226+373021341+374614893
3372+375449098+376078586+376856169+377704689+379013896+380738416+382163850
3358+383308133+384544529+385947978+387410606+388576532+389278960+389788728
3345+390499208+391493054+392611859+393905473+395178935+395832793+395932915
3331+396082841+396271113+396452013+396818799+397020150+397158914+397661099
3318+398018554+397820910+397419955+397233601+397231471+397137484+397063394
3304+397137527+397120612+397164368+397723984+398476941+398811304+398807470
3291+398894043+399496946+400887954+402477971+403208219+403378043+404019886
3277+405134645+406153030+406714691+407253303+408368615+409546855+410066592
3264+409949685+409537141+409344652+409665723+410112393+410463798+411007480
3250+411899883+412871191+413313174+413312620+413766832+414800598+415505710
3237+415550487+415797639+416535301+416872348+416578843+416678368+417528124
3223+418152925+418132603+418026346+418103546+418176613+418310649+418778025
3210+419235900+419303088+419338834+419253624+418819778+418908098+419655090
3196+419980847+419986514+420517585+421460560+422350492+423076991+423575043
3183+423694720+423472280+423379358+423647770+424097166+424889107+425660129
3169+425759057+425640147+426024699+426898186+427538581+427560693+427413663
3156+427520814+427948653+428282505+428414368+428877356+429480003+429590136
3142+429471950+429645651+429816880+429735504+429716332+429818243+429835157
3129+429640282+429448177+429659753+430136204+430484201+430489186+430098413
3115+429793234+430116265+430704724+430857378+430583641+430328693+430430220
3102+431027670+431758557+432146646+432178727+431996037+431746031+431505697
3088+431466160+431979123+432676523+432718021+432175788+431972221+432262787
3075+432360097+432464266+433073601+433560746+433540679+433499906+433587673
3061+433780886+433947514+433749742+433703814+434298195+434934074+435105346
3047+434761013+434243107+434170892+434490386+434703240+434896965+435151828
3034+434835784+434003753+433548221+433657332+434101829+434566734+434784957
3020+435103812+435604889+435788346+435567780+435366472+435448742+435636459
3007+435922423+436548673+437224388+437573450+437790224+438252786+439084051
2993+439806205+439981226+440145468+440957518+442091747+443028033+443870886
2980+444544215+444847605+444988158+444981981+444876917+444912961+444880411
2966+444560192+444093710+443528044+443146134+443355580+443736979+443813327
2953+443927168+444406345+445017854+445422431+445653136+445914688+446230178
2939+446311553+446014384+445761822+445755047+445637330+445162072+444536461
2926+444027971+443706133+443573163+443207826+442506974+442070615+441966999
2912+442141552+442538630+442764521+443182731+444073132+444829966+445320988
2899+445756539+446033045+446072028+445904846+445902801+446365874+446993147
2885+447515441+447858879+447938252+447737242+447422179+447430785+447734729
2872+447840218+447827309+447948776+447951375+447629111+447404924+447794418
2858+448452324+448647965+448139135+447165484+446351346+446181310+446428546
2845+446653245+447056671+448132318+449577605+450480660+450443380+450001226
2831+449862164+450158055+450824609+451662989+452258095+452562848+452701272
2818+452759342+452936792+453233152+453629080+454204331+454830496+455491512
2804+456253075+456813628+457028059+457197456+457438430+457604206+457736238
2791+458150188+458846097+459272743+459315178+459526754+460085645+460673508
2777+461075955+461214804+461175437+461294944+461674341+462077128+462401352
2764+462568022+462529848+462520859+462646586+462927310+463535964+464193784
2750+464398458+464446815+464914532+465570776+465986600+466212236+466314743
2737+466431736+466784846+467251669+467645892+467997255+468395185+468851271
2723+469263176+469565074+469878434+470302353+470668840+470923107+471348006
2710+472012856+472602721+473009939+473399306+473710535+473903706+474129938
2696+474287832+474363413+474702761+475331440+475821993+476027392+476286728
2683+476689643+476959375+477161791+477424323+477656136+478020834+478466610
2669+478641034+478651089+478731229+478869482+479077394+479449421+479982834
2656+480343656+480251501+480064636+480285116+480822194+481337459+481802704
2642+482284013+482638741+482718626+482735838+483057761+483575070+484001886
2629+484487157+485033863+485295287+485337296+485596717+486269193+487020532
2615+487474615+487865558+488394285+488794133+489078862+489471253+489778520
2602+489860449+490134016+490930472+491885547+492532077+493029277+493533506
2588+493853299+494069817+494280371+494511545+494872111+495184235+495369822
2575+495626091+496011751+496376278+496517642+496627264+497151433+498014311
2561+498690536+498922137+498932404+499000061+499089148+499266470+499800736
2548+500472232+500746182+500638392+500816949+501405408+501810326+502215328
2534+503021371+503740670+504041461+504332538+504866378+505286165+505379512
2521+505396937+505528459+505737095+506060168+506682414+507441975+507877440
2507+507970830+508219430+508808059+509281826+509341132+509383354+509827127
2494+510290967+510430754+510608715+510860680+510913425+510897278+511002086
2480+511216730+511511939+511762286+511807745+511735999+511654964+511626547
2467+511713546+511796498+511741069+511511982+511341051+511498945+511663698
2453+511379055+510791745+510387382+510316743+510300510+510167966+509919154
2440+509533153+509291285+509364480+509280761+508768352+508090890+507500258
2426+507185493+507185408+507269680+507211610+506940813+506481659+506023826
2413+505698282+505282799+504732854+504384090+504194967+503756647+503167549
2399+502816782+502563581+502131183+501570928+501010801+500491703+499893785
2386+499140828+498187414+496735310+494641789+492177604+489442836+486220368
2372+482588766+478909105+475443832+472400348+470020521+468699299+468307973
2359+468057243+468132739+469421027+472143781+475628056+477996251+477391730
2345+474235130+471597543+470738329+470395572+470457137+471002863+471256490
2332+471058889+471403307+472592028+473586555+474196444+475186626+476498858
2318+477562150+478398442+479303839+480070175+480540107+481166826+482066727
2305+482797530+483206154+483546141+484024424+484565379+484945501+485102329
2291+485213187+485426979+485681373+485860868+486000910+486230764+486558524
2278+486816156+486988791+487276502+487626246+487911273+488230427+488542551
2264+488730737+488971454+489426859+489817376+490026779+490419043+490977636
2251+491393588+491786065+492412996+493152576+493704523+494122690+494598545
2237+495009299+495315032+495791398+496513083+497192887+497709557+498345905
2224+499120420+499624309+499924844+500500266+501444647+502448888+503149143
2210+503520232+503900694+504517699+505308404+506146827+506960539+507690574
2197+508338979+509033866+509910207+510898386+511912596+513016703+514081656
2183+514898265+515576067+516344660+517307149+518397452+519403269+520268320
2170+521189226+522214301+523129796+523854719+524555357+525458880+526652457
2156+527700667+528128207+528357933+528965266+529662709+530024297+530278734
2143+530673682+531053718+531290346+531220900+530698862+529997073+529478400
2129+529011791+528330964+527594197+526859347+525929494+524769873+523372175
2116+521820929+520355617+519055485+517705207+516177649+514604206+513020069
2102+511523272+510154418+508624517+506930289+505354332+503860007+502136893
2089+500196493+498514067+497177677+495762213+494080000+492282497+490675183
2075+489391028+488192551+486938304+485667995+484319293+482884359+481480398
2062+480094459+478653859+477270348+476004129+474714307+473310943+471918699
2048+470731512+469627789+468347894+466968303+465702127+464518945+463298271
2035+462161145+461171645+460107587+458896754+457661296+456461626+455406046
2021+454545171+453580467+452301637+451055997+450189881+449506029+448585933
2008+447387924+446288589+445491578+444798140+444033978+443268240+442434674
1994+441188181+439624324+438518300+437908751+437197376+436443823+435753964
1981+434971311+434199224+433603479+433105939+432470230+431679610+430836586
1967+429980270+429304896+428834197+428329626+427739974+427044576+426191966
1954+425447658+424915607+424253697+423369602+422480437+421570480+420761285
1940+420491042+420471145+420168139+419625650+419071701+418581957+418035208
1927+417319232+416373828+415403287+414855430+414390440+413741141+413504087
1913+413550185+413176157+412464100+412019262+411843943+411674631+411498672
1900+411303712+410938247+410249581+409588863+409179600+408600855+408212255
1886+408468950+408731865+408681719+408489017+408252900+408015846+407712712
1873+407256797+406241947+404689934+404302655+405337614+406204966+406428812
1859+406248380+405813086+405435009+405243841+405108102+404846848+404208924
1846+402933119+401594600+401756499+402704501+402917569+402595986+402524836
1832+402048769+400426756+399248048+399350086+399604481+400066702+400656780
1819+400704370+400222082+399601924+398806746+397849072+397410198+397538397
1805+397579723+397101952+395985319+395002806+394760043+394465984+393185961
1792+391682475+392054459+393324171+393676386+393118304+392393637+391764106
1778+391468513+391062062+389366343+386626675+386080948+387753916+389117487
1765+389568120+388951285+388072942+388182991+388566733+388879411+388756410
1751+386992864+384557054+384267256+385390237+385946913+385424235+384702167
1738+384809574+384450031+382296479+381764641+383549064+385260462+386165434
1724+386178897+385839378+384919750+381897739+378689715+379871874+382651932
1711+384369550+384477298+382822948+381059657+380761934+379410165+376300984
1697+375648361+377584500+380356207+382203174+382325493+381339316+378767938
1684+375296487+376378056+379152959+380437924+379841114+378482740+377510794
1670+376214198+376253522+378129886+378661425+377397848+377196667+378080763
1657+378002796+375166542+369587084+369349988+370801069+370427083+371983058
1643+375484375+377620672+377845242+376278957+375151886+378938187+383997779
1630+387338987+389488449+391679834+394240561+397943697+401991167+404659386
1616+407657539+413267715+418895316+422881690+425937061+429437057+433309675
1603+437067559+440809934+444497520+447780827+450779576+454119675+457879902
1589+461704335+465471805+469202336+472769861+475979035+478367937+479654478
1576+482271359+487611888+491984732+495059019+499486652+504956189+509709963
1562+512840191+512821445+512760775+520474996+529486836+537247582+543632656
1549+549348322+554055529+556651661+556916451+557872762+566959458+577732245
1535+585012918+591706964+599324344+605751853+610701312+615054685+618681175
1522+623011200+629756457+636947617+644540414+652393485+658518755+661860601
1508+662763144+667237515+677847082+686443183+692196895+696294638+701197061
1495+708029019+714033674+717833013+721429466+728107364+736187988+743279836
1481+748946719+753423135+757005444+759405210+761216687+766665092+775470766
1468+782559035+786925531+791912354+798631153+803525694+805185156+810749958
1454+822524089+833301350+841644846+848257814+855282517+863151138+870549998
1441+877362868+883343494+888378206+894884150+903664944+912094672+919414542
1427+926461655+932448586+937359828+941413859+943330314+945011675+950317269
1414+957273633+963001527+967322179+970695297+972417219+973102988+974951957
1400+976729605+975992284+974252895+974569961+978325842+981937889+980893642
1387+976222607+974243692+977421510+983321698+988939670+992052558+991919375
1373+991066424+991549393+991538572+991004135+991699363+992759459+993088625
1360+992581200+991579472+991894919+993346129+993467212+992376355+992185144
1346+992518144+991506448+988900729+985032542+982208345+982999434+985056656
1333+985796107+986304555+987902410+989756918+991462224+993286993+995138519
1319+997107804+998905988+1000837697+1004095782+1007916848+1010599767+1013063099
1306+1016296644+1019384139+1022997634+1027964262+1032346692+1035067955
1294+1036832481+1038048767+1040187279+1043523587+1045174869+1045063415
1283+1046293931+1048724798+1050037968+1050253037+1050416299+1050343956
1271+1049273976+1047144070+1045382014+1044886434+1044458425+1043327434
1260+1042257112+1042252852+1043706021+1045264340+1045717997+1046498946
1248+1048120319+1048775072+1048174939+1047192298+1046111581+1045444047
1236+1045299616+1044995162+1045056598+1046556462+1048686368+1049953951
1225+1049663641+1048586758+1048034854+1047848500+1047757922+1047866138
1213+1048757519+1051000328+1052873071+1053243734+1053185621+1052970380
1202+1052619060+1052753266+1053042298+1053024489+1053344452+1054404548
1190+1055698630+1056372129+1056412348+1057023729+1057991884+1057401806
1178+1055348333+1053781579+1053675492+1055029648+1056541186+1056362330
1167+1054568407+1052498403+1050931393+1049764614+1048960574+1048052748
1155+1045970815+1043278012+1041466791+1041143249+1041454691+1040336652
1144+1037624081+1036022731+1036616133+1036811093+1034822550+1032110320
1132+1029887279+1027247903+1023779605+1020216298+1016689547+1013590207
1121+1011092535+1008123994+1003866908+998697650+994132105+990219011+985348415
1107+981129759+979341970+976572990+971829952+968635860+966477834+963432774
1094+960752071+959194775+957625635+955780159+954524592+952616487+948540472
1080+943658372+939467068+935711358+931803206+927944818+924486489+921579980
1067+919025133+916049603+912851932+910032082+907121227+904335204+902235037
1053+900426798+898843002+896840399+893619806+890368197+888091986+886770977
1040+886487909+886229212+884555690+882089972+879860796+877648407+876432206
1026+876669856+876246619+874790297+873464687+871854816+870250740+869755501
1013+869904703+870026127+870569425+871682607+872294159+871696496+870818749
999+870678238+871153795+871434732+871002973+870259091+869779785+869568635
986+869453943+869441417+868981880+867677061+866442370+865591975+864271563
972+862206502+860004082+857928880+854975761+851348717+849386845+849238495
959+848578629+846963732+845669053+845062870+845195542+846542454+848809719
945+851347695+854671647+859009597+863168606+866503125+869399749+872249764
932+875401167+879242343+883777894+887934603+890860795+893550019+896686851
918+899157426+900241551+900594917+901084362+901456729+900762184+899590718
905+898957012+898313081+897095091+895973133+895907265+896174739+895237771
891+893371505+891376656+889328807+887835930+887248408+886429541+885028605
878+884372319+884581850+884666463+884998441+886720788+889639908+892624384
864+895684527+899506446+903358358+906311222+909306860+912682279+915568168
851+918562613+921957460+925011553+928100837+931514004+934744396+938110101
837+942615659+948002798+952444533+953940563+951766433+948985609+950367202
824+955263021+959329151+962615952+967683469+973892031+978833778+981477585
810+981783148+980284903+980036942+983895416+989379098+992455600+993957765
797+996576095+999691368+1001797501+1004144266+1008377152+1013731400+1017616119
783+1018640938+1019196251+1021845682+1026221720+1031230272+1034755234
772+1035803912+1037189255+1039205321+1039637505+1039304590+1039584334
760+1040970102+1043276393+1044088614+1041731879+1038029850+1035950729
748+1036306054+1037274209+1037250691+1036225957+1034958034+1034893956
737+1036156937+1036014551+1033610440+1031868324+1030133024+1026567246
725+1024887589+1026189681+1027537446+1028055693+1027834403+1027014087
714+1024210085+1019780024+1017664348+1018469155+1019279416+1018941303
702+1018700841+1019549275+1021783393+1023413288+1021662992+1018024700
691+1014841174+1013597109+1012593593+1008439100+1005807563+1008624431
679+1012218584+1014177304+1017635717+1022692157+1022738852+1014797546
667+1011139912+1019230079+1026051556+1025881307+1024219885+1027779527
656+1033083417+1034264255+1036659334+1043690854+1047250071+1044965935
644+1044028626+1047378397+1050813548+1054052120+1063972169+1073741823
633+1065500920+1044896915+1027230520+1019658770+1025484825+1032386144
621+1030606195+1033794152+1042490673+1036532883+1024257718+1029272916
609+1035146603+1026874343+1030280097+1047191958+1058702620+1068672091
##END=
