##TITLE=Sample description
##JCAMP-DX=4.24
##DATA TYPE=INFRARED SPECTRUM
##DATE=24/8/2023
##SAMPLING PROCEDURE=Instrument type and / or accessory
##ORIGIN=Default
##XUNITS=1/CM
##YUNITS=ABSORBANCE
##RESOLUTION=4
##FIRSTX=4397.6552
##LASTX=599.8556
##DELTAX=-1.9287962
##MAXY=1.2858949
##MINY=0.34341311
##XFACTOR=1
##YFACTOR=1.1975829e-009
##NPOINTS=1970
##FIRSTY=0.48786411
##XYDATA=(X++(Y..Y))
4398+407373968+407552222+407424137+407387207+407528282+407701360+408257175
4384+408312744+407146664+406076294+405616561+405111288+404239180+403416941
4371+403556100+404339293+404812863+404914619+404981859+404992859+404616716
4357+404067296+403903899+403931322+403577079+403069840+402900719+403201757
4344+403904794+404113035+403260785+402360233+402314966+402729283+402500089
4330+401801406+402279704+403773151+404511077+404019939+402752053+401382461
4317+400779338+401206969+401977346+402272935+401895672+401001864+400156780
4303+399808086+399959290+400353002+400093099+399276733+399333920+400456948
4290+401137041+400336154+399276584+399608904+400805418+401282745+400560745
4276+399534272+399214595+399531361+399729399+399309931+398580390+398224181
4263+398058145+397579201+396884351+396404486+396801632+397956041+398943394
4249+399411562+399104850+397930259+397058649+397118224+396849313+395837298
4236+395355542+395805594+396318756+396211799+395656805+395374604+395771949
4222+396370219+396609492+396683227+396533492+395623707+394544452+394585215
4209+395302412+395576798+395954384+396571666+396418422+395765131+395717923
4195+396312634+396360315+395445851+394891579+395322619+395892768+396061989
4182+395882863+395516924+395329611+395415541+395095738+394182071+393563794
4168+393782735+394600469+395131922+394658577+393903031+393909302+394421469
4155+394353009+393746452+393632726+393850648+393687673+393227119+392960646
4141+393192927+393445488+393034631+392097372+391402846+391542502+392200472
4128+392529656+392589854+392776694+392406200+391570573+391442861+391802555
4114+391619448+390812465+390220740+390003764+389307943+388494465+388535998
4101+388924310+388956437+389017431+389326483+389228136+388716915+388657439
4087+389047144+389112493+388695962+388228987+387827113+387463214+387302181
4074+387113524+386848271+386825177+386781205+386688855+386681887+386305521
4060+385970364+386425618+387196965+387872703+388188573+387323831+385740921
4047+384843404+384676797+384635636+384518998+384290774+384228461+384478783
4033+384609755+384371179+384037640+383863218+383963332+384026641+383505416
4020+382658442+382131767+382285783+382935541+383098540+382211550+380986666
4006+380531437+380912358+381304303+381434454+381323614+380876424+380373092
3993+380177492+380340492+380493711+380284201+380007774+380113935+380318618
3979+380176198+380112143+380523175+380817893+380538156+380121301+379960318
3966+379727092+378845751+377727102+377675938+378651222+379180957+378661051
3952+377934572+377413970+376848972+376771877+376917431+376675620+377201448
3939+378646742+379450864+378658861+376694085+375401985+375644195+376013544
3925+375712456+375655120+375933637+375297044+374166227+374338857+375684285
3912+377119227+378221277+378196864+375765934+371969991+370044036+370232941
3898+371928457+374461019+375852635+374797146+373804418+374839675+374659107
3885+372753931+371932713+371446900+372509457+374809688+374964450+373342893
3871+371730046+371397005+372861013+372772794+371560850+372594963+374138728
3858+374555982+372515006+365823199+364137811+369746929+374830766+376895706
3844+375987713+373897663+372148245+370967085+371260956+372697640+374045308
3831+375235776+376464218+377341702+377629601+375399422+370440709+369835247
3817+372065725+373618400+376430698+379363616+379953698+377277000+374904850
3804+374401991+372811764+372856434+375213578+377171884+379162815+381127244
3790+382245469+382491834+381889583+381108132+381195778+381308210+381310325
3777+382378332+383495064+383418765+381956748+380845018+381494253+382785382
3763+384198375+384591614+383388928+383408587+384800950+383936929+379414282
3750+378053176+382078438+384220150+383196613+385424851+389257799+389829491
3736+386715781+385893842+390222954+395868082+400180048+402543190+404917630
3723+409819157+417170227+426471541+437057340+447723319+458875011+473730098
3709+492057693+509436308+524424034+537634694+550701566+563952142+575001357
3696+582608722+587135823+588035828+584468059+580735847+580608185+580819761
3682+579021542+575114386+569180066+559114173+551228539+551291947+548823316
3669+543623215+543696129+545313331+544993305+543807765+542413386+538827750
3655+535383611+535022126+531945495+521703264+517107778+521692812+526573584
3642+528569045+528302721+527503353+526796209+526561938+527379523+525632668
3628+520658326+521415689+525529294+528232793+527790082+524759937+523394077
3615+524054685+524487741+523992123+522479738+521899709+523573352+524936275
3601+524312498+522956343+521827144+520638518+520398523+521554897+521528170
3588+518789583+517994544+520944110+523993218+525047562+524242022+523070418
3574+523317530+525252369+526732503+523925032+518664111+519520765+524064390
3561+526585878+527866381+529880654+531096405+530622737+530244528+530678032
3547+530945749+531276725+532779156+535291684+537526841+538533753+539190827
3534+540265777+540921457+541266767+542262730+543577724+544258788+544555073
3520+545672079+547829792+549846205+550826143+551198876+551260094+551459675
3507+552838923+554041136+553632867+553971806+556071685+557798184+558388117
3493+558844366+559312410+559074705+558687289+559471975+560782589+561257154
3480+561057921+560877851+561536219+563109672+563781478+562830408+561839024
3466+561783032+562091063+562630479+564207865+566045701+566676098+566603383
3453+566596315+566636181+566147631+564999419+565035852+566152608+566262104
3439+565949096+566091988+566397978+567501297+568991086+569086746+567870597
3426+567314159+568210083+569428522+569956590+569718337+569516019+570371778
3412+571588375+571677116+570979529+570628794+570846193+571419801+571897103
3399+571978528+571988980+571924278+571729226+572457223+574247976+575001407
3385+573934172+572851458+572578017+572579560+572884854+573656401+574918090
3372+576297288+576812466+576851685+577453812+578043049+578535381+579675331
3358+580721812+580731467+580313891+580451805+581145859+581968471+582500769
3345+582027101+580861718+580687271+581932237+583576167+584795352+584747373
3331+583506288+582430393+582304871+582752261+583048397+583226776+583440392
3318+583119968+582642516+582919192+583120814+582530283+582662126+584206115
3304+585551022+585523897+584490307+583797298+584375734+585451928+586048730
3291+586220588+586198092+586114626+586393293+587488648+588613767+588369939
3277+587551359+587580177+587960873+588597442+589957478+591325578+592619220
3264+594327304+595533499+595929873+596494821+596862777+596381444+596043898
3250+597005121+598960665+600355691+600764408+601691041+603106572+603279426
3237+602482396+602151918+602555261+603318297+603706360+603847111+604918527
3223+606191067+605679672+603680578+601738423+600470611+600304377+601113152
3210+602071339+602590250+602293417+601524259+600755450+599895610+599399793
3196+599610025+599521333+598361624+597017265+595988055+594225622+592143162
3183+591861410+593196810+593707707+592480658+590804826+590205934+590713447
3169+590649392+589449866+588473413+588114516+587590778+586454809+584790375
3156+583421031+583036054+583071889+582537898+581309505+579961464+578579578
3142+577223423+576174753+574917095+573436464+572644212+572367736+571656611
3129+570614112+569767859+568566890+566736420+565337313+564728816+563977277
3115+562765258+561835938+561245060+560272638+559173400+558456303+557978901
3102+558043703+558443014+558121097+557184112+556447653+556037890+555438501
3088+554374302+553353951+552827227+552990425+553805571+554243106+553341409
3075+551682449+550286478+549582072+549571819+549397522+548220393+546662119
3061+545529038+544741763+544231414+543875154+543039453+541679765+540398466
3047+539190778+537710644+536042029+534478380+533136012+531878951+530576002
3034+529436002+528584125+527537296+525824086+523833454+522548870+522124574
3020+521648666+520593923+519070290+517332443+515756850+514583951+513703058
3007+512894432+512106959+511246770+510011907+508450946+507313584+507107433
2993+507212251+506792782+505926870+505006160+504083559+503294095+502545443
2980+501447450+500281619+499457614+498734046+497881472+496974499+496142730
2966+495490434+494750093+493340336+491436255+489684920+488321848+487570408
2953+487114657+486326139+485403538+484607454+483956850+483398273+482631753
2939+481793264+481143457+480480510+479762367+479054627+478179806+476808471
2926+474929972+473354428+472411421+471455374+470322641+469067720+467671202
2912+466675139+466354814+466114720+465505675+464835412+464356766+463945410
2899+463493243+462845128+461975433+461144161+460468174+459706432+458840869
2885+458354409+458373869+458354857+457817183+456781005+455614726+454533207
2872+453420929+452382014+451699258+451142572+450450310+450035122+449889692
2858+449148008+447776275+446489551+445315856+443989017+442686067+441881473
2845+441385706+440534874+439705594+439540703+439526966+438935938+438205850
2831+437966652+437769162+437322369+436913602+436507671+436031962+435490207
2818+434881361+434381214+434036651+433611111+433006744+432390234+431852211
2804+431293285+430627004+430033487+429599038+429156078+428787874+428575253
2791+428452369+428392843+428153893+427603827+427002645+426466266+425889820
2777+425407293+425073828+424586274+423903866+423254955+422741121+422436026
2764+422402232+422620029+422800697+422510135+421940707+421616202+421330518
2750+420702311+420082814+419941614+420060069+419874623+419333017+418801415
2737+418435500+418152653+417935652+417831432+417646086+417124065+416456813
2723+416131138+416210149+416334626+416376582+416270745+415911275+415476503
2710+415158094+414976406+414852004+414744847+414724914+414700327+414485641
2696+414182338+414063485+414128087+414163201+414080507+413984723+414022001
2683+413982284+413537433+412939636+412568694+412419133+412370830+412260563
2669+412086788+411997002+412016537+412108513+412041099+411800009+411821809
2656+412038137+411980652+411776044+411797346+411907265+411876084+411826238
2642+411858241+411897958+411931479+412062923+412313420+412578300+412781638
2629+412924107+413081682+413199016+413225942+413376399+413721385+414151131
2615+414569057+414762142+414730190+414932010+415682479+416630239+417255933
2602+417511356+417653303+417943715+418540517+419274038+419778615+420090279
2588+420414437+420571911+420611927+420959825+421608139+422152134+422354104
2575+422361171+422359031+422241323+421992469+421842360+421886656+421990229
2561+422073347+422191453+422278701+422277705+422297514+422333698+422283977
2548+422181150+422083351+421911990+421675827+421608189+421805779+422002025
2534+421988786+421998242+422159898+422232165+422284275+422502022+422579565
2521+422338227+422109779+422138297+422300351+422331358+422247893+422229129
2507+422219225+422281637+422487888+422643969+422756102+423028100+423507044
2494+423916060+423976183+423775209+423535513+423389037+423250525+423112561
2480+423094892+423028647+422893171+422906958+423014910+423047112+422920246
2467+422671641+422407060+422019345+421430457+420978787+420862075+420782591
2453+420531348+420216299+419971427+419728943+419300666+418757119+418384485
2440+418229798+418057292+417740053+417329121+416834175+416341519+415988121
2426+415697783+415299692+414868577+414687810+414581076+414046588+413256676
2413+412740204+412465270+412014546+411343163+410828956+410527619+410105214
2399+409480516+408939632+408593651+408196604+407644422+407073626+406575993
2386+406077613+405297282+404024020+402326737+400248259+397693350+394833272
2372+392105062+389685903+387490986+385436373+383619416+382371538+381621791
2359+381023073+381046988+382312560+384601493+387273363+389141186+388934588
2345+386807907+384855922+384227068+384145916+384241899+384486523+384490704
2332+384067030+383813323+384201212+384769843+385213500+385786809+386493903
2318+387173299+387826615+388350752+388623147+388887231+389478508+390298930
2305+390983228+391398441+391732030+392015972+392061313+391985836+392010945
2291+392166777+392518060+392909930+393049288+393031868+393042669+393077981
2278+393108466+393131485+393198824+393252228+393205817+393113990+393009745
2264+393080818+393477989+393879092+394043758+394159251+394436002+394899243
2251+395308036+395455357+395588843+396006967+396605137+397068404+397281547
2237+397493247+397920828+398513897+399249111+400086006+400816716+401416305
2224+402046478+402763376+403646833+404677884+405635822+406498076+407419010
2210+408468900+409700279+411115412+412639667+414282651+415975753+417525143
2197+419105564+421101522+423282926+425136092+426939287+429257312+431903226
2183+434443478+436936098+439675233+442655707+445627173+448489789+451330308
2170+454264992+457238448+460025513+462594482+465158474+467804637+470362955
2156+472633797+474491890+475767465+476491879+477005364+477237247+476869839
2143+476077836+474930470+473058740+470338368+467070070+463435359+459352164
2129+454921021+450256453+445277135+440086738+434940140+429950818+425110559
2116+420418567+415911574+411583705+407394150+403320436+399316451+395409245
2102+391711300+388247203+385000929+381910287+378864290+375966212+373353569
2089+370802692+368136745+365618094+363473421+361530544+359461124+357250256
2075+355256587+353633363+352154947+350571862+348748783+346833255+345176361
2062+343754310+342292019+340852648+339599917+338377223+336973488+335488552
2048+334126101+332863391+331618599+330410612+329270637+328225376+327210002
2035+326139955+325137124+324387974+323828998+323204524+322457290+321799271
2021+321245173+320508888+319559585+318722590+318020498+317150455+316104597
2008+315112267+314202955+313249869+312198784+311134187+310229554+309474655
1994+308468364+307065127+305890984+305323398+305044732+304705046+304154009
1981+303480834+302772546+302027402+301313366+300652037+299905674+298869620
1967+297823662+297401581+297348675+297003539+296407957+295803043+295224059
1954+294732623+294316589+293827217+293140156+292198817+291012928+290206716
1940+290413265+290881359+290893379+290633376+290361926+290093040+289775900
1927+289309971+288456477+287627619+287512325+287514266+287417213+287860795
1913+288298479+288076253+287758367+288061396+288676911+289039268+289150132
1900+289160534+288949581+288464888+288080583+287843077+287474399+287534323
1886+288178382+288678230+288937362+289195473+289536204+289854165+289939522
1873+289573109+288309802+286755187+287144718+289164914+290695465+291278903
1859+291587706+292103705+292805846+293398591+293672779+293551413+293091406
1846+292371969+292208945+293698037+295490557+296490502+297304130+298130126
1832+298001692+296966410+297020436+298315199+299647214+301112367+302314455
1819+302685671+302588294+302308184+301484652+300336415+299876433+300084003
1805+300010715+299034063+297496892+296704865+296901534+296848404+295703029
1792+294800833+296247546+298256867+298918893+298720756+298658343+298966897
1778+299715798+300107718+299032893+296943167+296793730+298802007+300822775
1765+301811746+301490027+301173012+301823442+302427062+302805270+302341854
1751+299916897+297310476+297359624+298564127+299136043+299061014+298958088
1738+299175561+298242782+295559664+295428543+298108476+300939065+302769510
1724+303332517+303298374+302395333+299344906+297094943+300252974+304927895
1711+308201693+309536744+309301129+309416846+310822149+311539869+311510778
1697+313950965+319605524+325776454+329894340+332532266+334500701+335488228
1684+338054484+344961575+352124263+357903199+362701352+367575255+372133513
1670+377009955+384718305+392774280+398822550+404771553+412329720+419494772
1657+424360215+426849750+431963150+441305476+447715704+454582082+465905036
1643+476776070+484891745+490468113+493932061+499240314+508961544+517426809
1630+523253126+527847617+532109738+535997434+540728148+545672527+548633540
1616+551111528+555787394+560051307+562313240+564013709+566505732+568911702
1603+570735751+572663573+574745137+576547486+578473068+581093849+584296250
1589+588080522+592610162+597813299+603428937+609190901+614259558+618395959
1576+625318378+635214105+643180915+650825907+660999603+671835450+681825094
1562+689354867+693776852+702577969+718100781+731926061+744123139+755002784
1549+765858489+774929315+780383446+783126663+788396493+805047261+820717095
1535+829643685+837341334+846999057+855573369+862060494+867249496+870840359
1522+875144338+883165398+891854879+900510517+909159585+915099728+916931592
1508+915177072+917826172+928824720+936810343+939820480+938996475+938465222
1495+941222424+943307422+940841478+936098521+937011317+941083165+942778259
1481+941871932+940244527+937080300+930681867+923057779+920148178+922688778
1468+924170753+921733378+919034408+919027738+918110761+913175391+911598254
1454+918999369+926939203+932227947+935988428+941927477+950218394+958367664
1441+965099561+969350085+971971712+977763439+986434904+993482845+998777760
1427+1004009964+1008288758+1011762959+1014369256+1013333028+1011916153
1416+1016278861+1021638279+1023557938+1023546591+1023650313+1023124236
1404+1022808092+1023890407+1022904647+1019194633+1016862772+1016917818
1393+1018905863+1019542531+1014733478+1006896072+1004436997+1008218283
1381+1012603587+1014670867+1015045043+1014485819+1014292310+1015327343
1369+1016737549+1018506900+1019648941+1017792988+1015247809+1015405583
1358+1015368354+1013505533+1012224732+1012188200+1011462044+1009764761
1346+1007476897+1005404044+1004057843+1001502213+998905372+999444191+1001111512
1333+1001566517+1001070501+1000675918+1001083043+1002437108+1004305403
1321+1005731237+1006592271+1008412887+1012144501+1016742526+1021073182
1310+1024925938+1028217081+1031176154+1034512489+1038318361+1041976116
1298+1044948228+1047282578+1050047743+1053516568+1056222008+1057440397
1287+1058080748+1059352292+1060586508+1060165547+1059041026+1058839653
1275+1059160575+1058739116+1057106833+1055183591+1053510794+1051939531
1263+1050663607+1049665105+1049347866+1050269621+1051778273+1053194153
1252+1054531593+1055573395+1056053882+1056262920+1056707970+1057684174
1240+1058696711+1058917494+1058878574+1059263899+1059529775+1060288580
1229+1062627409+1064875356+1065002969+1064268252+1064515613+1064954293
1217+1064583899+1064513821+1065927511+1067785056+1069002350+1070570229
1205+1072072511+1071939026+1071203513+1071145181+1071293996+1071240244
1194+1071342473+1072335997+1073741823+1073239138+1070586256+1068680532
1182+1068612048+1068668786+1067631663+1065796514+1063932299+1062996111
1171+1062745067+1061182165+1058538142+1057411729+1057951344+1057682880
1159+1055252672+1051507022+1047490719+1043835652+1041484679+1040342439
1148+1038095786+1033690375+1029033322+1024847798+1020162177+1015403293
1136+1011430589+1006893484+1000086035+992070052+985327404+980343855+975312725
1123+969673197+964384454+959431962+954532526+949511549+943788705+937692281
1109+932829675+928886834+924242921+920706905+920163309+920615725+920036393
1096+918599212+917186120+916347681+916267650+916727333+917205232+917782971
1082+919172571+921788325+925002920+927281626+928573178+930682365+933665626
1069+936303676+938823372+941537174+944333197+947184466+949531159+951439968
1055+953658650+955597621+956628672+957772504+959510401+961333405+962724001
1042+962776758+962064140+962499535+964216229+966475922+969200474+971522083
1028+971950310+970726148+970024579+970793836+971412587+971200464+971763371
1015+973049548+973450701+973379031+973583887+973719065+973861409+973861509
1001+973447416+972839416+972202648+971724849+971098135+969858743+967966358
988+965328506+962704590+961072009+959694652+957600397+955210802+953023874
974+951052154+949192220+946824723+943795076+941346851+940709884+941546133
961+942297075+942213161+942065342+942243123+941906175+940987406+940743927
947+941512587+942452160+943365056+944879083+947220600+950064304+953116746
934+956044065+958349149+959675441+960406872+961090325+961438621+961349929
920+961430856+961499839+960765919+959673649+959026927+958432067+957269123
907+955646396+954204337+953234902+952280099+951046281+949935795+949309082
893+948863036+947843133+946201195+945435919+946151324+946193231+944052092
880+942076291+943238141+946504398+948958596+950411206+953143224+958683111
866+966212535+973488626+978859192+982651926+984870409+984735430+983473940
853+981694037+979081369+977660115+978115916+978024039+976694761+975870656
839+976380010+977403696+979071515+982388140+984514348+982156408+978229692
826+976653053+977372041+978060073+977520856+977582870+980078975+984654204
812+989036821+990846288+990592556+989374366+987299323+986479598+988468936
799+991679450+994986022+998779353+1002373799+1004571777+1006541505+1009857235
785+1013966411+1018498837+1023403549+1027523276+1030074427+1031568646
773+1032253990+1031759666+1031126383+1031969301+1033495970+1033723920
762+1033503436+1034852025+1036724302+1037430749+1037187270+1036795773
750+1037179805+1038764905+1040978212+1042422659+1041860150+1039708658
739+1037078571+1034638906+1032772203+1031282663+1030602296+1031501754
727+1032492989+1031127080+1026923240+1023094970+1024058234+1028013618
716+1029137044+1026471719+1022992542+1020696516+1019889931+1019798552
704+1018454840+1015731382+1014987807+1016826141+1017434041+1014503438
692+1009879333+1007186634+1007934092+1010548153+1012297198+1011734788
681+1010061992+1009946325+1012891760+1017420603+1019752862+1015768014
669+1007482173+1006555142+1012228514+1015244226+1018256155+1021214331
658+1021343337+1023097857+1028433485+1031517382+1031023457+1031429586
646+1031606770+1027199667+1021486080+1020714732+1023898171+1025060319
635+1022535746+1020385449+1019539843+1016117206+1009818712+1005603027
623+1005689927+1006982773+1008258000+1008357044+1005801215+1003381060
611+1001719313+1001999622+1010943035+1026298915+1031846267+1022821331
600+1014501546
##END=
