##TITLE=Sample description
##JCAMP-DX=4.24
##DATA TYPE=INFRARED SPECTRUM
##DATE=24/8/2023
##SAMPLING PROCEDURE=Instrument type and / or accessory
##ORIGIN=Default
##XUNITS=1/CM
##YUNITS=ABSORBANCE
##RESOLUTION=4
##FIRSTX=4397.6552
##LASTX=599.8556
##DELTAX=-1.9287962
##MAXY=1.3672811
##MINY=0.34234697
##XFACTOR=1
##YFACTOR=1.2733797e-009
##NPOINTS=1970
##FIRSTY=0.39614788
##XYDATA=(X++(Y..Y))
4398+311099561+311016476+311259949+311290656+310505658+309980938+310334668
4384+310652964+310265930+309781699+309895092+310326289+310531684+310486724
4371+310152748+309438595+308694484+308508632+309236945+310140835+310147669
4357+309548149+309379172+309779967+310016559+309924160+309814067+309835037
4344+309846318+309346804+308620340+308332259+308379020+308429690+308363691
4330+308319410+308486047+308961689+309353123+309086690+308563374+308281776
4317+307911078+307268753+306809774+306912027+307312705+307417018+307011752
4303+306663358+306743354+306647818+306414807+306818434+307307603+307294684
4290+307560274+308069220+307877189+307272521+307247572+307721575+307945319
4276+307693514+307301799+307271350+307627187+307878851+307728128+307363141
4263+307151123+306988746+306651235+306392947+306507019+306849000+306863885
4249+306395522+305889735+305721436+305952763+306015298+305578227+305272054
4236+305099332+304789649+305033028+305746736+305918335+305638282+305670135
4222+305972586+306093890+305968116+305810723+305998471+306547321+306931897
4209+306909850+306617299+306436198+306670169+306882070+306466483+305405809
4195+304351945+304328751+305409366+306210114+306060047+305942114+306367952
4182+306643044+306339539+305957607+305885312+305789730+305535818+305340488
4168+305283218+305363868+305430617+305523695+305739949+305646824+305281182
4155+305230512+305264939+305063196+305019571+305164887+305100970+304861265
4141+304648849+304440389+304330881+304360464+304376847+304572014+304920595
4128+304890029+304511795+304174869+303845152+303466637+303259675+303263162
4114+303232526+303041104+302752040+302560524+302497707+302430350+302507092
4101+302746961+303047329+303387766+303353619+302785180+302305887+302483407
4087+303186467+303775174+303800708+303333328+302779750+302587790+302704670
4074+302657979+302392693+302253907+302303570+302212341+301744259+301103548
4060+300693320+300806011+301374169+301943006+302115331+302038355+302046055
4047+302015465+301961940+302030795+301958921+301716010+301478341+301334757
4033+301297053+301209638+301069144+300963474+300732686+300268536+299905023
4020+299843002+299915414+300232938+300788856+300983695+300557202+300112079
4006+300065060+300107188+299934746+299781566+300108194+300725478+301190260
3993+301437150+301433944+301401435+301195128+300352229+299471555+299164447
3979+299349269+300104005+300887340+300726578+299844921+299117381+298878823
3966+299041388+299163932+298823121+298513719+298740785+298908382+298486781
3952+297889274+297535965+297613550+298158678+297952090+296467872+295780633
3939+296521210+297247065+297121010+296136821+295570511+296248458+296650190
3925+296102838+296193014+297203767+297558293+296974220+296889731+297869989
3912+298981029+299510430+299070105+296781019+293425899+291976342+292459262
3898+294030193+296358902+297409302+295794863+294910585+296760681+297321654
3885+295913452+295341081+294296485+294343551+296415306+297117968+296174922
3871+294419380+293004391+294263438+295187199+294319749+294705355+296409198
3858+297863623+296843555+290240154+287422580+292140498+296754713+298790566
3844+298152336+295999275+293563936+291499974+291901051+293868049+295043053
3831+295873337+296763910+297141910+297708547+296966730+293397861+292729931
3817+293838490+294051584+296416734+299520728+300380735+298139838+296532139
3804+296619062+294865509+294471875+296286326+297445906+299039633+300829322
3790+301610317+301714559+301346248+301081431+301517730+301095754+300262053
3777+301235149+302574215+302684191+301359448+300191115+300468758+300935530
3763+301460507+301281161+299525830+299058801+300741416+301210224+297917242
3750+295640326+298150183+299525034+297541372+298442079+301675825+302831661
3736+300029673+297177765+299192555+303582464+306672182+307278184+307111547
3723+308273749+310627687+313707669+317366644+321364020+324847558+330190132
3709+343013502+362170049+384868083+411411810+441404227+467939856+487225500
3696+500968722+509879510+513185529+509925195+503184343+497953102+492462404
3682+484412372+474515569+464175585+449476258+434871671+429248880+422468849
3669+413989773+411270683+410023525+406965918+403296481+400206295+395895492
3655+391587801+389660075+385477456+376515623+373023472+376050162+378823924
3642+379399946+378495471+377280821+376031439+375296292+375222242+371687706
3628+364955794+364687957+367948595+369604904+367763819+364060423+362772658
3615+362579223+361904342+361830315+361259559+360373479+361129338+361859453
3601+360976252+359852691+359178208+358082708+357458403+358004234+357073944
3588+352847512+350343460+351927848+353654790+353418409+352158612+351057917
3574+350345777+349953500+348905628+344616099+338354422+336683977+338471817
3561+339698661+339489568+338648869+337535278+335909395+334442893+333761014
3547+332869434+331166107+329576897+328811653+328675535+328255173+327117687
3534+325834111+324329929+322375896+320666132+319429529+317969323+316558102
3520+315857360+315149128+313993550+312699373+311068527+309169213+307733488
3507+306986148+306139481+304891737+304077040+303661594+302745533+301287036
3493+299879021+298552733+297060534+295534188+294430918+293731697+292743622
3480+291472475+290549791+290066800+289740289+289212667+288269856+286877428
3466+285041352+282978818+281190346+280070670+279460056+279014068+278566675
3453+277725344+276403784+275051986+273886601+273223048+272896139+272424780
3439+272295239+272462086+272152380+271549981+271155131+270649812+269649497
3426+268849077+268918563+269400103+269658180+269673229+270158654+271650736
3412+273270933+273974156+274103300+274313984+274721449+275386103+276341880
3399+277446437+278564826+279577990+280431585+281249137+281984237+282513146
3385+282935684+283423777+284323431+285618123+286892196+288328062+290096851
3372+291773803+293163211+294215530+294704021+295101118+296060406+296890503
3358+296974103+296779076+296629173+297088853+298461598+299622793+299886510
3345+299897627+300090875+300346261+300356863+299998171+299747396+299817726
3331+299748122+299421307+298950627+298054811+296736434+295702979+295272951
3318+294855328+294066797+293239391+292663159+292195545+291955278+292313712
3304+292808826+292975908+293637519+295482114+297742741+299627521+301439420
3291+303178720+304298209+305213263+306465945+307533055+308014876+308282478
3277+308609644+308648870+308288704+308108984+307852755+306890940+306085885
3264+306243793+306544255+306104445+305284131+304689666+304110227+303427459
3250+303067808+302768259+301935985+301158126+301182771+301464884+301351538
3237+300905900+300300459+299785358+299546800+299287669+298895416+298788483
3223+298825625+298494481+298229172+298399554+298249533+297522835+296891158
3210+296659551+296801919+297087870+297151787+297148276+297416557+297863950
3196+298167057+298341979+298653395+298938527+299091730+299204374+298992684
3183+298650469+298721407+298940610+298832600+298517206+298370860+298413900
3169+298262780+297860440+297652143+297728838+297668409+297265460+296726791
3156+296451676+296711415+297118810+296931250+296276847+295953075+295966766
3142+295827488+295497327+295187854+295133252+295284607+295365140+295430578
3129+295498403+295432216+295380587+295426412+295484361+295481552+295325657
3115+295039168+294791669+294934809+295520356+296062981+296245088+296041472
3102+295728442+295803967+296289205+296775074+297110057+297400104+297502638
3088+297532478+297863693+298094855+298036977+298524461+299641235+300274246
3075+300126215+300040767+300296106+300385603+299906146+298903491+297998688
3061+297748123+297895967+297821870+297347609+296715721+296101059+295547716
3047+295215143+295342345+295742110+295956351+295969294+295874039+295700779
3034+295647464+295571190+295322568+295202224+295210626+294999615+294704208
3020+295014851+296040606+296719770+296303130+295448061+295010591+295157358
3007+295710561+296284313+296684921+297190567+298083434+299447075+301278096
2993+303486882+305738826+307820294+310065099+312517546+314712220+316544668
2980+318025563+318965449+319373898+319258867+318580405+317581002+316529877
2966+315538689+314601659+313695311+313027896+312737287+312733589+313003064
2953+313414883+313888676+314806772+316298363+317889071+319080878+319590620
2939+319544654+319045842+317901662+316573783+315781788+315318199+314392262
2926+312796219+311301117+310458569+309940004+309323797+308455130+307408007
2912+306524525+306003082+305568584+305058983+304604522+304066836+303442999
2899+303190890+303353642+303465889+303429448+303398602+303289258+303092453
2885+302979879+302949453+302733270+302225400+301779365+301559249+301192483
2872+300448139+299545957+298853781+298478659+298206680+297987477+297838721
2858+297565454+297083868+296423474+295603417+294672402+293946313+293961689
2845+294561700+295009187+294985525+294771799+294819122+295179756+295631222
2831+296005921+296203639+296426774+296811070+297124053+297365349+297551927
2818+297522016+297625463+298116153+298521232+298719628+299097394+299566061
2804+299772369+299756032+299810681+300100096+300428175+300465762+300364352
2791+300657793+301349712+301832469+301912160+301951432+302113505+302336781
2777+302583998+302846803+303259020+303778661+304012070+303942818+303903943
2764+304041091+304523778+305291597+305935327+306328750+306575687+306666775
2750+306698020+306918440+307250474+307464856+307642750+307859074+308203864
2737+308788592+309358529+309730935+310130771+310719759+311320075+311752653
2723+312130231+312501374+312808600+313215667+313718832+314029826+314129177
2710+314188342+314277910+314438813+314567629+314569853+314542517+314489951
2696+314448128+314492736+314489132+314448245+314545980+314744869+314883936
2683+314957261+315086498+315240357+315274691+315144330+314898961+314656658
2669+314553610+314639737+314809019+314895334+314915672+314995012+315005450
2656+314838345+314805368+315036390+315130849+314918925+314814262+315130217
2642+315615548+315863609+315880062+316007942+316242498+316250502+316192741
2629+316446113+316795467+316951689+317112124+317465105+317887503+318150237
2615+318196835+318199737+318314136+318598075+318920256+319036317+318958147
2602+318827014+318635451+318344023+318039302+317847271+317797748+317754216
2588+317484601+317110790+316932030+316782033+316440824+316084824+315876387
2575+315733458+315607755+315548613+315460215+315265868+315064967+314904180
2561+314767032+314655278+314521874+314305995+314033805+313760468+313571199
2548+313631488+313887716+314025122+313989875+314008294+314107341+314185417
2534+314288980+314429428+314496247+314485574+314549046+314749971+315000512
2521+315266195+315490032+315531036+315479056+315587627+315845494+316054586
2507+316116256+316064533+316007895+315948682+315837419+315775960+315841819
2494+315921955+315862438+315707597+315670571+315799294+315859583+315738256
2480+315652176+315694935+315756511+315831311+315896210+315898176+315899042
2467+315922002+315942831+316010446+316087258+316100458+316150379+316304823
2453+316415899+316371244+316400990+316733142+317163403+317424780+317480552
2440+317426231+317416939+317537775+317763367+317963800+318018472+318051472
2426+318234211+318484752+318717506+319014387+319347287+319559422+319713936
2413+320006066+320386664+320674932+320852172+321056653+321278407+321355805
2399+321344501+321433202+321754564+322231938+322596714+322803092+322918802
2386+322934459+322865932+322589084+321903438+320769157+319216107+317388457
2372+315639444+314052552+312437457+310827980+309414371+308511722+308269863
2359+308432967+309102535+310747470+313427006+316665527+319134169+319369334
2345+317517015+315616695+314928287+315197130+315903536+316514500+316791675
2332+316900738+317379329+318372740+319353396+320009741+320620752+321543038
2318+322686188+323671946+324336014+324824060+325414757+326304838+327275501
2305+327881854+328076108+328202818+328424315+328624654+328811934+329077219
2291+329447894+329863434+330150040+330350871+330574872+330649765+330548144
2278+330493917+330534125+330547653+330486615+330425062+330520364+330806292
2264+331054492+331128917+331160536+331221762+331290476+331430245+331643059
2251+331741146+331695554+331766890+331960302+332035897+332051742+332171196
2237+332344574+332423141+332288217+332123920+332315436+332751876+333026055
2224+333156767+333268264+333308566+333315517+333370914+333521169+333709525
2210+333823995+333937715+334123544+334303498+334535760+334861499+335055355
2197+335112929+335291596+335574529+335819780+336025970+336220810+336400413
2183+336525718+336626239+336826321+337161421+337537314+337868693+338178681
2170+338540040+338890096+339155053+339451841+339814675+340150477+340447265
2156+340727529+340997168+341174360+341259902+341412942+341569937+341523807
2143+341336949+341177379+341004540+340768510+340464420+340041367+339563923
2129+339079856+338503928+337756330+336888669+336000951+335047796+334058317
2116+333162758+332338957+331515764+330645786+329683760+328743570+327982445
2102+327285003+326515616+325697455+324833211+323963912+323160683+322490460
2089+321912214+321281801+320639920+320122080+319668977+319082376+318374285
2075+317759786+317286204+316821796+316306602+315790096+315254493+314741335
2062+314417983+314207744+313908031+313539838+313198793+312876214+312535333
2048+312185793+311808893+311323258+310825429+310576198+310539828+310413282
2035+310061214+309626693+309314366+309115688+308900347+308623266+308267500
2021+307781349+307141294+306504608+306178893+306168549+306076758+305692977
2008+305241956+304948703+304735913+304387660+303852361+303325581+302956170
1994+302530450+301909960+301471320+301340421+301235547+301065422+300821926
1981+300546155+300322857+300130639+299880074+299529855+299142821+298700694
1967+298265425+298143653+298259854+298243659+298070656+297853138+297586003
1954+297310467+297112842+296892914+296405055+295683694+294919924+294450999
1940+294658968+295092763+295249337+295246083+295204073+295116050+295026085
1927+294903377+294524464+294058395+294010534+294060525+294081495+294581688
1913+295107952+295108561+294999147+295238056+295666866+296092844+296526733
1900+296891861+296974781+296802106+296857948+297138095+297128195+297269814
1886+297917476+298518283+299015948+299541581+300011746+300378722+300619831
1873+300635185+299867389+298476764+298539627+300240287+301656844+302211920
1859+302435944+302706261+303040636+303313785+303568422+303760897+303559107
1846+302640028+301802628+302723651+304354964+305233250+305670415+306116849
1832+305859123+304644941+304346211+305368830+306316673+307316357+308435658
1819+309208392+309704699+310026459+309897994+309512084+309759325+310657996
1805+311476906+311762670+311496050+311450014+312105283+312618418+312188695
1792+311912362+313567525+315688944+316763239+317193734+317637289+318163741
1778+318969030+319595745+319028500+317579949+318170294+320902139+323465054
1765+325021263+325444667+325724861+326873535+328242114+329608329+330413828
1751+329563838+328252950+329081877+331130720+332771722+333837663+334825971
1738+336052253+336489302+335686400+336870391+340265228+343759462+346394437
1724+347910883+348853601+349165250+347661980+346272665+349216528+353678826
1711+357010238+358714034+358867588+358885048+359992507+360522423+360290886
1697+362432947+367243827+372392240+375857172+377768984+378826545+378706810
1684+379323251+384554936+390578944+394952868+397798808+400444315+403248877
1670+405977515+410593462+416316095+420512780+423624310+427781863+432433290
1657+435662964+436521427+438067877+444213890+449326940+454624554+463985029
1643+473666000+481122503+486570325+490803661+497643934+508392741+517753169
1630+525431496+532785724+539652163+545874333+552856341+559581139+564588870
1616+569958382+577272214+584143333+589606883+594291684+599010608+603849175
1603+608849416+614216073+619585117+624304603+628913247+634177440+639633033
1589+645209109+651241660+657513072+663908293+670211161+675286904+678772900
1576+683821120+691605702+698057093+703225142+709788076+717152602+723820433
1562+728936244+730697591+732933760+743816111+755699034+766043792+775209123
1549+784144392+791795103+797294695+801796523+808992819+825449936+841857061
1535+853615287+865459359+879225377+891353014+901322417+909610749+915759384
1522+922757214+934337381+947785384+961178340+973257390+981918503+986196588
1508+986489420+991844842+1007035890+1019070659+1026070548+1029124879+1031329171
1495+1037047171+1043199176+1044203025+1041739227+1045289537+1052468983
1483+1057685572+1060546678+1061636280+1059650675+1053189923+1044730834
1472+1042043293+1046796856+1050340238+1047478196+1042535809+1041737261
1460+1040414742+1030974740+1021603639+1025241107+1030477449+1031941236
1449+1030446462+1029183857+1029858363+1031223759+1032480092+1031899108
1437+1026647787+1022269814+1024143641+1026926671+1028030970+1028769791
1425+1027746189+1025965885+1026420674+1026279219+1025615198+1028112978
1414+1030188174+1029612339+1028312756+1027943626+1027159120+1025643096
1402+1024686148+1021829068+1016833600+1013094466+1011313507+1011828491
1391+1011960677+1007747282+1001408512+999854666+1002702853+1006216746
1379+1009315544+1010555213+1008457737+1006274788+1007355403+1008845402
1368+1008937334+1008553974+1007212264+1005729566+1006311205+1007899595
1356+1007737639+1005531099+1004103636+1003743493+1002818282+1002125988
1344+1002239170+1001144888+998027179+996180314+997773853+1000193464+1001536298
1331+1002627398+1004133687+1005381219+1006303341+1007550874+1008930406
1319+1010504005+1013287877+1016692427+1019576001+1022373354+1025174171
1308+1027432948+1029360886+1031641663+1034585339+1037852272+1040591677
1296+1042535060+1044950927+1048180413+1050756738+1052553612+1054514502
1285+1056447307+1057792201+1058695132+1059506787+1059919916+1059912707
1273+1060396517+1061070088+1060328645+1058366632+1056743135+1055783754
1261+1055297978+1055335706+1055697814+1056565170+1057537096+1057904167
1250+1058658902+1060588057+1062596785+1063411997+1063102033+1063042212
1238+1063818760+1064831877+1065869522+1066664700+1066695126+1066053010
1227+1065628928+1066036534+1066649254+1066588871+1065678357+1064748372
1215+1064710925+1065187901+1065450682+1065421661+1065518180+1066244737
1204+1067020256+1066601790+1065652894+1065605243+1065781616+1065169552
1192+1063808556+1061834840+1059657509+1057696057+1055857711+1053743103
1180+1051645252+1051058089+1051989198+1052105564+1050600305+1049010417
1169+1048284140+1047633319+1046479777+1045785892+1045534063+1044808255
1157+1043528893+1041504250+1039221319+1037920144+1037509636+1036844959
1146+1035725587+1034215179+1031729288+1028983986+1027298234+1026954662
1134+1027105010+1025884907+1023375892+1021715979+1020991950+1019870518
1123+1018018317+1015827785+1014247446+1012952169+1010831944+1009000525
1111+1007655537+1004970243+1002181222+1002457297+1005562367+1009160515
1099+1012332053+1014732098+1016347263+1018312366+1021764847+1025783052
1088+1028338500+1029668416+1030611789+1031328703+1033120054+1036602305
1076+1039934583+1041423646+1042845586+1046369403+1049941807+1050705436
1065+1049653655+1050309719+1054400290+1059155070+1061200308+1061769028
1053+1062604742+1062800400+1062908059+1063604004+1064008708+1064628917
1042+1065472682+1065909216+1066638113+1067073617+1066082219+1064052708
1030+1062382590+1063227011+1066049921+1067264126+1066147001+1065339279
1018+1066807372+1069764996+1070935951+1068969912+1066185478+1064530901
1007+1064504313+1066124253+1068352605+1069569151+1068820032+1066770393
995+1065284232+1065047851+1065104957+1064913043+1064960319+1065302394
984+1065051782+1064684151+1065443286+1066067521+1064947587+1062754060
972+1061027960+1060086928+1059065104+1057936651+1056490745+1054816228
961+1054198547+1053848889+1052878742+1052911695+1054227661+1054379039
949+1052115955+1049538788+1048590640+1048494403+1048180600+1048276464
937+1049185199+1049672004+1049072578+1048567798+1048941889+1049455750
926+1049870658+1049879739+1048632674+1047784322+1048839754+1050023159
914+1049919620+1048989166+1047855283+1046867817+1046348995+1046230570
903+1045980895+1045585646+1045251435+1044582359+1043596484+1043189627
891+1043437149+1043650032+1043402604+1042116595+1040665166+1040822254
880+1041743627+1041598053+1040481958+1039484100+1039771035+1042090476
868+1045305733+1047355184+1048108890+1048691372+1050169107+1052907950
856+1055233570+1056247436+1057120222+1057760933+1057973911+1059045070
845+1061000999+1062158566+1061788407+1060979373+1061528808+1063892436
833+1064697444+1061306095+1057629215+1057046827+1057976345+1059702445
822+1061938661+1063531358+1065054310+1066046176+1065967258+1066810929
810+1068613233+1070563170+1073006653+1073741823+1071488194+1069266301
799+1068985452+1069450819+1069739720+1069437245+1068642348+1068815819
787+1069979472+1070379214+1068933027+1066297537+1064093618+1061847759
775+1058530367+1055726554+1054825309+1055184890+1055781975+1056534371
764+1057819818+1058426359+1057110299+1054749573+1051974688+1050249337
752+1051775659+1054821190+1056696514+1057023985+1055526777+1053576372
741+1053141242+1052422362+1049660115+1048502828+1051148991+1051823497
729+1047419031+1044135527+1044398402+1044216974+1044042285+1046197898
718+1048338157+1048784520+1048373918+1047177687+1046158298+1046042775
706+1046531172+1047788254+1048043640+1047633038+1048961455+1049500592
694+1047370537+1045222601+1044579644+1043940805+1042557528+1042075497
683+1042207684+1043443608+1047665523+1050875537+1050045627+1049053667
671+1047129475+1040095509+1035870974+1041672291+1047489805+1049201675
660+1049766463+1050914388+1053760515+1059169299+1061823606+1060915433
648+1061995673+1059107512+1048277681+1044751992+1054487447+1058960254
637+1050561548+1043285864+1041113214+1038265589+1033366265+1028805272
625+1026744399+1027977141+1027575994+1014722175+996180314+992908232+1005881974
611+1020702019+1029710449+1028253309+1018056793+1014401258+1021703996
600+1028210527
##END=
