##TITLE=Sample description
##JCAMP-DX=4.24
##DATA TYPE=INFRARED SPECTRUM
##DATE=24/8/2023
##SAMPLING PROCEDURE=Instrument type and / or accessory
##ORIGIN=Default
##XUNITS=1/CM
##YUNITS=ABSORBANCE
##RESOLUTION=4
##FIRSTX=4397.6552
##LASTX=599.8556
##DELTAX=-1.9287962
##MAXY=1.4227089
##MINY=0.58440065
##XFACTOR=1
##YFACTOR=1.3250009e-009
##NPOINTS=1970
##FIRSTY=0.71534091
##XYDATA=(X++(Y..Y))
4398+539879572+540469500+540209534+539553793+539326396+539673228+539037145
4384+537975374+538372048+539394593+539946779+540539766+540929828+540053033
4371+538910828+538994545+539158829+538420496+536964120+534884571+533948307
4357+535105805+536319130+536667446+536952154+537467093+537999935+538002589
4344+537707130+537798539+537508838+535972254+533994776+532944115+533411145
4330+534644083+535374858+535153849+534047902+532870925+532929765+533872597
4317+534036116+533201112+532899041+533773991+534623705+534648537+534722132
4303+535509722+535699692+534408994+533121040+532394313+531372038+530595334
4290+530417420+529796227+529152632+530229924+532604661+534149208+534174849
4276+533445109+532815324+532305199+531194934+529695282+528845208+528781509
4263+528968645+529247865+529611251+530140629+530423628+529858666+529394380
4249+529601489+529686375+529533922+529266174+528963652+528517315+527246770
4236+525715449+525518911+526298179+526342129+525883736+525892868+526257513
4222+527227921+528644531+529071300+527869716+526074246+525121562+525332855
4209+525913111+526562464+527161794+526997600+526116936+525064431+524086016
4195+523650790+523849667+524299783+524844457+524814722+523486686+521933683
4182+521563009+522089689+523043273+524401403+524911124+523672383+522666167
4168+523024199+522980025+522304896+522267154+522503728+522334226+521909661
4155+521393013+521212354+521439797+521374974+521299670+521606600+521423152
4141+520656525+520496649+521401740+522269583+521920142+520803309+520141766
4128+519973838+519816752+519852020+520256926+520885631+520835159+519585081
4114+518542743+518466494+518565190+518452864+518120652+517751059+517575034
4101+516909217+515391031+514513966+514963678+515192919+514758503+514840825
4087+515534577+516239396+516849927+517041382+516626489+516002552+515370788
4074+514923371+515219100+516156939+516537149+515541730+513863804+513099425
4060+513623406+513936229+513134603+511919659+511479440+512170178+513076708
4047+513331051+512955205+512632710+512610533+512498431+512332843+512235361
4033+511989700+511534681+511037826+510325855+509398767+509072403+509361295
4020+509587522+509985141+510585281+510817401+510812543+510597652+509848298
4006+509248833+509284371+509275914+508832815+508432183+508522826+508888146
3993+509337093+509473306+508537042+507124660+506660869+507436988+508216931
3979+508207979+508142032+507839735+506824073+505952046+505679125+506458213
3966+508379056+509357606+507970056+506197302+505984975+506653581+507070363
3952+507423718+508009012+508178514+508156832+507913690+506195638+504187930
3939+503624902+504303360+505350287+505081414+503404883+502651481+503071322
3925+503010548+502810906+504157430+505623793+504532377+501975587+500698204
3912+500951782+502264973+504525449+506573149+506669236+504717983+501311164
3898+498616001+499094548+500832708+499985873+498089906+499502648+501063614
3885+500135401+499626311+498268585+496933352+498674661+500707876+501448952
3871+500538419+498003041+497779243+498574705+497504612+496835511+497975600
3858+499794778+499759780+492978485+487749475+491439292+496263036+498733501
3844+499084921+498343799+495986696+491887609+490567175+492053737+492850009
3831+493780786+495520386+496206941+496321966+495180842+490228621+488841431
3817+491310006+491243789+491776227+494340754+495775493+494205126+493500352
3804+494949846+492387028+489055288+489900594+491200784+492351760+493823791
3790+495093482+495750302+494791185+493087258+492830531+492561253+491278472
3777+491628902+493784969+495889754+496095109+494695413+493751321+493513442
3763+494598876+495706982+494559289+493839356+496155163+498555947+496417559
3750+493973185+498157833+502726110+502825931+504574348+509408798+513209818
3736+512875267+509679156+509632777+513770506+518692812+520656165+518123936
3723+513552645+509617482+507879232+508845996+512188847+515930352+517921191
3709+520983788+526724004+533916997+541798975+549849421+558206346+566563362
3696+573711820+579053563+581844228+580299681+577733444+578187519+579585776
3682+580435040+580330856+578911726+572435607+564486152+564024430+563133870
3669+560038704+561474388+564867712+567636829+570422996+573210962+575216196
3655+579027022+586289697+593029965+593645490+591289511+592258704+593848010
3642+593874956+592854075+591918935+590938496+590085813+590548165+588437847
3628+580292214+576454217+576863622+576127809+572172402+566770875+564865642
3615+564594205+563449977+563435672+563650383+562314835+562266702+563803151
3601+563991591+562754470+562494279+562783440+562120952+561858152+561554910
3588+557387311+551917633+550365754+550695401+550170791+549108119+548772759
3574+549149370+550532557+553377069+555615233+553441037+549719325+548396148
3561+548184540+548037351+548372621+549329713+549918292+549912039+551539762
3547+554064388+553113369+550143530+549900208+551860502+553459210+553778646
3534+553179046+552558529+552964605+554939789+556699902+555642718+553181565
3520+552908644+554819680+556404623+557012590+557591272+558195010+558724254
3507+560041673+561903676+561976011+560176717+559202755+559272616+559119669
3493+559201271+560331869+561476142+561517303+561591348+562660722+563770852
3480+564053760+563322985+561784377+560978927+561792564+562577680+562216409
3466+561708263+561714291+561932691+562790413+564676347+566500878+567211680
3453+567255495+567471601+567155224+565945993+565775681+566418961+566112661
3439+566060748+567028008+567196160+566268847+566218015+567289773+567445105
3426+566963095+567653833+568600399+569031757+569438328+568620688+566721437
3412+566504117+568497475+569932169+569411427+568650917+568938459+569375124
3399+569048716+568567021+568412184+568289556+568510925+569188213+569421863
3385+568801256+567860043+567440291+568415963+569965502+570389302+570405047
3372+570667532+569788128+567844568+566633088+566648023+566701239+566076808
3358+565693089+566199346+566733043+566958101+567285005+567497377+567554058
3345+567151580+565545495+563770717+563861676+565525342+566691883+566912127
3331+566677532+566048828+565651838+565617740+565515400+564856241+563028381
3318+561044020+560094935+559816345+559894303+560237851+560551529+560457646
3304+559770461+559031364+558881520+559097311+559277789+559409459+559208693
3291+558572026+557698830+556859552+556588835+556615510+556037008+554699796
3277+553311976+552564691+552349035+552049843+551246553+549979741+548873659
3264+548364119+547789395+547011927+546737340+547118585+548234113+549171817
3250+548475726+546815794+545591448+544631251+544012803+544480418+545054646
3237+544969850+544975428+544770433+543841096+542703436+541236488+539550510
3223+538828417+538663143+538244022+538338039+538687885+538133360+537331554
3210+537439382+537875373+538050543+537825350+537239335+536513914+534901440
3196+533290632+533929728+535999380+536584854+535681024+535355785+535503424
3183+535009763+533567152+532914020+534366978+535342290+533939400+532670429
3169+534755870+537949372+537210140+533378801+532025260+534488977+535919262
3156+533961352+532449599+535349712+539582314+538057605+532109156+530924666
3142+537141494+540310929+534192123+528553033+532070784+539350103+538849694
3129+531540460+529028970+535883319+542083368+537192012+528634995+529367254
3115+539060942+542716661+533934496+526505918+530537619+539106646+537381982
3102+526464442+522065308+530064830+539195401+534825641+523311336+520822248
3088+530330330+538226208+531824718+521041413+519470416+526317073+529896948
3075+523699149+516790053+518130594+525922153+528274218+520770651+514310366
3061+515777989+522023607+522889740+515874976+510629861+511460231+514899080
3047+515454460+512362218+510013976+510158062+511112410+511014029+509710060
3034+508467226+508679778+510173222+510633504+509643843+509774838+516885285
3020+546105981+602361347+644767797+631321448+591870487+561472768+543882077
3007+532956486+524925024+519497721+516652040+514468937+511380069+508941768
2993+509075777+512949357+517381600+515889911+510849385+509317660+513501543
2980+519915673+520278294+514275368+510400844+512328479+518312782+521559006
2966+517461178+512115792+512328614+520215181+528057212+523978233+514172038
2953+510907955+516566704+525498353+525908658+517366890+511256676+513021872
2939+520751622+524824753+519131546+511773639+510446413+516784834+524780264
2926+522606652+512796814+507700463+511339268+518731318+519450802+511970582
2912+506104454+506700950+511636436+514753824+511824697+507310806+506074179
2899+508868623+513345131+513381974+508314593+504615239+505197519+508324714
2885+510022118+507657413+504373041+503714872+505648265+508180809+508571590
2872+506792404+505530450+506102475+507754175+508757421+507974194+506523576
2858+506183672+507244274+508368934+507549045+504976285+503020399+502794037
2845+503569571+503962647+503442175+502899571+502839516+502984457+503166779
2831+503177665+502962324+502738481+502720082+502963359+503009063+502585263
2818+502084045+501827228+501829972+501877340+501884988+501921830+501868388
2804+501645940+501458534+501641801+502047652+502277658+502330920+502333574
2791+502437354+502575232+502508250+502481664+502669069+502734702+502640459
2777+502687693+502963629+503180455+503049189+502946445+503137674+503202497
2764+503231962+503673531+504251673+504545288+504716859+504800440+504469893
2750+503936646+503754863+504085365+504669895+505132022+505430944+505630451
2737+505600267+505481102+505484206+505591495+505992172+506433516+506200496
2723+505684253+505632296+505863831+506094377+506408910+506973152+507502441
2710+507434199+506955203+506786736+507055384+507235367+507277338+507538698
2696+507863532+508052602+508154582+508236994+508329618+508274017+508177345
2683+508442124+508944827+509116893+508977666+509069344+509377444+509619596
2669+509914920+510226259+510297064+510250730+510269714+510256353+510293825
2656+510567782+510995405+511450425+511923483+512280616+512407427+512644316
2642+513018273+513115170+513301002+513849724+514161557+514117427+514204247
2629+514567543+515054906+515579787+515952844+516182760+516654469+517283804
2615+517763789+518151872+518493080+518842295+519232402+519605684+520012795
2602+520382074+520600609+520828726+521116042+521279247+521519509+522275926
2588+523232883+523640084+523658303+524000231+524729296+525431191+525826651
2575+526004205+526267590+526759406+527411863+527922573+528025093+527970617
2561+528127658+528584567+529248990+529835004+530297356+530851656+531394845
2548+531964710+532731698+533201292+533117756+533007184+533012042+533029361
2534+533212358+533559325+533962882+534316416+534706882+535233067+535552188
2521+535519169+535370720+535213544+535113408+535111788+535252455+535727673
2507+536373337+536593941+536366994+536272031+536643964+537312615+537730432
2494+537667859+537503665+537455082+537419769+537465383+537589990+537500426
2480+537308792+537477529+537885584+538082482+538074295+538091794+538114601
2467+537973124+537782030+537819727+537888103+537848022+538003174+538161295
2453+537988644+537632726+537190302+536749723+536489442+536419851+536383773
2440+536188315+535900683+535825379+535880081+535571936+534920154+534422489
2426+534176199+533964681+533676914+533320816+532932104+532565075+532340872
2413+532095346+531559669+531108563+531034474+530865601+530303789+529563297
2399+528934097+528664100+529165093+531326963+536352869+545488568+559903075
2386+580242371+605577477+632962711+659446454+684229869+708446973+733672811
2372+760108150+786180239+809829457+829655253+844272641+852930649+856658163
2359+854898366+844198147+824129974+799241250+775643765+762427917+766364970
2345+781733961+789023806+781955825+771437794+762326881+756814647+758876112
2332+765595013+767413381+763474978+761681532+763211549+761432587+752312048
2318+737855390+724131666+718241156+719890157+720018228+711590902+694963196
2305+675716937+660554380+650480347+641699532+632147050+621442063+609242553
2291+596683930+585399001+575626095+567101692+560021025+554410320+550019237
2278+546612958+543725396+540974362+538494541+536488003+534956142+533808629
2264+532783970+531681847+530592230+529713411+529141251+528642012+527959326
2251+527350414+527204439+527354508+527220094+526771327+526491838+526474384
2237+526635024+526881675+527129360+527546997+528035305+528364637+528655328
2224+529064957+529642290+530265642+530684403+530985440+531693318+532835612
2210+533737959+534341067+535097033+535937706+536686790+537430610+538223779
2197+538986897+539623295+540256048+541064602+542007344+543017518+544062781
2183+544999630+545772241+546624474+547784447+549076495+550078617+550784561
2170+551820646+553373560+554847121+555900750+556584156+557134318+557875799
2156+558718181+559362945+559818819+560271140+560636100+560766420+560792421
2143+560656838+560257104+559856741+559586249+559248459+558592674+557500403
2129+556153024+554836099+553554038+552223258+550823202+549117971+547163974
2116+545383664+543562822+541410848+539431300+537920672+536446077+534740980
2102+533011817+531339334+529606617+527797786+526064304+524632489+523393163
2089+521952081+520167452+518370632+517090865+516264003+515302457+514195161
2075+513384538+512823355+512319617+512076925+512192626+512311610+512127668
2062+511942736+511933514+511904499+512253220+513232670+514244509+515074250
2048+516134222+517450607+518850753+520426113+521923381+523119342+524366540
2035+525773479+527059274+528111689+529006882+529709182+530135321+530252866
2021+530184624+530098929+529520562+528150645+526708844+525481889+524044091
2008+522306425+520430117+518477380+516662116+515069256+513362945+511662932
1994+510366836+508898448+506784036+504573268+502479684+500532346+498906512
1981+497524090+496306402+495207788+494109758+492978530+492040556+491414730
1967+490703884+489716651+488849978+488288435+487982270+487846012+487572010
1954+487184963+487122344+487351406+487617760+488149118+488916870+489229198
1940+489210980+489615436+490435326+491359309+492185047+492935210+493725275
1927+494622763+495749402+496885668+497694807+498193371+498495308+498860358
1913+499361576+499806924+500047816+500048176+499967429+500003147+500140215
1900+500240890+500147142+499641156+498954016+498523693+497952164+497172130
1886+496939110+496995476+496971094+497250674+497558593+497407670+497412798
1873+498197060+499009617+498693060+498225805+499169987+500777332+501868343
1859+502163847+502263893+502590751+502910637+503398630+504401427+505220416
1846+504933595+503725938+502778517+502236992+501590788+500967437+500439183
1832+499071785+496063395+493407773+492382304+491037490+489120425+487651048
1819+486494989+484878647+482704001+480373169+477722091+475196790+473243198
1805+471973733+471390957+469652977+466154479+463617662+462305911+460375981
1792+457777130+456194077+455885663+455812338+454902974+453279569+451664757
1778+450312610+449139546+447291263+444696011+444491961+446151443+446445913
1765+445879916+445420623+445211895+445525932+445525573+445453012+446238444
1751+446613930+445316394+444499968+445146577+445407533+444337079+443235811
1738+443491728+443827898+442660143+442198196+443005355+443324881+443469191
1724+443724074+443855474+443573690+442209577+441056802+442024870+443229873
1711+443829158+443736220+442884436+442491676+443217502+442920649+441329453
1697+441718885+443708914+446021573+448127032+449814315+450850086+450217287
1684+449222767+452081179+455487099+457049774+457258503+457734800+459248082
1670+461083454+463604841+466585072+468728048+470333819+472908648+476087935
1657+478579947+478903701+477144713+479276669+482544261+484538158+487523652
1643+491771773+495288400+497262100+497244511+497092957+501090740+506257447
1630+510112133+513224618+516357886+519728582+524259297+528826494+531570195
1616+534266753+539614838+545434676+550215910+554425390+558811389+563362032
1603+568004578+572873667+578043118+583331734+588727862+594499028+600620893
1589+607057560+613777721+620419473+626458297+631796036+636247397+639118765
1576+641761566+646468710+651148144+655369679+661053349+667425374+673159292
1562+677950738+681346266+686621161+697242072+708231406+718354607+727461966
1549+736127081+744146622+750803894+754112242+755588727+766360111+780719378
1535+791073665+799380882+807539471+814826527+820508713+824610229+827718756
1522+832016855+839372918+847419405+855597786+864291152+871686441+875793266
1508+874863974+874028250+881893179+890000575+895195217+897472788+898784179
1495+902254562+906443438+909017817+910245897+912985640+916955531+920353938
1481+922305910+922677213+922015850+920611160+917690040+915680488+918744839
1468+922514099+923241500+923180501+924366295+924402733+921125065+919412411
1454+924710968+930613758+933671811+935109609+938624527+943985882+948577281
1441+951807266+953538274+953784429+955708151+959923839+963273752+966716154
1427+971700089+975691663+978336758+980374021+980261470+980543073+984774055
1414+989624116+992607315+994550020+996646573+997884999+997427056+996522865
1400+995287408+994335534+994253842+993397425+993873002+996361730+996121243
1387+991541270+988896715+990522998+993639712+996376036+997446309+997167945
1373+997187378+997953106+999096975+1000319746+1000926678+1000433917+1000054427
1360+1001026904+1001698614+1000332072+998221034+997401955+997933943+998758870
1346+998208259+996818054+994991679+991256337+988408002+989454614+992146313
1333+993537327+992413342+990504915+989513454+989923174+991626381+992711589
1319+992913480+994685424+998260441+1002308786+1006787723+1012051552+1018944453
1306+1026494580+1030612021+1030831996+1031234698+1033614384+1036963668
1294+1040087309+1042462226+1045134402+1048069108+1049664082+1051129051
1283+1053318901+1054488861+1055103980+1056175784+1056472322+1055681313
1271+1055216802+1055114777+1053732400+1051442683+1050776821+1051965764
1260+1052519435+1051974941+1052276158+1053703160+1054934658+1055680143
1248+1056694006+1058444717+1060571230+1061818563+1061590041+1061013248
1236+1061002812+1061310237+1061466423+1061418380+1061253016+1061012799
1225+1061972140+1064528166+1065662138+1064461678+1064080209+1065038201
1213+1065498934+1065899656+1067198452+1068948443+1070825651+1072597864
1202+1072961970+1071564928+1070668295+1071892056+1073741823+1073678845
1190+1071764929+1070701313+1071707709+1073174477+1073479473+1073109070
1178+1073158373+1073116717+1072177438+1070485567+1068840030+1068122076
1167+1067816271+1067176499+1066874563+1067403402+1067545193+1065714230
1155+1062960632+1060875685+1058635722+1055939165+1053867084+1052871754
1144+1052071658+1050528056+1049081171+1047938922+1045978403+1043373344
1132+1040002828+1034908771+1028927347+1023691679+1019622191+1016323290
1121+1012782012+1008121607+1003131014+998778124+994408139+989552051+984348051
1107+979214048+975530888+972944453+969662286+965661805+961499379+957747573
1094+955201894+953893382+953245154+952381809+950561732+947749654+944730827
1080+942843273+942892576+943371482+941881412+939426242+938580442+938453225
1067+937066620+935235926+934188325+933882069+933801097+933265600+932451019
1053+931440035+929825627+928095070+926479492+925336344+926000046+927850443
1040+928063850+926046740+924289462+924567916+926157313+926988448+926395551
1026+925768646+925533466+925316190+925898291+927474822+928458365+927854852
1013+927310898+928627058+930367962+930690771+931132520+932732083+933545045
999+932912921+932224297+932327311+933028981+933551882+933609913+932935503
986+931263066+929730800+928630027+926813008+924911599+923599578+921630961
972+919214028+917611407+916020121+913651682+911528678+910394706+909792722
959+909169236+909119842+910419718+911681176+911688374+912244743+914583583
945+917089315+918425808+919362118+921006845+922973392+924388158+926048540
932+928993412+932206933+934838082+937496043+939972266+941544388+942548714
918+943428433+944246883+945175635+945848335+946225846+946986355+947726082
905+947759911+946692066+944477834+942700762+942449298+942554832+942066299
891+941766881+941671424+940805740+940319727+940906866+940756347+940141498
878+940750769+941820233+942787492+944889983+948421095+952430213+956210809
864+960415880+966143860+972163431+976501746+978954847+980009646+980950454
851+982492526+983286415+982715650+981877587+981735525+982871387+985835872
837+989125597+989905810+988399635+986882484+987499403+991365650+995943374
824+998040466+999509034+1003997868+1009372269+1010472862+1007887957+1006109625
810+1007320521+1011251366+1015006231+1014864169+1013807661+1017635221
799+1024406214+1028193019+1028462027+1029593569+1032437496+1034006919
787+1034660456+1036013683+1037350985+1039241598+1043298490+1047445081
775+1049123907+1049836103+1050163681+1049337853+1049318600+1051393470
764+1052833337+1051405796+1048150350+1044805654+1044124047+1047163387
752+1050870299+1053638922+1056431206+1058433021+1058046693+1055811318
741+1052874363+1050302413+1048608023+1046913723+1045404759+1045036695
729+1046616824+1050079919+1052150831+1049711496+1044542944+1041059516
718+1040623705+1040771345+1039571965+1037686660+1035523980+1033015998
706+1032853334+1035612240+1036984270+1036379587+1036287189+1035111381
694+1031948334+1029777107+1029375304+1028450960+1025580942+1023474853
683+1026649147+1033801520+1039060850+1039126707+1035304275+1032419952
671+1030709548+1025037258+1021046584+1026691972+1032909565+1033522255
660+1030229112+1031610139+1036963847+1033852982+1024300321+1017761898
648+1016638992+1024775988+1036430420+1035832844+1026291879+1023560054
637+1024746028+1015680640+1000488978+996854582+1007732490+1018246022+1017311782
623+1011404313+1013514811+1022797295+1022492479+1007479946+996210402+1005570709
609+1023431938+1023936935+1011250646+1001753046+1001814315+1016912139
##END=
