##TITLE=Sample description
##JCAMP-DX=4.24
##DATA TYPE=INFRARED SPECTRUM
##DATE=24/8/2023
##SAMPLING PROCEDURE=Instrument type and / or accessory
##ORIGIN=Default
##XUNITS=1/CM
##YUNITS=ABSORBANCE
##RESOLUTION=4
##FIRSTX=4397.6552
##LASTX=599.8556
##DELTAX=-1.9287962
##MAXY=1.5202365
##MINY=0.58511412
##XFACTOR=1
##YFACTOR=1.4158306e-009
##NPOINTS=1970
##FIRSTY=0.82865345
##XYDATA=(X++(Y..Y))
4398+585277275+583995622+584052497+585007338+585705671+586004109+586649061
4384+587336323+587003406+586215403+585692494+584675095+582894951+581735047
4371+581875362+582116293+582473711+583979287+585480275+585679191+585294030
4357+584376573+583172044+583252621+584318519+585636672+586925734+586911336
4344+586044776+585745539+585221284+583428678+581434757+580702913+581560127
4330+582887036+583053663+582583841+582539595+582951784+584106004+584909669
4317+583812366+582107789+581867868+582393008+581975515+581445071+581883277
4303+581887529+580939844+580339769+580277211+580291356+580254183+580478274
4290+581091779+581295536+581010570+580829925+580988342+581353296+581130636
4276+580109952+579061989+578301813+578003543+578768309+579963238+580469012
4263+580468718+579873189+578552174+577621582+578284847+580080904+580925952
4249+580573375+580625367+580699461+579716582+578139522+576677350+575767723
4236+575674685+576273665+577053712+577663344+578326988+578753153+578571665
4222+578442633+578758963+578690384+577568327+576704209+577010266+576936678
4209+575834997+574842814+574762827+575708448+576772703+576954654+576581449
4195+576175323+575779468+575602401+576022420+577086339+577685951+577171168
4182+576818717+577094758+576600393+574931053+573936176+574784128+576000402
4168+575881979+574637541+573529040+573137269+573192376+572909641+571838566
4155+571097797+571730288+573210268+574164604+573927799+573193850+572153127
4141+571202370+571868919+573496371+573676175+572233157+570609283+569845150
4128+570373488+571190119+571268802+571747632+573063428+573190271+571711217
4114+570853414+571407812+572168367+572451733+572265952+571533855+570766269
4101+570395716+569862873+569555300+570132852+570685229+570877157+571063781
4087+570729517+570313792+571268423+572700958+572732953+571866267+571010484
4074+570269505+569748912+569385305+569271007+569312685+569359836+569462388
4060+569192072+568662007+568569601+568239631+567264877+567123173+568115734
4047+568689708+568123775+567086126+566295260+566193002+567142917+568246619
4033+568250787+567629915+567364441+567543066+567649070+567241386+566583341
4020+566576479+567571103+568311999+567656816+566448246+565897932+565753491
4006+565605893+565667694+565412576+564910549+565677882+567259278+567410286
3993+566196412+565233993+564435549+563131962+562286031+562464656+562606907
3979+562862025+564147383+565598189+566145851+566176541+566102448+565736189
3966+565158131+564489393+564056366+564267112+564401407+564494698+565428742
3952+566179657+565227426+563247355+562405760+563087548+563820697+563788829
3939+563453344+563393522+563026463+561400527+560056315+560693689+561610094
3925+561363101+561480472+562658141+562996447+561725697+560784412+561645078
3912+563361779+564677448+564844201+562609139+558375902+555833477+556158016
3898+558166209+561090006+563047555+561389960+559020897+560650791+562062150
3885+560228035+558960359+557810517+557317330+559061059+559975696+558727216
3871+555948996+554226064+555974760+556850624+555917253+557133654+559415404
3858+561023869+560423500+552853435+547921066+552737580+558260636+560959627
3844+561275493+560052063+557027102+552876211+551559279+553461130+555825689
3831+558004129+559716915+560098161+560154236+558634683+553927879+553233039
3817+555107148+555181620+556953261+559860850+560733809+558574103+557156345
3804+556949051+553682191+552246414+554979968+557476969+559535343+561518782
3790+562737961+563216960+562847586+562246921+562122646+560569287+558502199
3777+559658692+561900280+562117131+560291604+558635020+558411434+558617254
3763+559466091+559737543+557516163+556181507+557826514+558117290+552623324
3750+548797182+553327972+556818587+554419129+554344488+557177142+557787615
3736+553961137+549964285+551324999+555844844+559256187+559351835+557758693
3723+557337075+558015706+559416877+561230616+561743294+558060078+552200989
3709+552072757+555742291+558887696+559723103+558493484+558311702+559525366
3696+560543018+560833752+559147403+554205520+551880702+554989735+558006444
3682+558599657+558314186+558043407+554890592+551722874+552442804+549790670
3669+545764601+547519150+550684173+551804378+551685491+550602417+547018217
3655+544051521+544397151+542763679+535870436+533023847+536229117+538950125
3642+538855782+537059051+535135182+532838318+530233123+528457905+523921389
3628+515660443+513969548+516290240+516830661+513339204+507732582+505157867
3615+503525152+500613690+498479958+496741197+494981724+494499188+493871623
3601+491717600+489461951+487716454+485388900+483368246+482551910+480239133
3588+474568942+471189762+472739416+474704542+474136041+472110714+470354818
3574+469121537+468738144+468419499+465642667+460771425+458803900+459296497
3561+459250736+458771442+458889402+458864354+457254162+454703443+453264678
3547+452574764+451174897+449566348+448874455+449120186+449710283+450033812
3534+449489307+447594739+445013624+443727046+443890936+443246952+441758047
3520+441009784+440566906+439953654+439893747+440380661+440104536+438530549
3507+437230456+436543279+435446439+434497282+434307837+434473370+434082988
3493+432434487+430517564+429279609+428633394+429079135+430215085+430385879
3480+429842427+429416051+428346365+426636357+425534760+425338665+425131834
3466+424264895+423087183+422557918+423002186+423105791+422039683+420915226
3453+420520467+420586646+420588540+420026060+419427542+419372603+419413565
3439+419304277+418898530+417985619+417097126+416937361+417476056+417936111
3426+417645083+416463372+414625089+413265638+413307442+414177959+415007809
3412+415489755+415885272+416321036+416518100+416486610+416401487+416359935
3399+416327856+416356736+416351894+416012747+416089788+417285560+418657809
3385+419267525+419566426+420216051+420976522+421338192+421378523+421840009
3372+423041254+424208230+424763217+425180836+426074045+427433286+428981508
3358+430436061+431498127+431994008+432290467+433106761+434253278+435034882
3345+435692422+436938039+438627502+439805172+440190712+440380914+440696401
3331+440855998+440616624+440507126+441015383+441487520+441362529+441230845
3318+441431445+441621689+441926147+442322380+442443919+442679966+443078094
3304+443013641+442831648+443110426+443533897+443763040+443917795+444250543
3291+444985881+446112822+447054317+447511425+448149768+449247576+450454420
3277+451669768+452469728+452429102+452265338+452803149+453767126+454600007
3264+455114200+455151247+454793534+454372168+453989870+453894011+454409805
3250+455347638+456254149+456707342+456817430+457146895+457684537+458200120
3237+458767274+459466660+460388327+461040689+460635531+460005145+460542366
3223+461640595+462029714+461662781+461003558+460549397+460920286+462028409
3210+462954917+463124365+462713144+462427084+462812329+463416530+463772011
3196+464229161+464964373+465723413+466536886+467239766+467179313+466607612
3183+466495587+467155906+468214436+468866040+469000250+469530947+470550114
3169+471244996+471457047+471661815+472209646+472972095+473502076+473782790
3156+473949880+474134315+474652508+474870958+474408335+474494090+475475664
3142+476395394+476889254+477030959+477045862+477338153+477837991+478252032
3129+478268745+477613437+476987934+477153255+477549152+477402817+476833558
3115+476444524+476691517+477642737+478647718+479119771+479424271+479529265
3102+479199548+479260464+479919941+480299124+480211348+480022830+479757398
3088+479305468+479124444+479831281+480714049+480974724+481162569+481321575
3075+480970051+480648922+480996489+481743236+482417405+482607607+482274480
3061+482143890+482327187+482403175+482439044+482394503+482402923+482602050
3047+482596619+482437654+482461188+482551068+482601166+482540922+482288962
3034+482173611+482443380+482841044+483101719+483411313+483947398+484292860
3020+484321951+484510805+484737802+484337527+483675272+483799969+484411074
3007+484853068+485292747+485491411+485339308+485592448+486671185+488149902
2993+489572081+490739563+491390535+491806723+492586560+493418430+493956536
2980+494571809+495185397+495527954+495790440+495806016+495321587+494762937
2966+494454942+494021789+493275547+492705320+492822144+493686851+494593489
2953+494653775+494259773+494494557+495185018+495462238+495452766+495628444
2939+495732807+495382924+495021128+495272289+495817973+496112621+495964308
2926+495541552+495598765+496203049+496254494+495472510+494697599+494116216
2912+493639659+493608127+493883831+494223610+494751444+495449988+495981358
2899+496067365+496141501+496619700+496958090+496751133+496535292+496700867
2885+497061274+497481124+497761165+497724834+497607336+497631038+497668379
2872+497579383+497600643+497867338+497921393+497464074+496992569+497206051
2858+497884135+498177184+497977173+497539557+497017575+496732357+496474839
2845+496159519+496418805+497157554+497715993+498179079+498932099+499792470
2831+500309779+500292392+500096507+500276563+500888089+501730063+502424692
2818+502715468+503003633+503433798+503693042+503837230+504228748+504978863
2804+505596493+505659810+505397998+505131387+505263324+506018785+506686387
2791+506783130+506814114+507119372+507652931+508301041+508754444+508854386
2777+508907347+509012004+509032127+509460145+510483522+511192128+511169395
2764+511023059+511021039+511077325+511371132+511841543+512223799+512432524
2750+512619653+513136036+513847883+514316989+514650663+515022942+515358090
2737+515783456+516138516+516075242+516025229+516483305+517107671+517410487
2723+517675077+518249935+518630171+518686372+518942206+519447307+520080724
2710+520613988+520629607+520493460+520826460+521410833+521976681+522406467
2696+522503884+522543120+522791081+523095413+523344300+523715695+524317665
2683+524921613+525342305+525489524+525444521+525423640+525504048+525789141
2669+526149632+526189121+525959683+526088757+526688201+527003731+526959822
2656+527191954+527650325+528033255+528474786+529079240+529630564+529905006
2642+530033744+530222683+530423409+530575217+530709807+531015528+531714366
2629+532606017+533243139+533409640+533382275+533719991+534389277+534799992
2615+534875180+535134255+535781102+536408120+536794166+537355005+538252802
2602+538944947+539107237+539106437+539337180+539783890+540340814+540946909
2588+541447084+541741270+541923810+542149459+542416322+542699352+543069737
2575+543466517+543754304+543921983+544114290+544438534+544855522+545374220
2561+545853724+545996692+545979094+546303718+546859589+547100015+547112518
2548+547360943+547819734+548156271+548258235+548365460+548690504+549088547
2534+549395279+549737499+550224623+550658956+550922662+551280459+551857548
2521+552471937+552948536+553110069+553138654+553520068+554254607+554943552
2507+555355067+555565098+555608965+555486794+555551121+555857852+556032604
2494+556223522+556546924+556544314+556364426+556511645+556756449+556948672
2480+557203327+557399044+557618378+557684305+557191371+556655917+556743399
2467+557153187+557343095+557259066+557131170+557035058+556983361+557083977
2453+557084945+556668547+556123200+555844591+555796725+555757026+555591788
2440+555278279+555048210+555238117+555553352+555266912+554452176+553847007
2426+553589405+553376975+553255604+553230387+552995224+552595581+552324676
2413+552009946+551503077+550974233+550424592+549889770+549465752+549130983
2399+548840712+548496976+548136990+547908899+547755407+547515740+547093068
2386+546208659+544711123+543034374+541239327+538721992+535511797+532174421
2372+528890553+525589130+522006950+518273805+515056285+512542191+511183329
2359+511194359+511906880+513500863+516686810+521171333+524565079+524321706
2345+520859592+517527311+516166470+515949703+516101006+516714384+517732373
2332+518303948+518394586+519083995+520452540+521466908+521811486+522375272
2318+523680669+525165491+526451312+527592481+528493394+529266074+530194645
2305+531147297+531752129+532029980+532339869+532747300+532999766+533168035
2291+533549955+534017671+534362291+534720088+535113838+535328373+535278696
2278+535120573+535124909+535329425+535515501+535723932+536009109+536163779
2264+536261154+536533196+536922651+537307265+537672303+537964215+538286775
2251+538827070+539377427+539691146+539829567+540009202+540430442+540993386
2237+541536501+542064082+542580002+543091038+543526044+543873822+544254899
2224+544621579+544963337+545361633+545855408+546637518+547495995+547900564
2210+548063402+548505607+549190847+549765916+550182314+550763445+551592747
2197+552378730+552955567+553429304+553945686+554551066+555205785+555914012
2183+556655791+557385488+558213191+559045861+559700075+560387842+561126548
2170+561668822+562200444+562911449+563562338+564114083+564912570+565894690
2156+566490387+566699281+566839554+566840522+567061709+567745645+568318482
2143+568674805+569091456+569308517+569170939+569054872+569025024+568599364
2129+567638419+566577363+565747724+565054779+564325671+563527648+562671487
2116+561675810+560455116+559082950+557561334+556109434+555065765+554078424
2102+552836848+551560373+550331512+549171398+547978910+546569108+545121670
2089+543805454+542530284+541288624+540254175+539479390+538556460+537220626
2075+535868878+534692682+533448034+532242495+531278855+530288820+529091617
2062+527863387+526574871+525169532+523924421+523026876+522248218+521325541
2048+520338452+519348964+518211036+517074792+516323119+515758996+514854505
2035+513666943+512481064+511372689+510452917+509776938+509179304+508379765
2021+507317867+506204104+505141069+504123459+503279422+502597760+501819902
2008+500992536+500353519+499796469+499080328+498186067+497313066+496585558
1994+495821383+494793374+493846784+493446847+493266917+492760301+491870082
1981+491001038+490459059+490009360+489396951+488760628+488189349+487444075
1967+486488982+485750149+485416517+485243449+485004834+484483357+483559206
1954+482635981+482134838+481820529+481288991+480423357+479267200+478356058
1940+478377276+478740293+478604272+478016321+477272647+476573304+476024547
1927+475536707+474753881+473793399+473378559+473126598+472606721+472422286
1913+472324449+471791648+471213548+470970260+470854614+470672495+470418345
1900+470121592+469739630+469177654+468672849+468212583+467344340+466697577
1886+466862351+467035040+466923268+466857342+466789142+466589341+466368365
1873+466011200+464759479+462830095+462562389+464026077+465117486+465238393
1859+464975529+464842918+464892763+464893310+464769456+464474260+463679436
1846+461972628+460278870+460598568+461726814+461968797+461817957+461928761
1832+461363081+459468386+458261247+458599300+458950866+459355814+459900571
1819+460013522+459786863+459431465+458700884+457587121+456930676+457002538
1805+457079747+456449824+454933470+453816802+454006078+454068931+452515447
1792+450555920+451095457+452920226+453800720+453433578+452398160+451361142
1778+451046286+450890015+449277172+446120273+445200038+447220102+449222106
1765+449998954+449288328+448278927+448386110+448676044+449018938+449076066
1751+447200526+444353138+443873844+445133101+446052200+445930282+445314925
1738+445285414+444700326+442206188+441777075+444030662+446055483+447098226
1724+447102647+446592831+445366285+441626109+437542408+438946610+442575814
1711+444782755+444770041+442718360+440874816+440976989+439885159+436335312
1697+435297410+437465283+440678215+442721813+442713519+441482595+438583888
1684+434798330+436169443+439377659+440750246+439862300+438277030+437367109
1670+436188850+436661998+439177522+440037430+438808400+438684378+439644102
1657+439444680+435985976+429411631+429463960+431455271+431137005+432923085
1643+436903265+439267571+439448469+437701583+436529344+440677120+446122883
1630+449712599+452142031+454669512+457415779+461208494+465315392+467886529
1616+470763765+476332878+481813078+485763368+489003370+492395052+495754782
1603+499125542+502801265+506415987+509412278+512164819+515548713+519454716
1589+523333397+526962222+530395961+533778087+536959319+539328803+540392637
1576+542407313+547243361+551218321+553740413+557923383+563539604+568384324
1562+571434586+570785551+569364803+577152055+586859681+594895526+601159688
1549+606693943+611496438+614458040+614873891+614834781+622945561+634462422
1535+642751238+650304968+658966483+666104110+670676535+674149763+677704621
1522+682411257+689380193+697328557+706129587+714632054+720799431+723556308
1508+722432356+725577130+738053505+747974824+753841617+757723202+763031850
1495+770628563+776610790+779199356+781935772+789915836+799365313+806468376
1481+811862568+816863559+821129084+823506146+824599702+829202270+837561391
1468+844410346+848450139+852689563+858384425+862916351+864928585+869188638
1454+878569074+887682772+894791476+900823969+907433720+913943191+920097349
1441+926182045+929904581+931634754+937384933+946067540+952954469+958795497
1427+964912271+969252733+972380415+975365719+976062873+977679632+983935333
1414+990239952+994204388+997238189+999569784+999451403+997919346+998198208
1400+999118907+998011206+995032806+993616605+996577829+999259348+997395638
1387+993741891+993637991+997312283+1001437873+1003559816+1003615639+1002674143
1373+1002902992+1004600917+1005446091+1005629136+1006887972+1008112287
1362+1007891016+1007657789+1007951891+1007831909+1006746436+1004850563
1350+1003152132+1002897519+1003755912+1004125623+1002879501+1000304659
1339+998665925+999096005+1000647175+1002552899+1003565121+1003332820+1003127462
1325+1004365922+1007643391+1011683521+1014375733+1015620171+1016945439
1314+1018431860+1020269722+1023704892+1028084590+1032220031+1035712961
1302+1038003973+1039904393+1042688633+1045858161+1048359330+1050421578
1290+1053399135+1057283668+1060067908+1060980777+1060814234+1060864837
1279+1062779318+1065337404+1065693559+1064365598+1063509815+1063276504
1267+1062700004+1062040738+1061499180+1060251459+1058568436+1057301770
1256+1056746657+1056717693+1057401123+1058864643+1059945991+1060751255
1244+1061399491+1060926470+1060484265+1060720859+1060937668+1061677847
1233+1062701941+1062904099+1062564446+1062095803+1061137300+1060352580
1221+1060640788+1061593734+1062976929+1064776060+1065788282+1065563474
1209+1066203122+1068227986+1069741098+1070282993+1070328038+1071091962
1198+1072883767+1073741823+1073237144+1072114624+1070429833+1068202222
1186+1066485268+1066498655+1067431647+1068890957+1070833223+1071618448
1175+1070965834+1069897537+1068922699+1068816274+1069610508+1069221347
1163+1066646590+1064355410+1063921625+1063870769+1063291491+1062187831
1151+1060629421+1059470107+1057975434+1055199108+1053021763+1052569959
1140+1052508327+1051787092+1050111058+1047131732+1044137166+1042524364
1128+1040526780+1036796750+1033183923+1031181455+1029531438+1027020755
1117+1024131942+1020565928+1015472657+1008845815+1002848937+1000690284
1105+1001559538+1001334983+999143661+998081005+998595031+997729818+994814566
1092+991813349+989578834+986859762+983665143+981769185+981033216+980139039
1078+979010204+978001687+976604263+974213898+970937439+967046760+963511142
1065+961424140+960406951+959189035+957094035+955006023+953700121+952041179
1051+949389297+946924249+944713477+941511533+938394124+937391669+937488328
1038+937141013+937369441+938451883+937807183+934574592+931626755+930842709
1024+930925391+929561898+926463264+923788143+922863824+923085516+922968902
1011+921764711+920994641+921472125+922094091+922617883+922715216+922087187
997+921842257+921954997+921592864+921403841+921780456+921517339+920196534
984+919012634+918129571+916599704+914486938+912860496+912128315+911287688
970+909642050+907867589+906501065+904842796+902120778+899030648+896710251
957+895327814+895062255+895675296+895945402+896497989+898192294+899120234
943+898993601+900340086+903532600+906337301+908062843+909957790+912683261
930+916839498+921735242+924860313+926101889+927287388+929015456+930995106
916+933162096+935852708+938640317+940244025+940113351+938724935+937405141
903+937563769+938343353+937850377+936138980+934041790+932531541+932090852
889+931420809+930020774+929226960+929364034+929376242+929246494+929795209
876+930767268+931416683+932237692+934391378+936454467+936778628+938107600
862+942142256+946611035+950730394+955366304+960145687+964444134+967387591
849+968342811+969175861+970643674+971775540+974683046+980437772+985776394
835+988426255+989373813+989726263+988379778+985592338+985523717+989971446
822+995885052+1000757978+1003279860+1003130072+1003144975+1005562957+1009287851
808+1012413428+1014919312+1018363239+1021245486+1020608700+1020052492
797+1024539626+1031170678+1034794199+1035382991+1036794898+1041528814
785+1046194109+1045565491+1041031796+1039284952+1042052438+1045510173
773+1048329356+1050627946+1051775051+1051132709+1048804314+1048267050
762+1051652207+1055211485+1055724332+1054666223+1053613334+1053832247
750+1057144069+1060577387+1059109994+1054357302+1051046744+1050458877
739+1052308105+1054496480+1052422782+1046878887+1043893835+1045104089
727+1046707629+1044967184+1040170036+1036160723+1035462726+1035872347
716+1035426269+1036449857+1039617617+1042011939+1043311273+1043570854
704+1039969141+1034468355+1031489955+1030619017+1030411470+1031700364
692+1036518646+1041993247+1041321688+1035912930+1031335452+1029901823
681+1033135846+1037867910+1037787417+1033836874+1030481691+1027778953
669+1029779821+1043769392+1054568469+1052659882+1046732383+1042228495
658+1041094355+1043700266+1043027528+1033934459+1023957906+1021190589
646+1022185887+1015044429+997672227+987740299+1003050590+1038734554+1065759570
633+1065348771+1058665684+1061772401+1062512244+1055544486+1053587569
621+1062785465+1065990440+1038113514+1013123633+1028743603+1050830777
609+1043730577+1023135634+1006042546+1014029514+1046730194+1065831727
##END=
