##TITLE=Sample description
##JCAMP-DX=4.24
##DATA TYPE=INFRARED SPECTRUM
##DATE=24/8/2023
##SAMPLING PROCEDURE=Instrument type and / or accessory
##ORIGIN=Default
##XUNITS=1/CM
##YUNITS=ABSORBANCE
##RESOLUTION=4
##FIRSTX=4397.6552
##LASTX=599.8556
##DELTAX=-1.9287962
##MAXY=1.3438156
##MINY=0.28998789
##XFACTOR=1
##YFACTOR=1.2515258e-009
##NPOINTS=1970
##FIRSTY=0.55439341
##XYDATA=(X++(Y..Y))
4398+442974026+441537972+441065574+441985653+442915685+442872679+442462861
4384+442272216+441649416+440799347+440589413+440642087+440606892+440667900
4371+440500211+440089916+439811259+439804448+440117396+440108633+439457163
4357+439033771+439274852+439667382+439739535+439713674+439563368+438502984
4344+437000254+437015447+438451787+438889228+437853133+436851234+436891287
4330+437778837+438168462+437664012+437004969+436314017+435402749+434724228
4317+435546102+437712495+438567850+436957582+435247014+435287972+435843095
4303+435190720+434088093+434393230+435742510+436435891+436123039+435385652
4290+434746469+434406470+434450857+434900014+435168622+434966689+434660981
4276+434410994+434235922+433665558+432676423+432490873+433162013+433643413
4263+433778002+433706897+433363946+432972463+433121531+433628649+433305938
4249+432222456+431896840+432438247+432629035+432377144+431937559+431433014
4236+431499880+431613467+430916419+429989483+429465458+429503797+430242708
4222+430976999+430474740+429359872+429295102+429959002+429999532+429353681
4209+428821941+428446128+428055741+428178282+428622009+428814988+428814036
4195+428480037+428233099+428866995+429637053+429850368+430081781+429982767
4182+429121268+428658586+429051497+429316390+428887379+427628397+425690035
4168+424414146+424946124+426382321+427252155+427351882+427110087+426581062
4155+425934307+425655126+425534300+425265453+425076570+424785483+424277080
4141+423950701+424173446+424733523+424608887+423601606+422808783+423017478
4128+423968275+424574739+424456009+424400525+424434816+423723194+422724533
4114+422608279+423055388+423310042+423208409+423023669+423309661+423518785
4101+423065104+422816593+423104919+423147591+422870506+422550795+421895943
4087+421052113+420514468+420479082+420883804+421248855+420977198+419940199
4074+419026788+419010166+419367120+419639015+419946295+420176183+420028687
4060+419522379+419122134+419084081+419149995+419154091+419084462+419027550
4047+419218957+419527094+419755697+419686735+419114990+418434564+417726228
4033+417002034+416698230+416707231+416886018+417355606+417879535+417973643
4020+417615927+417346271+417114287+416425955+415588649+415272034+415476300
4006+415787153+416087908+416386711+416427574+416083765+415798678+415852733
3993+415755243+415369191+415107869+414892077+414964183+415611795+415834635
3979+415349902+415221313+415527403+415416911+414818544+414520217+414797684
3966+415108964+414819258+413967903+413464310+413607758+414007527+414457684
3952+414503643+413642668+412634482+412763928+412993293+412341489+412272670
3939+412934856+413424019+413429210+412244286+410872573+411389216+412475460
3925+411974487+411085460+411311634+411262484+410337167+410121851+411127227
3912+412407308+413653336+414585797+413496505+410287017+408174489+407456247
3898+408013753+410546386+412518990+411291440+409613639+410541052+410704646
3885+408822768+408088525+408255405+409776328+412044782+411931528+410683976
3871+409663789+407882163+407984606+408595832+407706234+407884782+409478716
3858+411066981+410691453+405027962+401800805+405424826+409528389+411763219
3844+411513138+409191438+406096966+403687492+404050542+405727201+406535740
3831+407587075+409417279+410628969+411602817+411384120+408042042+406925079
3817+407479822+406982040+409065564+412402450+413399396+410755034+408268930
3804+407895403+406515118+406675807+408584212+409082042+409922967+411825895
3790+413228040+413580088+412815650+411912954+412086978+411732596+410416940
3777+410787800+412497844+413408064+412306485+410566103+410296256+410948584
3763+411994299+412238285+410904673+410474900+411292488+410221151+405404013
3750+402919720+406133828+408098669+406603416+407726856+411109320+412306866
3736+409152385+405678623+406214744+408550493+410151427+410253822+409866816
3723+409889581+410059795+410606727+411699592+412795790+412047020+409146622
3709+408794574+411621962+414959087+416787671+417481814+419481945+422111401
3696+424081719+425446907+425217732+422520029+421432261+424204308+427611966
3682+429288958+429064356+427683928+423639945+420377116+421570422+420796888
3669+418632734+419960249+421944855+422792114+423612322+425032469+426741465
3655+430404730+435795756+437305534+429354776+421106787+419503806+418614826
3642+415457250+411142753+407522114+404433166+401398892+398685615+393166858
3628+384517409+381752625+382519564+381624060+376676905+369918739+367158051
3615+365988438+363175623+360304944+357385519+354458308+353424428+352528138
3601+349506676+345951736+343353427+340714970+338494379+337827050+336593095
3588+332684844+330034194+330269989+330086249+328369156+325916082+323321488
3574+321244322+320494242+320202131+317138496+311503128+309723693+310940598
3561+310867612+309547455+308830094+308349171+306901830+305226885+304351408
3547+303563419+302437955+301790009+301737264+301496612+300717791+299801403
3534+299286761+298727708+297230336+295554225+294792001+294157652+293376188
3520+293141394+293163063+292973990+292371336+291309309+290038396+288883286
3507+288377526+288089486+287386890+286837624+286295883+285391902+284707332
3493+284303157+283635970+282705414+281893422+281464910+281143128+280456320
3480+280014307+280167185+280057479+279393174+278736036+278583467+278801354
3466+278747014+277852558+276322919+275204170+275057960+275568982+275963274
3453+275756722+275194812+274254349+273195704+272881375+273179773+273488602
3439+273488411+272929644+271987086+270979233+270027769+269329388+268973958
3426+268803863+268446576+267693806+267039312+266963754+267412101+268086694
3412+268395855+268110149+267948008+268532207+269117025+268752047+268066357
3399+267868664+268091194+268561092+268749689+268363708+268155608+268608551
3385+269310195+270067442+271115919+272310821+273156842+273411448+273622239
3372+274557820+275986706+277183585+278307406+280008068+281826627+283026649
3358+284275177+286155602+288173236+289915427+291302141+292424724+293428576
3345+294304434+295207201+296384791+297572383+298485484+299267925+299573776
3331+299217608+298975909+299229015+299569609+299499719+299013271+298613811
3318+298521418+298674272+298785573+298446336+298085024+298358872+298882515
3304+298921187+298381160+298042614+298561137+299226110+299407349+299592874
3291+300051604+300630088+301306871+302191755+303553608+305320136+306646842
3277+307183749+307744493+308674097+309621512+310560879+311273882+311443477
3264+311528345+312002053+312722819+313450109+313952559+314245885+314545736
3250+314932646+315476744+316195462+317227461+318310824+318671730+318676874
3237+319317867+320240660+320699366+320916705+321146999+321428656+321956777
3223+322330637+322082246+321786253+321940584+322207073+322449297+322618201
3210+322575957+322736955+323058618+322871283+322230909+321752653+321932321
3196+322680328+323435337+323838511+323843369+324058422+325027365+326217695
3183+327030544+327346707+327293580+327267767+327485226+327889353+328377562
3169+328844912+329247944+329577846+329694648+329513147+329352029+329597563
3156+330166546+330526119+330606654+330975086+331452294+331324324+330886645
3142+330939200+331362639+331745001+332171678+332371015+332146770+332106384
3129+332411997+332573995+332516440+332495270+332452550+332234425+332032397
3115+332039541+332187538+332343607+332361728+332186704+331860112+331445150
3102+331280294+331843538+332864559+333419731+333361127+333380773+333779327
3088+334338595+334737626+334753842+334476542+334434060+335010782+335585004
3075+335515994+335418124+335933528+336474959+336291791+335760433+335572788
3061+335390168+334992732+335131013+335839182+336456695+336804147+336707991
3047+336253881+336159511+336554256+336712159+336394091+336052925+335868971
3034+335558191+334974825+334549386+334729005+335287225+335566073+335442270
3020+335510113+335910477+336222258+336244594+336103170+335993369+335926860
3007+335904500+335956579+336113148+336497081+337093449+337791188+338402700
2993+338699384+338834259+339175592+339964033+341147029+342183790+342882053
2980+343607795+344201686+344386616+344347444+344193328+343947151+343796393
2966+343933245+344068620+343689687+342997664+342578297+342484998+342533957
2953+342711482+342905675+343147613+343655754+344287246+344575404+344328251
2939+343990943+343904193+343933911+344089147+344315702+344436171+344347992
2926+343931125+343419174+342960683+342292781+341544512+341123788+341215515
2912+341834838+342591561+342848691+342756512+343134421+343948652+344469294
2899+344634341+344794006+344947812+344845941+344544352+344527088+344910569
2885+345350534+345716704+346019626+346251682+346323406+346156836+346229131
2872+346864647+347437273+347507854+347289348+346897270+346561439+346723247
2858+347181286+347268417+347036385+346868124+346426587+345618000+345322412
2845+345826624+346437755+347003190+347811253+348651606+349237568+349588164
2831+349730302+349760949+349963548+350436447+350982498+351476566+351859785
2818+352177900+352672134+353225948+353488056+353609906+353890587+354176031
2804+354329576+354595827+354986928+355215412+355301376+355468661+355784347
2791+356214049+356736430+357219187+357537802+357831390+358189368+358518318
2777+358755136+358916277+359078918+359225843+359399605+359776633+360260271
2764+360602556+360786415+361021137+361534541+362222683+362799072+363224773
2750+363559533+363904485+364313184+364612035+364895026+365315750+365604195
2737+365834750+366387231+367060585+367540508+368061603+368838329+369537092
2723+369844967+370093406+370691440+371415087+371875151+372113969+372406104
2710+372838116+373272366+373622200+373952174+374333821+374643007+374787312
2696+374900875+374937999+374841986+374844367+375045467+375291715+375374583
2683+375313670+375402801+375604758+375599019+375491385+375553608+375751325
2669+375984714+376217032+376360409+376375006+376483045+376941346+377635870
2656+378175539+378364612+378451505+378690919+379059779+379435521+379770782
2642+380182219+380613302+380947515+381366120+381883310+382197829+382301462
2629+382667584+383422521+384140762+384768539+385436916+385939319+386246885
2615+386604743+387145008+387792787+388379296+388866720+389391078+390036452
2602+390710497+391331868+391935141+392558656+393124781+393480330+393845642
2588+394525140+395156607+395470698+395873706+396554394+397300306+398055100
2575+398655992+398763959+398631918+398820682+399306129+399821867+400334508
2561+400811479+401234108+401714983+402244913+402652684+402910909+403142894
2548+403392309+403652011+403843895+403926716+404218898+404883275+405563131
2534+406137400+406771582+407263888+407428815+407554023+407849206+408302983
2521+408885587+409391180+409746181+410130186+410506761+410795420+411133038
2507+411461988+411667540+411844469+411949245+412019016+412263193+412665200
2494+413093164+413418209+413533701+413497743+413453975+413383823+413215657
2480+413110500+413303145+413676720+413772876+413537272+413349580+413260568
2467+413113452+412885564+412634625+412377161+412123317+411980106+411791033
2453+411291631+410689358+410336405+410225723+410080751+409684172+409065516
2440+408529966+408349608+408304840+407994464+407383952+406711812+406159355
2426+405752585+405490263+405241658+404805503+404248760+403677015+403075170
2413+402534382+402124135+401737891+401243585+400606450+399896686+399282840
2399+398796916+398255390+397660260+397106899+396480908+395751594+394991489
2386+394047479+392753444+391167798+389149188+386353352+382960315+379538345
2372+376273659+373131752+370230258+367474499+364758198+362583661+361464746
2359+361156418+361514895+363063465+365964792+369490847+371904083+371457165
2345+368444727+365640843+364607677+364508949+364512878+364478088+364665566
2332+365154347+365855396+366637003+367232109+367530197+368097608+369490276
2318+371118475+372232033+372942440+373547928+374224854+375146742+376194458
2305+377057314+377666326+378176896+378756928+379436736+380008695+380326310
2291+380553603+380912176+381471086+382065477+382428480+382574952+382721615
2278+382918785+383153793+383482982+383893538+384362840+384858123+385265774
2264+385659352+386266578+386954291+387457503+387950547+388571918+389147711
2251+389685285+390373594+391289743+392292000+393162738+393791325+394282916
2237+394914217+395748212+396668624+397542720+398251508+398981323+399891305
2224+400807573+401690599+402657589+403672538+404666865+405674765+406740911
2210+407892688+409103093+410216245+411256721+412566568+414161930+415614224
2197+416842869+418184529+419711691+421191704+422633902+424248980+425962597
2183+427613395+429336679+431225081+433154965+435102708+437108221+439173457
2170+441256362+443286641+445380356+447620902+449853447+452008695+454105697
2156+456087731+457941652+459674937+461213577+462525281+463596142+464427446
2143+465215697+466025999+466513161+466358950+465635422+464675957+463728636
2129+462730976+461448085+459739708+457597128+455110787+452484903+449868687
2116+447153028+444217864+441263887+438405923+435343884+431926606+428475846
2102+425258405+422118021+418842524+415438771+412035543+408792859+405696435
2089+402672401+399767288+396968475+394324422+391852154+389317663+386637200
2075+383988503+381501067+379254044+377197428+375058468+372784918+370645244
2062+368675021+366705822+364765437+362912540+361048712+359106946+357145748
2048+355326451+353684035+352002304+350185507+348351327+346622280+344995009
2035+343400886+341914944+340554757+339137277+337644453+336201874+334722909
2021+333156504+331628509+330150187+328760282+327502609+326263153+324970857
2008+323652676+322420054+321313784+320181390+318959603+317735078+316527103
1994+315191943+313647565+312223774+311094286+310026854+309030812+308139833
1981+307218111+306220998+305168830+304148404+303227421+302302532+301177949
1967+299933492+298977242+298364587+297754360+296980040+296059556+295053466
1954+294130482+293333325+292519118+291655618+290736397+289619101+288563885
1940+288147827+288002831+287522694+286801143+286048563+285329250+284668779
1927+283981518+283009099+281876824+281130769+280499135+279861095+279770345
1913+279782775+279244630+278480429+278087566+277994529+277868226+277645505
1900+277342392+276857111+276164016+275612441+275234032+274629639+274237109
1886+274392940+274456758+274228251+273933496+273639360+273385159+273233614
1873+272974960+271892216+270111090+269586447+270488833+271195358+271289371
1859+271140517+270934418+270689432+270385628+270028460+269570612+268892804
1846+267718786+266473782+266621254+267417602+267474705+267077031+266824116
1832+266082895+264404498+263362926+263506494+263637797+263897952+264310818
1819+264239094+263717142+263080149+262166738+261023796+260469315+260581497
1805+260618359+260026540+258675616+257496169+257225036+257040154+255937931
1792+254522785+254720645+255722830+255896449+255250361+254490614+253903604
1778+253668191+253352053+251982079+249618064+248874867+250091962+251248740
1765+251694706+251243430+250651587+250837231+251043355+251170491+250973417
1751+249327000+247240000+247098147+247997222+248402040+248031060+247386543
1738+247234999+246611794+244484002+244087805+245898673+247603097+248527033
1724+248537963+248121120+247245524+244558370+241613704+242672063+245271396
1711+246831896+246885641+245429180+243833199+243474959+242412623+240029486
1697+239588878+241204409+243446931+244762088+244598327+243701871+241544599
1684+238433720+239198206+241630492+242804200+242194117+240977212+240251279
1670+239101668+238842609+240220251+240620163+239545325+239305625+239859320
1657+239543705+236954826+232094326+231707487+232659713+231967999+233063411
1643+236101781+238112009+238508039+237417675+236967566+240709484+245276778
1630+248530915+251116270+253817235+257065538+261617092+266075632+269096951
1616+272779409+278540938+283881194+287983233+291652451+295723962+299961758
1603+304142594+308377556+312450186+316186366+319940928+324048945+328321983
1589+332652316+337146075+341837362+346548032+351003334+354643429+357180134
1576+360749624+366298242+370971003+374916282+379955021+385549194+390441341
1562+393671475+394383025+396662290+405320240+414114923+421780785+428309204
1549+434321744+439306761+442715562+444812040+447860173+458018234+468676887
1535+475786958+482840449+491283656+498530888+504412695+510139005+515437304
1522+521404646+529272869+537584724+546690068+555722737+562775514+567040052
1508+569460241+577634267+590714491+600100636+606894806+612733512+620369656
1495+629757325+637015511+642150978+648585385+658198466+668084299+676827879
1481+685068296+692699629+699048691+704018515+709270522+718259613+729334561
1468+739067182+747523866+756443900+765054463+771269649+776251952+786335526
1454+799785276+811127023+820816639+830471773+841761227+853311193+863542597
1441+872950364+881966649+891551583+902005970+912029060+920744066+928474650
1427+936167992+943574627+951378174+958577162+962164226+964797540+971113263
1414+977894384+982749051+987053070+991201544+994050220+995363925+996429976
1400+996997006+996575615+996558279+997407824+1000479103+1004040449+1003782032
1387+999951221+998369670+1000549303+1003132229+1004962099+1006049200+1006051772
1373+1007344426+1010875958+1013650053+1014344053+1013785976+1011477279
1362+1009130671+1009730848+1011199336+1011827993+1011612440+1010654309
1350+1009816670+1009699035+1009794095+1009678937+1008625649+1005200512
1339+1001562013+1001293691+1002743128+1003402837+1003321969+1003688495
1327+1005537416+1008694325+1011526333+1013129124+1014106306+1015750817
1315+1018893534+1023164787+1028107180+1032751246+1036212578+1038877134
1304+1041477491+1044441707+1047613285+1050533972+1053048793+1055962526
1292+1058967891+1060184629+1060438283+1061928678+1064483886+1066546931
1281+1067249504+1067216832+1067335230+1067409335+1067105007+1066915172
1269+1066327091+1064517414+1062147756+1059804577+1058288941+1058568788
1258+1060434187+1062337401+1062392266+1060937971+1060056135+1060642311
1246+1061943347+1063297914+1064071925+1063549281+1062974155+1063704731
1234+1064770401+1064864700+1063795506+1062515330+1062365500+1063164848
1223+1063962957+1064776212+1065676621+1066516546+1067074718+1067524208
1211+1068799430+1070740459+1072392019+1073431018+1073695436+1073165553
1200+1072333916+1072027302+1072471839+1072841985+1072803313+1073151171
1188+1073741823+1073574467+1072282289+1070452705+1069808617+1070339356
1177+1070080749+1069679075+1070504331+1070724838+1069113474+1067183780
1165+1065745869+1064457787+1062735932+1060694509+1059474056+1058445343
1153+1055851844+1052732654+1051129958+1050197354+1048894318+1047230185
1142+1044246918+1040518121+1037416171+1034379755+1030454454+1025430241
1130+1019790705+1014606375+1010371603+1005732014+1000091621+994805753+990231792
1117+985876051+980667908+973443107+965403813+958265881+951822711+945579855
1103+939483590+933231113+927056456+921861552+917525433+912242042+905018574
1090+897258271+890474388+884851140+879994664+875120281+869325676+862914225
1076+856645365+850631301+845286377+840527058+835872514+831706704+828042297
1063+824551151+821401004+818471936+815517054+813078053+811565464+810220994
1049+808329877+806265689+804933221+804607938+804633465+804422103+803908128
1036+803285471+802547560+801589524+800950484+801309104+802202179+802700724
1022+803220510+804065387+804506115+805072669+806480862+808090416+809301916
1009+810217184+811306095+812508070+813622223+815193200+817409219+819477407
995+820484402+820356671+819774972+819028488+817856994+816321546+814677891
982+812932414+811001292+808824898+806264737+802829504+798766517+795303995
968+792327824+789268404+786752154+784721066+782965349+782380459+783110036
955+784464555+786299902+788804484+791898908+795362907+799320736+803665904
941+807871148+812009239+816456040+821234410+826186709+830876495+834986297
928+838766911+842114037+844737731+846963846+848651315+849607066+850607679
914+851718022+851834705+850824852+849584015+848238687+846545884+844251283
901+840912539+837099635+833998066+831800813+829614227+827059876+824700981
887+822277029+819318433+816752462+815437424+814907828+814487294+814307745
874+814623789+815110713+816069320+818588047+822555353+826998534+831749091
860+836963807+842443606+847575739+851425125+854055009+856980744+861088832
847+865706227+869970717+873905733+878093641+883240348+889956222+896874314
833+901003833+901608487+900664167+900482142+902089696+904718724+907505487
820+911157512+916347367+921434065+924631456+926892624+929325243+931560407
806+933896823+936626245+939954797+944635058+950193440+956563743+963572514
793+969309111+974404096+980635237+986914384+992480005+998361479+1004764548
779+1010825189+1016563596+1023239559+1030061638+1033537925+1033992749
768+1035650596+1039301287+1042856823+1045268582+1046346826+1046051833
756+1045854663+1047814265+1049588794+1047641479+1044431229+1043519009
745+1043666743+1041912884+1038845796+1038505845+1040855977+1040482783
733+1037173090+1036416129+1038601763+1040009765+1039333863+1036166667
721+1032110015+1030101739+1028804609+1027663786+1028470944+1029200282
710+1028193954+1027719984+1029484321+1030609904+1027017697+1021912520
698+1020307919+1019997114+1018671028+1018400610+1019730887+1021939952
687+1024283131+1025448148+1025745046+1025349658+1023969850+1022245232
675+1021871372+1025320512+1028965297+1028323971+1029964292+1033729951
664+1032345761+1029778552+1029960386+1033620603+1039569229+1040176074
652+1033083291+1027613874+1028299016+1029540805+1027956873+1025835820
640+1025347182+1026303027+1025972220+1025364994+1027161812+1027601968
629+1024061958+1019397032+1016958316+1015365241+1008858824+1000109147+999284177
615+1006411250+1014238991+1021879849+1026328745+1025935834+1030411972
604+1039062016+1039724012+1038626814
##END=
