##TITLE=Sample description
##JCAMP-DX=4.24
##DATA TYPE=INFRARED SPECTRUM
##DATE=24/8/2023
##SAMPLING PROCEDURE=Instrument type and / or accessory
##ORIGIN=Default
##XUNITS=1/CM
##YUNITS=ABSORBANCE
##RESOLUTION=4
##FIRSTX=4397.6552
##LASTX=599.8556
##DELTAX=-1.9287962
##MAXY=1.5198703
##MINY=0.52195889
##XFACTOR=1
##YFACTOR=1.4154895e-009
##NPOINTS=1970
##FIRSTY=0.76944375
##XYDATA=(X++(Y..Y))
4398+543588453+543362708+542869192+542056828+541405362+540846409+540223829
4384+540736631+542690650+544342833+544511816+543442799+542363843+542266151
4371+542914122+543542133+542734107+540563479+539242482+539274738+539522548
4357+539730356+539824553+539082132+537983764+537761177+538148326+538524568
4344+538427381+537557875+537013155+537569245+538131735+538029410+537708288
4330+537527894+538141294+539236756+539196542+538015641+537334909+537573835
4317+537872639+538068824+538069456+537499849+536848720+536844720+537538842
4303+538031432+537334277+536325181+536949908+538605207+538939214+538032400
4290+537347078+537063854+536803453+536303916+535190726+533865518+533453315
4276+534164617+535546041+536941444+537602090+537246859+535777092+533873098
4263+532972095+533409858+534196031+534557325+534365687+533846738+533493444
4249+533692577+534219527+534366908+534194346+534009488+533576694+533055681
4236+532598757+532082966+531554921+531382948+531284877+530458743+529781928
4222+529990535+530338354+530330480+529810646+529700405+530614504+530745841
4209+529540939+529109533+529940046+530832165+531349809+531385096+530938953
4195+530096018+529288622+529535464+530694553+531101703+530275654+529782728
4182+530225586+530588523+530706091+530810100+530261800+529275274+528823572
4168+528452340+527616353+526886396+526782556+527539252+528575593+529097448
4155+529335700+529189793+528190508+527481268+528158168+528915791+528551170
4141+527940634+527989311+528096689+527655430+527393050+527693034+528137366
4128+528365301+527476931+525332327+523670880+523469263+523784026+524206504
4114+525280238+526453096+526564685+525869720+525226381+524595001+524098369
4101+523950146+524191893+525233834+526217834+526294640+526154671+525861593
4087+525214843+524319061+523596263+524056639+525050450+524954231+524178586
4074+523914269+524141362+524444630+524681745+524416838+523495454+522913678
4060+523179511+523255602+522844578+522915657+523431154+523668816+523704946
4047+523235179+521786340+520999452+522215640+523616854+523681575+523389129
4033+523273625+522625191+521179004+519393504+518279809+518204013+518262839
4020+518291179+518903062+520034738+521085691+521283897+520701658+520257873
4006+519521515+517672178+516323937+517035029+518399904+518873965+518923443
3993+519090110+518948371+518362258+517875396+517782167+518269914+519307602
3979+519850891+519406811+518995028+519042653+518880618+518102194+517193864
3966+517205907+518029725+518413884+518025387+517481888+516910640+516285534
3952+516406891+517103414+517190285+517163461+516925883+515973381+515820568
3939+516580169+517139880+517207844+516529723+515626951+515427271+515506394
3925+515297197+515232602+515499698+515132256+514150067+514540332+516025217
3912+516780102+517343982+517679379+515416660+511031148+508673137+508997838
3898+510945246+513853579+515338800+513282330+511398085+513086229+514173438
3885+512850040+511892527+510620040+510626819+513028245+514286710+513402509
3871+510859723+508177642+508219161+508085086+507705054+510252935+513157309
3858+514263551+512185352+504199955+501062803+506818789+513048331+516330422
3844+515476117+511953838+508317022+505316850+504423595+505366791+506654564
3831+508681601+510802203+511726660+512559531+511598018+506732297+505398289
3817+506651111+506996404+510177181+514266751+514865834+511103449+508684338
3804+508807253+506575905+505864813+508208760+509938718+511908276+513998181
3790+514824188+514511066+513428406+512967651+513645519+512579870+510233733
3777+510535948+512432321+513741443+513816228+513120085+512490178+512007442
3763+512205396+511870799+510179160+509845995+511082437+510811930+506209853
3750+502370957+504642814+505965032+503747116+505033416+508559738+509259881
3736+505460989+501884263+503128158+506865235+509849700+510316687+509346078
3723+509155662+509564413+510461795+512372189+514168090+512135832+506157890
3709+504854453+508231078+511191036+511355934+509825698+510309571+512274160
3696+513253612+512513928+509519398+504726442+503647487+507469160+511520411
3682+513069428+512007316+509541674+504560533+501000777+502654770+502484272
3669+500874155+502864136+505076198+505089378+504331671+503508527+500677802
3655+498009406+498614847+497842697+491198130+487015162+489189242+491791191
3642+492219775+491030663+489096182+486402857+483601944+481476795+476707209
3628+469239456+468257435+470780008+471154987+467310028+461795199+459352633
3615+457710472+455058498+452736110+449857338+447252442+447021938+446984251
3601+444937803+442181862+439914258+437431394+435727754+435732891+434556496
3588+429874159+426389272+426614176+427257431+426236249+423884680+421894236
3574+421224874+421341894+420649288+416591973+410452586+408695931+410298215
3561+411171132+410681363+409989262+408968291+406890808+405135164+404858803
3547+404759974+404128594+403712011+403348275+402421711+401553258+401632465
3534+402069134+401398003+399069046+396585045+395429830+394818873+394077925
3520+393851380+394107612+394074473+393484275+392412141+390761264+389112365
3507+388583562+388598174+388219783+388180159+388320255+387639355+386451801
3493+385345307+384228495+383117832+382506454+382480852+382282814+381692363
3480+381326100+381041276+380302603+379314097+378326181+377440758+377149997
3466+377399113+377180483+376144606+375031500+374582620+374916290+375303902
3453+375176018+374663974+373513981+371981429+371177276+370802086+370274968
3439+370193319+370620555+370852996+370630998+370411780+370545812+370540801
3426+369953509+369346089+369501091+369891777+369438686+368747974+369037304
3412+369957299+370411948+370237744+369938981+369795643+369931233+370315813
3399+370553813+370517810+370407442+370272062+370159421+370028631+370061939
3385+370645989+371696268+372817248+373490190+373755644+374419069+375707221
3372+377247521+378789758+379946404+380412801+380755357+381791066+383354231
3358+384945946+386496815+387876596+389033874+390191994+391245136+391919720
3345+392596620+393737812+394933746+395729140+396290999+396748259+397209687
3331+397880271+398449414+398552413+398603743+399234534+400147412+400220513
3318+399285233+398541970+398766789+399350460+399431688+399273990+399239587
3304+399179287+399472617+399984535+399977292+399882589+400132000+400230451
3291+400467566+401726536+403610360+404778460+405205107+406027787+406983785
3277+407160642+407048717+407552423+408842512+410316322+411362095+412063629
3264+412341337+411902899+411429680+411727558+412441177+413006825+413277627
3250+413443999+413971328+414722256+415124985+415260912+415704276+416305675
3237+416323992+416146461+416673622+417607386+418465565+419344292+419845051
3223+419727104+419739863+419936132+419424089+418475671+418391074+419264159
3210+419922994+419881307+419764160+419995969+420343114+420772372+421330272
3196+421830231+422190893+422358613+422765974+423568611+424030882+424283745
3183+424762144+424880891+424377353+424075601+424904472+426517283+427708459
3169+428288171+428789477+429134349+429077333+428872684+428854409+428894918
3156+428939006+429454924+430317608+430651068+430382161+430329440+430727495
3142+431004277+430962842+431051565+431448104+431733771+431783543+431978339
3129+432096412+431788344+431633046+432129552+432871089+433092581+432554978
3115+432065546+432319421+432670735+432567021+432526428+432661471+432509795
3102+432163702+432238530+432940063+433640418+433737900+433234783+432661892
3088+432760342+433639575+434674653+435090731+434826414+434645935+434748133
3075+434746491+434758113+434964404+434983816+434551906+434135449+434354247
3061+435034726+435469584+435511314+435560118+435784643+435790033+435353364
3047+435223416+435753777+436186319+436134694+436074099+436422508+436525716
3034+435778790+435140672+435225605+435466637+435771715+436099238+436161643
3020+436280727+436695963+437137642+437440321+437670909+437848271+437797825
3007+437678699+437938721+438532330+439078987+439381708+439714999+440431860
2993+441250920+441830506+442364699+443148597+443979784+444527662+445069182
2980+445665612+446029559+446298087+446389379+446225534+446260358+446492335
2966+446575164+446668266+446697700+446222333+445662917+445664559+445932540
2953+445883399+445622324+445835774+446539961+447205070+447628559+447599293
2939+447397844+447455449+447394518+447285582+447664267+448218462+448462525
2926+448586325+448705029+448221072+446807183+445303602+444519788+444293327
2912+444571161+445386473+445993767+445903864+445491408+445392957+445977976
2899+446803983+447179636+447089944+446859314+446789413+447116599+447643549
2885+448147845+448714757+449058575+449140814+449538953+450116182+450190125
2872+449645699+449066113+449083041+449505056+449878519+450308408+450749667
2858+450889132+450714675+450354770+449998866+449551881+448838430+448435870
2845+448633276+449001855+449435113+449908290+450277206+450584011+451070874
2831+451754090+452166335+452311190+452756533+453611722+454345216+454405895
2818+454206046+454581489+455375072+455970365+456267401+456438405+456550752
2804+456701965+457102209+457791531+458575009+459161922+459345432+459265131
2791+459236707+459311493+459435082+459828337+460574927+461225845+461429821
2777+461443675+461687358+462217467+462702645+462814907+462628828+462518250
2764+462863417+463711615+464581837+465087480+465312889+465360430+465416519
2750+465796088+466299457+466548784+466769013+467068618+467040868+466880349
2737+467356853+468344390+468935809+469029501+469299082+469959349+470632796
2723+470947054+470948865+471000069+471298621+471700592+472101300+472725437
2710+473443688+473794497+473955732+474156507+474266706+474513169+475152634
2696+475946512+476411141+476448281+476527699+476889582+477339389+477859897
2683+478409164+478698789+478798840+478962770+479125099+479201400+479238962
2669+479344065+479571369+479880111+480261365+480702834+481101268+481279978
2656+481250460+481164347+481150704+481345036+481629987+481984080+482577647
2642+483123546+483355650+483514063+483821795+484241999+484645528+484922520
2629+485007959+485023371+485212903+485607674+486165026+486934145+487704779
2615+488132142+488369678+488825338+489405766+489795315+490113658+490640777
2602+491315740+491892041+492294686+492636526+493126336+493878569+494605199
2588+494850315+494703481+494760876+495160615+495528815+495829093+496229801
2575+496669797+496967759+497129036+497499341+498075853+498412472+498562969
2561+498896766+499350615+499740248+500273894+500992818+501453657+501607607
2548+501860429+502315373+502670814+502740672+502861230+503284635+503841609
2534+504367969+504734864+504953030+505117591+505262951+505580283+506155280
2521+506750152+507158355+507471771+507882543+508297020+508554011+508787673
2507+509113974+509399220+509563781+509738828+509977922+510190445+510463732
2494+510920065+511426130+511801783+512047319+512272560+512399728+512308184
2480+512227419+512386717+512595829+512553636+512398802+512461671+512601598
2467+512526350+512289866+512061426+511925920+511842797+511640000+511421161
2453+511464070+511513169+511313194+511146064+511161517+511202910+511046266
2440+510671918+510417538+510459858+510473543+510156800+509755419+509517714
2426+509229521+508764892+508329992+508042009+507752721+507312094+506772427
2413+506295713+505959095+505754572+505525542+505065418+504554301+504147740
2399+503682984+503162393+502683868+502236166+501701889+501149463+500735533
2386+500062254+498835581+497339496+495409226+492530664+488984930+485390434
2372+481750039+478029511+474515864+471470046+469166691+467484022+466006253
2359+464991514+465211912+467117927+470716129+475030266+477756688+477140046
2345+473887179+470858667+469264721+468397363+468174396+468724633+469617762
2332+470149133+470598393+471563570+472469584+472985965+473921160+475571659
2318+477182660+478253614+478934304+479569853+480437969+481475574+482440666
2305+483274506+484004631+484583797+484944754+485192059+485609400+486168311
2291+486500887+486676902+487056134+487549144+487823989+487816283+487781333
2278+487827905+487901975+488130205+488412671+488590623+488918482+489395197
2264+489641197+489828792+490420590+491170632+491622461+491845890+492088437
2251+492442278+492888211+493360840+493820922+494355999+494923837+495351831
2237+495828630+496498877+497043218+497402070+497920598+498643649+499346446
2224+499858069+500216331+500793685+501703742+502525623+503054131+503554721
2210+504176248+504801859+505384856+505939388+506561799+507362246+508252638
2197+509090899+509813739+510484028+511194783+512037340+513052753+514054143
2183+514958263+515883857+516766754+517466392+518078908+518776483+519589563
2170+520593480+521835481+523044005+523969053+524735223+525518322+526279355
2156+526949854+527709582+528718763+529645663+530221544+530551046+530657497
2143+530707396+530850103+530853303+530701206+530601071+530424467+530042329
2129+529521990+528713289+527579592+526450359+525457811+524437050+523187512
2116+521728482+520415276+519436329+518427443+516937126+515056418+513170910
2102+511470639+509972953+508506091+506941284+505369107+503821144+502321058
2089+500852722+499329434+497853224+496442577+494948976+493402023+491833763
2075+490319444+489073822+487965054+486769036+485501012+484063710+482592721
2062+481372070+480140428+478692936+477216642+475758328+474431183+473391768
2048+472392188+471190148+469903218+468724885+467723031+466746948+465597376
2035+464329100+463124028+462041578+460996521+459952179+458993234+458035342
2021+456912509+455644485+454338563+453234342+452434106+451672314+450817589
2008+449929050+448987243+448012044+447025644+446093186+445331142+444593521
1994+443527577+442079917+440816609+440062734+439487948+438959608+438389581
1981+437546519+436627241+435996282+435546475+434927433+434036325+432929578
1967+431880562+431332642+431069377+430541206+429808259+429139781+428543604
1954+428019769+427532570+426944562+426196119+425308001+424208581+423205927
1940+422959885+423159144+423103224+422619561+421902111+421214557+420571976
1927+419900298+419017991+418055045+417472806+416919622+416408000+416493775
1913+416524052+415835319+414978025+414737625+414913893+414949517+414688863
1900+414259774+413721497+412962737+412354517+412066029+411546279+411173869
1886+411415616+411652520+411641698+411507497+411272698+410933217+410525561
1873+410030318+408745367+406662326+406115247+407484080+408675677+408854723
1859+408536338+408405506+408454563+408319099+408063666+407701741+406892914
1846+405351182+404027027+404647417+405899861+406220730+406080929+405860110
1832+404611582+402362254+401503738+402125349+402420153+402751466+403327304
1819+403470138+403169649+402706620+401815681+400548288+400052035+400408318
1805+400491104+399768474+398358249+397241648+397043315+396661135+395026385
1792+393514846+394442841+396135785+396690906+396246068+395446337+394676503
1778+394277564+393575230+391321438+388120364+387802569+390124156+391993832
1765+392592030+391742905+390650517+390836091+391285814+391660709+391513286
1751+389265178+386255784+385918661+387097961+387634891+387219993+386744752
1738+386969866+386131774+383131812+382834945+385556693+387945192+389097964
1724+389054507+388465362+387012733+383073913+379254513+380876715+384388467
1711+386498710+386493952+384464052+382569070+382387454+380766221+376900754
1697+376116603+378851405+382414951+384407837+384255319+382965230+379990197
1684+375996761+377219350+380616945+382395539+381798478+380124777+378822603
1670+377186505+377373553+379849301+380887031+380026705+380153958+381030623
1657+380454279+376573905+370219342+370412916+371827985+371049181+373144897
1643+377640607+380330563+380423623+378075339+376417934+380751525+386272754
1630+389534464+391438205+393445914+395871173+399865114+404320694+406848742
1616+409468713+415147976+420944387+425050548+428233388+431679871+435432234
1603+439243717+443012291+446480545+449478696+452410398+455875789+459714348
1589+463553412+467284089+470887007+474440447+477775552+479965129+480429253
1576+482440835+488161070+492660823+495217125+499469657+505375045+510516747
1562+513586861+512539109+510990345+519271978+529004640+536763365+543001414
1549+548686657+553002057+554384743+552659375+551744054+561895616+575019514
1535+583091951+589588084+597314512+603817256+608381898+612516483+616268719
1522+620498217+626737654+633470903+641104817+649409821+656158228+659902758
1508+660244472+663957420+674816789+683608318+689213428+692568578+696824309
1495+703842298+709667974+712416924+715233586+722417441+731320011+739066020
1481+745531666+750629870+753560309+754341597+755885392+762077583+770206277
1468+776393416+780905716+786417261+792867158+797298779+798933613+804544365
1454+816140892+826526705+834496816+841194314+848308437+855949342+863526831
1441+870917188+876872980+881568623+888124214+895590872+902065193+909950245
1427+919040031+925107665+928138745+930287307+932768698+938823699+946578802
1414+951543942+954412650+957647115+961113432+963540082+965897083+969069901
1400+969880833+966524420+963345286+965039157+971503877+976379746+974497901
1387+968643085+967035959+970441976+974494279+976885978+977143600+976353807
1373+977122967+980027552+982876132+984030251+984161462+983505743+982384469
1360+983074127+984837478+985753767+986063688+986009452+984775494+982920178
1346+981970202+981865856+980951167+978653034+977802014+979950240+981970875
1333+981744835+981047428+982089707+984288715+986038086+986480818+986378578
1319+987297309+989706525+993028577+996443521+999985971+1003485385+1006089313
1306+1008160563+1010816032+1014512347+1018332800+1021381902+1024297688
1294+1027757520+1031265524+1033388484+1033748599+1034149728+1036116212
1283+1038942895+1040490733+1040302001+1040175001+1040496965+1040749197
1271+1041321288+1041313456+1039873417+1038455949+1038377037+1038755932
1260+1037875267+1036257445+1035865412+1037040838+1038632048+1039078991
1248+1037864235+1036585557+1036801407+1038160176+1039698412+1040534189
1236+1040353037+1039532672+1038022059+1036857159+1037448284+1038331138
1225+1037246751+1035250370+1035646951+1038341834+1039827602+1039893292
1213+1040613606+1041487786+1042369714+1044071165+1045325335+1045654794
1202+1046036301+1046432545+1046508509+1045785163+1044768740+1044776656
1190+1045175006+1044553816+1043639128+1044256696+1045949304+1046709116
1178+1045826935+1044171299+1043740105+1044975242+1045581778+1045159257
1167+1045474737+1045553649+1044087334+1043057857+1043131126+1042552045
1155+1040753408+1037833243+1034910299+1033632042+1033025085+1031900526
1144+1030375680+1027980528+1025754823+1025109546+1024609377+1023083437
1132+1021260628+1018565409+1013745882+1008451367+1005352745+1003640177
1121+1000286965+995300266+991320221+988895003+986466501+983023934+979429774
1107+976623472+973344455+968946269+964672136+961462767+959603830+958511947
1094+956741522+953723328+950745726+948096995+945004100+942508308+940536097
1080+937492469+934069019+931351313+928562949+925401837+922720598+920459942
1067+917906882+914379760+909800506+905947882+903828544+901750808+898720823
1053+896141824+895066954+894488799+892494776+888868362+885670952+883772264
1040+882115617+880732425+880257269+879406754+876996359+874602807+873493239
1026+872738564+871477909+870087390+869482370+869517321+869023300+867248580
1013+864858228+863913979+865065825+866478325+867229378+867622927+867101283
999+865987419+865853429+867196954+869089074+869971086+868942872+866994579
986+865743693+865264074+864904632+863993986+861921725+859561271+857715135
972+855657022+852883564+850604633+849712767+848462892+845998008+843662904
959+842202063+841773479+842007520+842049713+841741898+842551651+845429118
945+848603873+850850128+852978730+855663591+858907994+862157198+865285886
932+868957104+873190982+877354032+881155451+884616967+887874677+890870638
918+893009768+894079922+894660435+895195386+895389676+894507159+893076215
905+892470774+892285664+891664558+891047158+890459066+889555326+888693020
891+887900195+886817239+885119494+882650568+880619742+880062979+880538135
878+881324476+881632881+881994849+883088247+883734618+883869367+885521718
864+889171040+892745829+895974989+900096099+904203144+907318694+909989069
851+913415972+917492699+920884062+924055028+928296147+933626202+938373555
837+941110209+943002750+944810062+945705549+946181379+946976057+947870028
824+950202943+955111910+959898929+962106359+963777744+966873250+970171468
810+972195304+973162039+974825424+978486704+982977698+985692204+986676372
797+987733978+991087611+1001043577+1012344920+1013496261+1008702251+1006132601
783+1005879358+1008660564+1014036938+1018068609+1020063221+1022924265
772+1026032825+1026690566+1025473788+1025720967+1029369952+1032681056
760+1031230574+1027236633+1025298447+1025034172+1024347123+1025055394
748+1028044365+1029722151+1027417533+1024089333+1022672370+1022021030
737+1021309222+1019995342+1018108444+1016848378+1016425690+1017974790
725+1022542590+1027468990+1028677430+1024584786+1016743359+1010835149
714+1011213118+1013257588+1011674463+1009470149+1010601698+1013396799
702+1015240157+1016089324+1013979839+1007918437+1003097984+1003654831
691+1006759938+1009049986+1012057401+1016769298+1020974457+1021960478
679+1019779155+1019027090+1022139693+1024385106+1020715908+1012030030
667+1006012506+1007954567+1012205624+1016265255+1019983972+1021798022
656+1021930159+1021868259+1021266103+1018816209+1017521783+1024046635
644+1033463607+1035962767+1031330540+1022825478+1006609525+974739858+950566174
631+964320359+999435692+1030900609+1059381271+1073741823+1056929441+1016381391
617+986663655+1000143542+1037517005+1044576555+1022355796+1001149523+983685632
604+974856921+980058965+989465747
##END=
