##TITLE=Sample description
##JCAMP-DX=4.24
##DATA TYPE=INFRARED SPECTRUM
##DATE=24/8/2023
##SAMPLING PROCEDURE=Instrument type and / or accessory
##ORIGIN=Default
##XUNITS=1/CM
##YUNITS=ABSORBANCE
##RESOLUTION=4
##FIRSTX=4397.6552
##LASTX=599.8556
##DELTAX=-1.9287962
##MAXY=1.4413452
##MINY=0.53330469
##XFACTOR=1
##YFACTOR=1.3423573e-009
##NPOINTS=1970
##FIRSTY=0.6717366
##XYDATA=(X++(Y..Y))
4398+500415634+500078393+500584543+500995403+500506616+499980041+500026309
4384+500077061+500283224+500606478+499944030+498287133+496925117+497271815
4371+498934573+499865703+500092780+500555548+500886927+501089227+501175768
4357+500966763+500500976+499574864+499090250+499772324+499591781+497599776
4344+496277056+496657145+497028531+496499159+495678814+495455468+496131814
4330+496751057+496727213+496742621+496434642+495247928+494523139+495411642
4317+496856514+496686318+495018098+493917749+493545652+493384824+493811093
4303+494421633+494595560+494753634+495505332+496421854+496745596+496361022
4290+495311202+493855806+492681703+492087236+491719047+491624779+492371993
4276+493752747+494477981+493836758+492708567+492052025+492168893+492583795
4263+492371326+491830099+491448722+490899546+490282567+490252417+490816024
4249+490542413+489279548+489092079+490206327+490758833+490354144+490342377
4236+491017169+490919749+489287496+487497835+487472037+488945327+489559731
4222+488910160+489176533+490186257+490009444+489350326+489041637+488079247
4209+486708217+486272402+486877925+487522345+487275243+486609820+486794447
4195+487493306+487575096+486877881+486004030+485698582+485831836+485892579
4182+485937426+486201890+486449836+486539308+487056247+487183373+485802308
4168+484346912+483792541+483602052+483951858+484806127+485323244+485393179
4155+485365738+485058380+484496860+483831393+483240123+483098611+482991955
4141+482583226+482309837+482442202+482982631+483484517+483447485+483105360
4128+482878239+482635266+482107137+481489536+481026502+480904350+481220366
4114+481521018+481312857+480843740+480740458+480852398+480621547+480295274
4101+480024683+479680871+479835393+480371603+480322715+479998485+479954082
4087+479591399+478990404+479178318+479786106+479221477+477668129+476720258
4074+476646328+476920871+477252872+477273164+476989518+476802226+476906707
4060+477185468+477085739+476495135+476295144+476439143+476159138+476047642
4047+476503838+476346918+475236711+474665067+475096398+475366368+474977975
4033+474254073+473804715+474040007+474263043+474167488+474358776+474724212
4020+475155232+475793036+475932594+475202521+474258247+473652147+473404822
4006+473522135+473654811+472788642+471393279+471339996+472830603+474712134
3993+476306822+476769679+475374715+473450247+472528397+472265398+472155412
3979+472624662+473844412+474532391+474076018+473678389+473286222+472323566
3966+471875717+472636074+473354603+473067005+472509836+472032194+471672885
3952+472502687+474476133+475466186+475400958+475052350+473143378+470819193
3939+469961816+470530041+472623197+474206917+472892013+471187960+471148486
3925+471091916+470326409+470776566+472428579+472355136+470084413+468574579
3912+468137388+468404161+470478711+472710582+472359310+471267264+469808804
3898+467602998+467860491+469700638+468711607+466358516+467483865+468689849
3885+467430270+467276991+466546829+464983445+466250262+468233120+468889973
3871+467718845+465482357+466421213+467963994+466276504+464674312+465567744
3858+468134102+469425517+463645672+458474636+461138859+464725331+466571872
3844+466921279+466874922+466249462+463131264+460220295+460169853+460860275
3831+461927589+463476586+464069721+464209457+463502118+460089039+458822489
3817+459631422+459490709+461059599+463739230+464770444+462899880+461901480
3804+463259278+461716541+459893311+461297777+462173981+462184504+462191786
3790+462308300+463228773+463909515+463391643+462960535+462283878+461533823
3777+462528627+463937400+464415087+463929629+463381475+463347906+463031801
3763+463769290+465371038+464947434+463639989+464805655+467267445+467038814
3750+465775949+469192269+473213268+473355979+474764574+479474619+483810035
3736+483669456+478783709+476461034+479445579+484081648+486625983+485990265
3723+483292874+479524172+476962699+477421914+480435055+483245452+482757019
3709+482774647+486412848+491254725+495391483+499652924+505357240+511534491
3696+517545720+523167180+527009191+527123884+526443142+528618177+531278802
3682+532584471+532682913+531915585+527582788+522678836+524006929+524808358
3669+522799435+523918478+526528617+528268148+530313349+533430747+536480654
3655+540192209+545984931+551519183+552049354+549905357+551035501+552995093
3642+553241485+552421940+552265863+552652879+553364970+554719482+553315993
3628+547045007+544193316+544949276+545865354+544890486+541437401+539119211
3615+537726290+536252645+536436295+536274491+534392782+534002746+535079385
3601+535309881+535304553+536757107+537386075+535249004+534080762+534442691
3588+531044355+525542516+523997826+524563698+524139916+522558371+521530620
3574+521637409+522791353+526032059+529367565+526833355+522126019+520477160
3561+519016613+517053158+517522853+520111990+521049514+520476005+522437151
3547+525418455+523726524+518892551+516902810+518139388+519459843+519649488
3534+520090232+521229435+522051911+523476003+526364504+526924914+523204345
3520+519436043+518162344+517943438+517958268+518959999+520071183+519370105
3507+518742691+520944812+523648330+522908932+519986818+518256567+518249907
3493+518468369+518673733+519129130+519070340+518814224+519447810+520627064
3480+521904670+523049423+522892947+520931402+518461354+517170160+517637501
3466+519065456+520096715+520047783+519489904+519098536+519085393+519366863
3453+518823060+517206171+516142853+516227840+516496745+516199200+516140899
3439+517446080+518459222+517512640+515945926+515175978+515441686+516569299
3426+518078423+519265891+519158214+517609261+516087749+515629333+515625603
3412+515664811+515632929+514769469+513727953+514021546+515280370+516381563
3399+516747044+516272776+515429164+514190144+512587197+512187259+514024343
3385+516140056+516031890+514568368+513655976+513184239+512683107+512422950
3372+512969062+513910760+513546256+512119412+511784924+512469618+512683240
3358+512644832+513014975+513215144+512711303+511950325+511469352+511398885
3345+511461892+510886519+510025235+510145078+510524724+509918090+509007741
3331+508585912+508657668+508973906+508924441+508496663+508142016+507955524
3318+508321626+508860056+508458254+507371003+506536938+506191216+505925331
3304+505567843+505242103+504639333+503854643+503670460+504070708+504396715
3291+504766592+505347560+505715660+505562071+504891009+503864901+502491250
3277+501496668+501597730+501511277+500452932+500218041+501498489+502318789
3264+501719927+500471182+499463013+499191444+499035457+498457952+497758383
3250+497347167+497637385+498421364+498788176+498482373+497942034+497533482
3237+497262491+496544317+495525003+494562879+493917171+494568341+495788223
3223+495810114+494825656+494407025+494579575+493816243+492472077+492372747
3210+493583527+494161965+493541211+492771619+492410667+492431803+492254502
3196+492377010+493330697+493696222+492000384+489799818+490197047+492237052
3183+492506622+490692806+489994125+491922324+493263382+491456581+489020812
3169+490116988+493012861+492224885+488762831+489030048+493427629+494724861
3156+490658882+487569723+490647248+496024003+495441303+489980094+489341268
3142+496784715+501352359+495311158+488526163+491282211+498794837+498154324
3129+489971879+487386383+495441436+502647949+497206676+487533846+487979918
3115+498590139+503375713+494140119+485416712+489467817+499635474+499195707
3102+488319334+483885920+492207302+501417054+496795061+485368357+483754487
3088+494680813+503128255+495366750+483260948+481940671+489581621+493297439
3075+486689878+479774472+481861989+490526072+493120005+484737302+477345719
3061+479402508+486843823+488153178+481303310+476067224+476708891+479949553
3047+480211220+476902089+474276763+474100839+475126769+475107454+473505084
3034+472225924+472915946+474721947+474878335+473267395+473147063+480460453
3020+510013335+567763830+614507585+605606478+567506515+535697741+515215275
3007+501795056+492897946+487285677+483994574+481452593+478043911+475065182
2993+474679099+477989384+481860346+479937209+474025487+471361132+475070466
2980+481720965+482325689+475958970+471392746+473150083+479508365+482868515
2966+478417917+472492563+472205187+480305531+488753373+484793961+474830868
2953+471274324+476572086+485544460+485917134+476806622+470539499+473002576
2939+481588999+485625095+478759953+470634788+469926827+477424667+486134175
2926+483852129+473539763+468221354+472047424+480124945+481329997+473168199
2912+466397369+466794775+472250789+476471247+473959549+468564366+466614455
2899+469920966+475485856+476054170+470628838+466226906+466773550+470963725
2885+473713157+471073667+466692693+465614589+467901519+470160831+469080995
2872+465910579+464358606+465350258+467511217+468553665+467099202+464772886
2858+463867909+464631329+465408825+464635947+462817424+461419130+461306791
2845+462253107+462864313+462550029+462243516+462499765+462907162+463095697
2831+463031713+462704196+462488576+462925590+463602246+463656196+463118964
2818+462478585+461998234+462021279+462388713+462206883+461546256+461515218
2804+462104179+462368466+462049608+461407941+460932740+461027807+461373617
2791+461531914+461366246+460870665+460485513+460718318+461363360+461726843
2777+461508824+461160217+461072299+461142677+461235879+461259857+461277618
2764+461462023+461711346+461882919+462038552+462172293+462223934+462340714
2750+462515750+462511266+462424547+462446260+462401679+462175535+462122562
2737+462516905+463093699+463401811+463270601+463145251+463352391+463487243
2723+463463798+463583597+463693583+463678442+463751129+463898237+463979627
2710+464011997+463972167+463849704+463861293+464237964+464919505+465625867
2696+465922035+465622315+465267624+465232368+465360382+465690118+466129885
2683+466424188+466549626+466520986+466478093+466557974+466827944+467408779
2669+468049203+468371524+468444212+468487816+468670134+469031752+469280142
2656+469278366+469424985+469965680+470505309+470697041+470854094+471219175
2642+471535990+471803518+472216466+472628126+472883976+473148218+473556902
2629+473970960+474415389+475017582+475500909+475665688+475807422+476275874
2615+477077747+477894406+478428307+478595440+478566756+478668172+478893073
2602+479107539+479491092+479995155+480416983+480924109+481591574+482150919
2588+482388652+482494731+482809059+483300645+483786768+484221873+484640815
2575+485117703+485629580+486148651+486706174+487230929+487709859+488178310
2561+488423770+488381054+488464709+488923525+489527006+490091012+490601824
2548+491026227+491387401+491683747+492006112+492437354+492746487+493037593
2534+493573892+494058595+494344017+494601554+494861889+495235895+495766022
2521+496143936+496136609+496076088+496467456+497144823+497548446+497618869
2507+497746927+498134520+498490188+498615493+498759403+498947894+499051886
2494+499212092+499376871+499445474+499692842+499965832+499886040+499938657
2480+500397651+500638803+500479929+500416966+500604435+500687114+500501687
2467+500320478+500407464+500646085+500785067+500767883+500770724+501049708
2453+501361639+501212045+500705896+500253963+499978975+499963168+500216309
2440+500260534+500013121+499922051+499874628+499659629+499351828+498944386
2426+498534680+498253787+498066317+497936972+497696396+497171065+496653326
2413+496307028+495999404+495809448+495688006+495446010+495081595+494701106
2399+494315821+494049892+494474295+496410487+500966186+509500303+522928647
2386+541016106+562219898+584318987+605528462+625114920+643465955+661888478
2372+680922963+699243760+715562782+730389242+743755067+753149757+757185454
2359+755831697+747165925+731912530+713860594+695944131+684871319+687211666
2345+697971038+700880409+693247406+684471870+677290579+673634794+676531688
2332+682398563+683137872+679258918+678320994+681721418+683009059+677241158
2318+666464470+656425449+652940482+655559058+656303962+650094074+638051324
2305+623215672+610191040+601324434+594338782+586812080+578098664+568005604
2291+557280379+547415239+538991686+531830287+525915945+520951117+516513396
2278+512631378+509294095+506336503+503850869+501969160+500545735+499359021
2264+498258804+497208541+496212316+495237360+494472919+494121070+494060016
2251+493988749+493673621+493188918+492732500+492410046+492338335+492474475
2237+492504047+492403075+492566478+493063835+493667316+494238915+494666960
2224+495050024+495582460+496198995+496712027+497121600+497641870+498388949
2210+499265642+500195528+501104191+501824451+502357864+502889234+503512563
2197+504267413+505188198+506139354+506956546+507710552+508441647+509146722
2183+509915648+510643102+511341960+512171851+512907076+513414113+513981095
2170+514685503+515300262+515880831+516729638+517784519+518508465+518620716
2156+518606196+518922345+519404562+519688829+519565123+519118473+518589545
2143+518216649+518045831+517767335+517214785+516526628+515661525+514500609
2129+513287076+512305549+511344003+509984961+508217546+506462607+505071285
2116+503940741+502583475+500836618+499136429+497664959+496151662+494441215
2102+492672201+491071030+489661858+488262010+486831746+485625584+484511558
2089+483028721+481332794+479806486+478523907+477439364+476384172+475212511
2075+473971182+472818304+471858489+471133122+470702636+470151506+468832738
2062+467287515+466355674+465786606+465266514+464820575+464405141+464061240
2048+463844820+463832920+464255148+464982157+465301326+465112746+465113723
2035+465691894+466665118+467590387+468330274+469024781+469671021+470155103
2021+470676837+471537989+472000312+471360998+470418146+469794595+469149065
2008+468175174+466958844+465688786+464436178+463144585+461702776+460414868
1994+459691544+458718009+456725870+454595283+452801137+451151167+449628234
1981+448030260+446427624+445114584+444057127+443005088+442063612+441551424
1967+440940483+439645071+438281545+437340912+436661414+436096342+435334431
1954+434276575+433452500+433056337+432715456+432509293+432733217+432691034
1940+431819137+430878150+430406058+430210285+429968910+429751957+429743876
1927+430029121+430803819+431653514+431859145+431537845+431169122+431125874
1913+431321425+431594325+431903325+431990488+431989068+432218098+432440557
1900+432512490+432701424+432960871+433068504+433171741+433081869+432632422
1886+432472971+432650938+433038665+433787521+434086308+433564041+433377948
1873+434303394+435602403+435820422+435343623+435958293+437353301+438345840
1859+438368175+437861404+437701287+438223199+439632993+441859136+443621312
1846+443875386+443088610+442324923+441904294+441721265+441973696+442559016
1832+442214049+439979781+438025251+437884893+437398148+435869132+434827438
1819+434587041+433635618+431600586+429686685+427723586+425502239+423609473
1805+422804536+423418807+422844588+419636074+417115007+415947476+414272596
1792+411885492+410006625+409388980+409416466+408697093+407241919+405933852
1778+404784037+403646744+401961696+399576413+399246100+400651365+400678539
1765+399887811+399419627+399331798+399752205+399516780+399007833+400206136
1751+401915118+401282775+399858816+399857395+399814946+398561672+397289661
1738+397430107+398170172+398293301+398668906+399232379+399198944+399562249
1724+400421224+400884791+401029412+401156671+401474551+401988738+402472641
1711+403006542+403349111+403339165+403874354+405143568+405034781+403378595
1697+403509628+404935141+406823377+409168075+411378100+412653886+412432315
1684+412444215+415431779+418066296+418949560+418977356+419399584+420717730
1670+422259268+424088848+426471688+428463650+429918335+432191812+435278439
1657+437789160+438185324+436336073+437834895+440770864+442626464+444951092
1643+448323098+451111337+452749807+453018844+452557986+454732177+458303596
1630+460970083+462867244+464702197+466432269+468825633+471588297+472883043
1616+473476178+476405353+480254646+483034760+484956520+487195939+489947102
1603+492756256+495478069+498363773+501433616+504536851+507789101+511113063
1589+514406963+517885625+521758007+525836153+529810352+533337368+535845558
1576+538572611+543256058+547800213+551710160+556572418+562131935+567339337
1562+571722398+574688028+578690112+587256109+596272220+604947272+613238149
1549+620856099+627988813+634773187+638622435+639913496+648282789+659281669
1535+667289788+674495945+682332225+689785662+696709061+702351124+705945543
1522+710385485+718315854+728101202+737652679+745810125+754030002+762411861
1508+767305334+767423978+772390183+780009466+785865684+789689312+794640420
1495+801797556+808604087+814188647+818820409+824596169+831388136+837393725
1481+842680875+847849558+852328218+855119566+856861761+860579443+866908109
1468+872731647+876321538+880066128+886022431+891237648+892615649+894322588
1454+902610046+911729616+917856425+921537254+926063869+931860588+937968126
1441+943962171+947534745+948495092+952616043+960005850+965134304+967533219
1427+970900651+975602480+980330686+984364162+986784568+989061907+993727948
1414+998850452+1001785665+1002444161+1003076459+1003817634+1003479727
1402+1003911590+1004800271+1004380041+1004224276+1005727227+1008382436
1391+1009427149+1006799648+1002344965+1000387860+1002834463+1008045684
1379+1011941600+1012313608+1010740677+1009878727+1010853106+1012318048
1368+1013780060+1014655243+1012443353+1009286747+1009820204+1012550897
1356+1014675579+1014354368+1012312276+1011491709+1012152336+1012213168
1344+1011659286+1010350198+1007210642+1004806932+1004691839+1004879486
1333+1004591222+1003975530+1004267702+1005590733+1006918470+1008433055
1321+1009319871+1009685663+1011873042+1015139235+1017260365+1018558618
1310+1021377763+1028236067+1036969153+1042071142+1042941174+1043394440
1298+1045635901+1048737537+1051003420+1052176724+1053869898+1055960834
1287+1055935879+1055478706+1057390520+1059924775+1061690503+1063274179
1275+1064066861+1063387851+1062545172+1062286924+1061030231+1058610270
1263+1056745878+1055602324+1054827492+1054898182+1055419739+1056121128
1252+1057330754+1058529900+1059595749+1060972774+1062438871+1063544682
1240+1064309301+1064927923+1064667100+1062816296+1061022061+1061895911
1229+1064267829+1064499612+1063407211+1063902748+1065154556+1065916245
1217+1066912203+1067952920+1068485844+1068497211+1067528960+1066713722
1205+1068203264+1070940973+1071563058+1070003715+1069267247+1069983734
1194+1071359160+1073099046+1073741823+1073065211+1072704659+1072947010
1182+1073416527+1073701239+1072543565+1070272797+1068860872+1068909360
1171+1069808076+1070243669+1069601513+1069224798+1068738142+1066859097
1159+1065550808+1065730640+1065199226+1063559069+1061855327+1060510628
1148+1059704359+1058064557+1054455751+1050435684+1047418947+1045359715
1136+1044240582+1043224998+1040523344+1036073723+1032202406+1030211288
1124+1028180918+1024083413+1019046074+1015397039+1013004252+1009897998
1113+1005080898+998764576+992188053+986648517+982337433+978835194+975052860
1099+970877117+967639608+965627266+964546053+964330166+964104954+962658928
1086+959998657+956350598+951946979+948994803+947951067+946533369+944637452
1072+943175706+942539056+942507974+941863421+940286316+937601092+934518904
1059+932906988+932234549+931601985+931948239+932372643+930792696+927985896
1045+925772586+924580722+924236865+924660292+925380330+924831332+922644131
1032+920352138+919747281+921983059+924624414+924177720+921806247+920373097
1018+920590138+921559277+921990164+921759624+921863171+922771834+924009966
1005+924928397+925718148+927081674+928377441+928479657+928034917+927720544
991+926989227+926177807+925687243+924807265+923670461+922455507+920662604
978+918820947+917496761+916077554+913675709+910868820+909411070+909068635
964+907966376+905705554+903563022+902389275+901538603+901023795+901597126
951+902408545+902838011+903637442+905198917+907393933+909819667+912155618
937+914090788+915425630+917121645+919977644+923032568+925087182+926650699
924+929198807+932724136+935858897+938184902+940077622+941366108+941943701
910+942153550+941864131+940380095+937865733+935820355+934921017+934169986
897+933074476+932418111+932770138+933519838+933507671+932861963+933197206
883+934665345+935531913+935519481+935297199+934898283+934980517+935791493
870+936868975+938446258+941013815+945280051+951215396+956903149+960564617
856+962945149+965834716+969064144+972037544+974823386+976482192+977177898
843+978619129+981312258+984357857+986654645+987768271+987613482+987443596
829+989007646+991141475+993327877+997681055+1002648948+1004801070+1006480923
816+1010945997+1015054336+1015733435+1015283367+1015811407+1017138434
804+1019712030+1023586632+1026062453+1025810155+1025532193+1027600394
793+1032460210+1038318026+1042136504+1043280590+1042533111+1042499720
781+1046523872+1051961814+1054766571+1056838325+1059772295+1061916070
770+1062337099+1060881570+1058591532+1057536961+1057953994+1058382038
758+1057749296+1057710666+1060051146+1061680823+1061444688+1063182176
746+1065506316+1062796137+1056288527+1053164157+1055165843+1056813104
735+1055503749+1053926645+1053706140+1053473380+1051508371+1048582038
723+1047825056+1050437105+1052122286+1049447540+1046935398+1048627062
712+1051404024+1051573910+1049137785+1045703660+1043095963+1042015195
700+1041217717+1040119987+1040827327+1043306433+1045249862+1046273261
689+1046011461+1045728348+1046194135+1046002226+1047717068+1051429067
677+1052337463+1049877628+1047445233+1047546650+1047378895+1043797530
665+1042033311+1042636303+1043674977+1043432981+1039270381+1033729779
654+1032301602+1035341873+1037837941+1041256614+1046670579+1044483200
642+1037827196+1035918756+1033614687+1027324740+1021823924+1024225413
631+1038070879+1055196659+1064575453+1065156776+1052419164+1022297881+995792153
617+997516231+1027899315+1059902485+1071978937+1070486109+1057642640+1041086107
604+1034667836+1033815654+1034428682
##END=
