##TITLE=Sample description
##JCAMP-DX=4.24
##DATA TYPE=INFRARED SPECTRUM
##DATE=24/8/2023
##SAMPLING PROCEDURE=Instrument type and / or accessory
##ORIGIN=Default
##XUNITS=1/CM
##YUNITS=ABSORBANCE
##RESOLUTION=4
##FIRSTX=4397.6552
##LASTX=599.8556
##DELTAX=-1.9287962
##MAXY=1.282531
##MINY=0.34676909
##XFACTOR=1
##YFACTOR=1.1944501e-009
##NPOINTS=1970
##FIRSTY=0.48139325
##XYDATA=(X++(Y..Y))
4398+403024998+402388382+402262107+401758553+401097809+400756933+400907560
4384+401345544+401416429+400787598+399958761+399831887+400602588+401586618
4371+402025874+401603734+400557128+399653266+399342305+399305902+399392781
4357+399488516+399340409+398962132+398367683+398050635+398640618+399430182
4344+399414363+398976878+398455384+397534380+396757392+396778400+397254184
4330+397598878+397674803+397711231+397602421+396998690+396425897+396579069
4317+397020047+397068452+396552572+395686584+395063741+395468066+396670114
4303+397100239+396774658+397206404+398015778+397418360+395439573+394473558
4290+395161522+395412526+394540226+393524035+393211279+393992085+394984772
4276+395086196+394876386+394992332+394910369+394593346+394354668+394114717
4263+393929434+393842456+393716654+393785718+394333759+394636436+393933850
4249+392910399+392472689+392449984+392682524+393230640+393387555+392977192
4236+392585766+392309088+392147108+391727612+391192970+391601187+392407393
4222+392575361+392454650+392179968+391709873+391488660+391740986+392200552
4209+392322860+392053144+391911723+391930287+391473839+390551763+390116498
4195+390343050+390418002+390237983+390589712+391561965+392149428+391965193
4182+391851692+392267944+392485314+392154194+391838942+391528282+391075502
4168+390721178+390217249+389639292+389705760+390175107+390124183+389815967
4155+389901673+390042894+390009535+390028298+390124907+390087880+389596651
4141+388908138+388506432+388092725+387460475+387188213+387450021+387539344
4128+387483854+388019744+388500169+388006221+387260171+387108272+387263839
4114+387202860+387082747+387149914+386977330+386248197+385617769+385829999
4101+386492265+386882817+386878950+386684584+386497080+386189838+385767947
4087+385459108+385283430+385367364+385403842+384644443+383432415+382798394
4074+382841583+383198278+383861916+384496536+384357411+383422210+382462807
4060+382134881+382512359+382868854+382517349+381788042+381473139+382007558
4047+382848145+383117438+382768303+382174702+381600013+381197884+381110955
4033+381154170+381007834+380915642+380860650+380601163+380356173+380114301
4020+379662544+379099408+378912627+379134638+378888400+378288312+378552814
4006+379687695+380580829+380524066+379721702+378984884+378958287+379506777
3993+379968465+380056490+379721852+379034811+378525792+378312514+377825502
3979+377038358+376568113+376561277+376932992+377586874+377827473+377513743
3966+377156924+376733287+376602196+377120371+377389065+377004151+376507708
3952+375777277+374544016+373671042+374012666+374641598+374754150+375274322
3939+376279584+376620185+375696287+374051465+373510385+374438325+374938336
3925+374307982+373850138+374029458+373746168+372991486+373293813+374715177
3912+375858042+376404512+376124815+373654899+369822851+367858236+368436193
3898+371074302+373869300+374299399+372353447+371919131+373571264+372884622
3885+370389256+370306919+371368021+372754080+373863087+372815733+370846377
3871+369204274+368678539+370369595+370946754+370146336+371157936+372522762
3858+372454697+369802217+363458710+362724662+368717612+374243734+376785159
3844+375773185+372764659+369274810+366570707+367640716+370511614+372173777
3831+373440448+374802430+375568689+376224617+375003806+370316550+368804315
3817+370190474+371589208+375035045+378475467+378810928+375946817+374490122
3804+375075689+373850312+373678302+375663652+377422199+379811151+382395216
3790+383443169+382734046+381414056+381106764+381802089+381326953+380678286
3777+382500633+384511431+384366119+382615905+381773096+382564007+383693025
3763+385202964+385866377+384619019+384201968+385502771+385382759+381667505
3750+379765167+382937668+385365143+386034320+389459298+393224577+393369915
3736+390431750+390462689+395594317+401761048+406782518+410593857+414629028
3723+420226210+427353168+436103116+445846200+455357244+465129371+479004385
3709+497604655+515924281+531610563+544607763+557062535+570196664+581440581
3696+589696307+595072077+596059225+591404978+586958869+587423501+588581261
3682+587971118+585888835+582223683+573350129+564030956+563063869+562225077
3669+559682455+560938222+562890162+562606074+561364678+560603284+558991321
3655+558085463+559734003+558422496+549373789+544956923+550305546+557044671
3642+561697470+564258057+565239916+564955827+565091359+566675577+565444611
3628+561734846+565085920+571278126+574171056+572342272+569218648+569775298
3615+571645799+572705803+574263473+575721290+577806417+581576562+584566201
3601+585400701+585469415+586013090+586758815+588120123+590694782+591948353
3588+589396400+588635005+592764889+596976661+598913730+599746733+600565664
3574+601876173+604044335+605431243+602688965+598561726+600030322+604286856
3561+608134847+611837326+614422763+614773669+614059232+614641780+616998021
3547+618848811+619748782+621928871+624588213+626230316+627877808+630610554
3534+633489012+634577510+633400188+631847708+631643661+633077376+636473561
3520+640384877+642503987+643080497+643305602+643636198+644082615+644737570
3507+646085255+646985076+646330370+646518648+648793001+650970445+651727249
3493+651823808+652477266+653683481+654245968+654128002+653915871+653802944
3480+654635698+655993263+656043165+654896981+654236088+655005467+657133609
3466+659460008+660478045+660309179+660372903+660496010+659966357+659450577
3453+659223626+658986245+658495615+658248853+659041386+659999043+660700855
3439+661692494+662103831+661458107+660844171+660600503+660401347+660344360
3426+660726504+661381359+661156703+660182031+660222950+661654270+663586649
3412+664984984+665244570+664528786+663374568+662642765+662897461+663257050
3399+662045596+659630671+658244212+658561685+659862013+661619788+662721759
3385+661748234+659422782+658786340+660916029+662948660+662778696+661787905
3372+661752326+662622106+662945965+662332628+662116555+662172096+660962138
3358+659131209+658962143+660616172+662064009+662527393+662731689+661955274
3345+659900388+659099072+660256184+661474874+662227985+662435824+661615347
3331+660266065+659713956+660449851+661078308+660074593+657944305+656683948
3318+657035752+657923397+658334484+658037721+657538957+657219439+656928015
3304+656253449+655164452+654963899+655844957+655924400+654703763+653823105
3291+654510645+655870107+656576061+656814639+657146832+657719799+658504997
3277+659547935+660496509+660014163+658536784+658351500+659044580+659005258
3264+659117785+660473155+662170149+662574899+661927829+662152684+663227608
3250+663740644+663963453+664410120+664674398+665089876+666030865+666665361
3237+666316900+665569578+665487190+666499139+667736393+667756453+667119712
3223+667195313+666958431+665734252+665002249+665242973+665421171+664602689
3210+662948460+661862358+661767795+661166484+659304216+657105015+655592406
3196+654855962+654278504+653525643+652378461+651372151+651766122+652379908
3183+651095847+648922944+647320063+646067291+645242771+644700743+643770682
3169+642809732+642112461+641076958+639823537+638987290+638396059+637659416
3156+636687688+635449735+633848851+631580137+628930526+626702083+625112725
3142+624052672+623256196+622551240+621485148+619209199+616675708+615339850
3129+614802912+614569473+614263229+613081316+611170544+609379186+607653399
3115+605888189+604857627+604177322+603006537+602019888+601356600+600145545
3102+598471954+597477371+597566544+597539598+596777455+595882774+594874867
3088+593655129+592710546+592220565+591596050+590435096+589300739+588750676
3075+588477067+587584532+585876609+584237600+582971753+581593129+579964001
3061+578431930+577187641+575996396+574988040+574388725+573608318+572230393
3047+570703263+569327234+567961035+566616045+565358332+564003910+562486161
3034+560964919+559474666+558212911+557274267+556162415+554473006+552326101
3020+550576760+549981737+549401883+547293353+544690250+543283631+542411007
3007+541029039+539236334+537368178+535993646+535154905+534309876+533391941
2993+532637033+532180187+531514852+530081686+528598868+527736324+526871284
2980+525569758+524406159+523865827+523465619+522459159+520929633+519494820
2966+518474787+517434444+515783908+513852228+512374550+511384258+510358636
2953+509181114+507951496+506605757+505522399+504739547+503665970+502426620
2939+501540872+500727330+499575508+498601334+497949174+496867313+495337738
2926+493859211+492574701+491282955+489603975+487720599+486053546+484710052
2912+484060138+484061086+483821659+483074287+482150713+481018502+479890433
2899+479122900+478462706+477725364+476898199+475842786+474885928+474197040
2885+473317579+472240958+471442936+470990231+470435379+469583563+468721717
2872+467800738+466575162+465342649+464453657+463691065+462800176+462057595
2858+461642166+461112214+460104008+458610710+456693701+454904140+453902969
2845+453365981+452728791+452179128+451896886+451571080+451001357+450289365
2831+449501423+448577500+447644295+446959848+446483141+446074948+445602432
2818+445006710+444579904+444243220+443474390+442500666+441935633+441486870
2804+440731464+440064034+439593514+439029829+438456363+437928706+437521611
2791+437235377+436540950+435331292+434342996+433944884+433808753+433656554
2777+433349511+432812872+432230324+431728366+431214732+430689970+430184320
2764+429720836+429436049+429299070+429053955+428570111+427992703+427623483
2750+427434457+427054409+426504646+426004485+425539853+425117489+424724216
2737+424473312+424390875+424111228+423668703+423385962+423119539+422667683
2723+422171863+421809480+421588517+421495351+421461218+421256773+420694085
2710+419978550+419640019+419814325+420040228+419965875+419716618+419467111
2696+419147094+418665097+418087440+417687880+417659486+417740950+417586730
2683+417296878+417105481+416886639+416564077+416341217+416152590+415857499
2669+415668847+415693648+415737985+415756349+415769498+415651756+415548061
2656+415618022+415553425+415232535+414908800+414737613+414854033+415229665
2642+415454047+415282436+415058853+415125372+415260579+415214795+415194435
2629+415342068+415500430+415705699+416005980+416227667+416486879+416895671
2615+417245928+417607239+418132875+418616793+418925882+419242356+419723554
2602+420193924+420432802+420672179+421183917+421826845+422435192+422875422
2588+423039248+423128322+423294443+423440255+423607424+423900445+424283039
2575+424706401+425027966+425160054+425272482+425285357+425026768+424797671
2561+424777161+424763339+424735544+424748169+424690882+424605251+424684495
2548+424930309+425060152+424886895+424721272+424735843+424691830+424649065
2534+424775914+425066090+425397036+425450929+425187450+424966088+425053515
2521+425375778+425664806+425864362+426081782+426212922+426156983+425999644
2507+425763960+425617250+425736515+425860669+425795897+425733920+425913065
2494+426319212+426658342+426741976+426637633+426470713+426287874+426139368
2480+426140915+426220957+426202693+426154588+426125445+425932427+425568247
2467+425246683+425123876+425088646+424844628+424504800+424291622+424005188
2453+423604830+423294493+423094838+422875522+422579058+422321417+422045912
2440+421584325+421143247+420922134+420782411+420524570+420052803+419652545
2426+419544159+419280830+418648879+418034844+417642569+417379589+417052636
2413+416550878+416056031+415766579+415583815+415299053+414875890+414456419
2399+414132859+413762941+413255394+412733152+412240451+411696053+411020389
2386+410241304+409347971+407959890+405788609+403210232+400660698+398148616
2372+395644892+393025446+390187533+387432705+384981477+382955259+381651836
2359+381204296+381715834+383379270+386115385+389446648+392027120+392090096
2345+389436817+386594487+385406062+385191636+385308605+385697511+386137815
2332+386373649+386664274+387173518+387747757+388395601+389160538+390134962
2318+391310687+392358839+393097030+393653679+394157009+394840482+395825110
2305+396664999+396962811+397002931+397287618+397821787+398203906+398373247
2291+398628143+399030372+399373943+399494005+399467009+399466859+399440087
2278+399333423+399331602+399435970+399451889+399492808+399805340+400221991
2264+400388013+400447819+400723175+401043492+401278252+401674569+402218343
2251+402574863+402650913+402720775+403055363+403620296+404163622+404547712
2237+404866407+405281536+405866280+406518915+407178585+407936337+408702547
2224+409326688+409958962+410786551+411778040+412784825+413711492+414677333
2210+415752232+416923341+418303163+419736129+421047387+422489635+424202897
2197+426017359+427855475+429862805+431998383+434075126+436283809+438729772
2183+441161564+443566957+446111875+448870969+451776724+454579531+457212725
2170+459862285+462640991+465497293+468218712+470673657+472954198+475092071
2156+476948450+478487357+479782945+480741400+481256032+481279985+480857121
2143+480253914+479430193+477854159+475266526+472087113+468699910+464909356
2129+460615247+456159407+451682011+447027115+442264882+437499255+432692510
2116+428030578+423669252+419438268+415204615+411045938+407050039+403292420
2102+399871534+396758365+393773841+390769981+387812205+384967854+382165096
2089+379553859+377271223+375126339+373066263+371149178+369209414+367143749
2075+365140959+363366318+361703606+360038698+358365382+356645907+355031299
2062+353671937+352344337+350810221+349201926+347843263+346771083+345681363
2048+344395680+342999865+341539752+340049000+338812520+337958059+337103324
2035+336011259+334929174+333958368+332878479+331743198+330815283+330035974
2021+329168190+328095736+326965820+326115726+325496276+324766743+323915976
2008+323106277+322347577+321573433+320723438+319798393+318867833+317912073
1994+316752665+315522997+314731337+314307650+313818367+313213289+312576323
1981+311968575+311411626+310873740+310353469+309793451+309054313+308010926
1967+306907158+306362785+306310363+306063626+305449640+304698326+303998435
1954+303456132+302948062+302374521+301741523+300880675+299624134+298597240
1940+298623014+298994554+298852435+298414975+298066764+297819578+297563334
1927+297140396+296241698+295220267+294851621+294743560+294774524+295411689
1913+295883681+295529506+295030767+295155096+295605755+295867737+295930313
1900+295911675+295706481+295237309+294802094+294422520+293898282+293816867
1886+294269947+294567483+294632580+294556156+294411766+294336814+294217026
1873+293712848+292246922+290322951+290316938+292058145+293316058+293620406
1859+293626269+293781587+294188083+294599021+294740965+294475565+293770235
1846+292670933+292180603+293644932+295572820+296601611+297265324+297984626
1832+297960923+297155017+297346164+298565478+299810042+301434729+303027904
1819+303887903+304215805+304226933+303693762+302968546+302949010+303411545
1805+303484551+302719938+301432808+300833842+301205507+301303788+300263620
1792+299554896+301315939+303614768+304558428+304592061+304617635+305068469
1778+306118617+306774920+305880888+303970515+304040502+306284839+308606623
1765+310030008+310172651+310168010+311086993+312135395+312960414+312824408
1751+310831773+308690731+309049747+310656944+311760836+312158250+312361473
1738+312790724+312227164+310281910+310969750+314233646+317461538+319568198
1724+320493244+321103412+321107105+319021179+317489259+321229837+326532801
1711+330478175+332653773+333470807+334547728+336503286+337697375+338669677
1697+342472059+349500411+356780790+361882053+365736032+368963575+371004964
1684+374746914+383202445+391794480+398699127+404684916+410996935+416736910
1670+422764441+432246342+442112733+449702725+457184480+466126848+474455230
1657+480387500+484051405+490798014+501554944+508901866+516321345+527689766
1643+538409170+546261742+551391848+553934570+557504461+565638827+573047976
1630+577520882+579925228+581220416+581394672+581916590+583111028+581865641
1616+578352537+577716944+578161964+576530390+573810169+571862421+570262285
1603+568281801+566358753+564967754+563938988+563287027+563545616+564707019
1589+566508008+569081470+572529302+576659335+581120215+585220507+588799131
1576+595163246+604682074+612903468+621207597+631622204+641874082+650859814
1562+657510413+661566543+671123446+687831957+702534185+715755592+727561447
1549+738977573+748585425+755132479+759628389+765984820+781970960+797557939
1535+807520838+816677482+827683470+837294565+844247017+849602627+853761504
1522+859070606+868556050+878367549+887120142+895561350+901343617+902583964
1508+898808530+899351057+912363626+923127243+927834734+927423348+926846289
1495+930698971+933920500+931921154+928210292+929905839+933310806+934409034
1481+934154138+934097750+932924171+928092125+919788345+915013686+917617737
1468+920201129+918221543+915456011+916287467+916830793+912656447+910455399
1454+917701172+926533607+933189446+937724379+942959427+949754990+956752952
1441+963434840+968534756+971716963+977250921+985399907+991972012+997424929
1427+1003400314+1008243038+1012218976+1015637416+1015588613+1014999179
1416+1018891183+1022683983+1024245994+1025407797+1025861699+1024620254
1404+1023681810+1024340907+1022658134+1017745249+1014677016+1015212457
1393+1018330791+1020715775+1017912817+1010873137+1007907601+1010817148
1381+1014916043+1017573189+1017574686+1015722848+1016176151+1018884196
1369+1019794596+1019338199+1019067933+1017120185+1014962850+1015797999
1358+1016819080+1015815564+1014416131+1014239481+1014222414+1012954721
1346+1011239213+1010224420+1008337850+1004051925+1000684584+1001145273
1335+1002912578+1003374565+1002621953+1002472249+1003892341+1005885300
1323+1007262177+1008294536+1009856248+1012302012+1015296191+1018178991
1312+1020966080+1024432825+1028813962+1032767444+1035258419+1037499787
1300+1040848964+1044940574+1048322287+1050255963+1051976461+1054670733
1288+1057135360+1058329798+1059570245+1061016286+1061311003+1061010298
1277+1061079461+1060700211+1059347685+1057709425+1056200509+1054687700
1265+1052803526+1050608965+1049355743+1049876114+1051462477+1053365215
1254+1055303881+1056903019+1057821104+1058106140+1058171511+1058490381
1242+1059306567+1060419865+1061215592+1061736562+1062649856+1063461451
1231+1063739701+1064391213+1065427963+1065955619+1065821085+1065374768
1219+1065149214+1065698927+1066909633+1068172536+1069513883+1070980583
1207+1071842778+1072367241+1073334329+1073741823+1073090311+1072786013
1196+1073013164+1072758068+1072217836+1072192187+1072542694+1072517743
1184+1071762936+1070684069+1070101122+1069994233+1069085530+1066651643
1173+1063836909+1062005330+1061265194+1060915585+1059885422+1057779786
1161+1055209468+1052898638+1050957576+1048719801+1045652067+1041972143
1150+1038746621+1035989772+1032040681+1027314926+1023705064+1020380538
1138+1015610170+1010234799+1004941067+998953806+992812749+987238771+981861504
1124+976048498+969314813+962331921+956318511+951408321+946640648+941782255
1111+937459203+933363302+929380877+925959941+922584516+919153500+916864726
1097+916309923+916485276+916466813+916705840+917478313+918446897+919697125
1084+920828289+921012624+920624591+921024700+923461482+927571056+930708751
1070+931800992+933292143+935896194+937632361+938764322+941076650+944566749
1057+948122219+951072585+953385112+954754205+955090540+955976188+958268655
1043+959668188+958540318+957452569+959116379+962265851+964569696+965803656
1030+966525429+967388422+968690947+969432381+969569410+970385396+971512967
1016+971757882+971428833+971583327+972500414+973501035+973683774+972989447
1003+972317176+971839421+970835706+969524199+968820690+968658611+968395730
989+967841726+966575530+964561712+962766462+961263434+959104503+956326995
976+954100897+952718730+951365106+949594507+947467912+945564177+944665753
962+944774638+945161573+945151692+944742102+944385907+944066438+943563333
949+943725712+945225945+947128284+948503165+949614867+950992243+952141571
935+952811446+953994407+955814508+957771738+960161113+962815265+963928663
922+962380724+960659927+960924903+961695379+961747776+961182394+959887355
908+958282927+956847565+955672589+955069681+954919178+954152694+952238379
895+950065177+948813751+948822733+949240507+949252883+948725725+947833290
881+947903251+949402886+950316380+950300711+951774397+955908822+961474416
868+967068555+972408596+976800411+979882217+983042868+985895327+987029485
854+987746866+988504568+987278193+984455574+983250357+984341999+985052195
841+984072432+982646252+982404330+984121335+986490650+987741477+987198151
827+984436712+981296621+979659059+979163239+981280652+986131460+989752800
814+990611003+990879771+991978100+994264878+996820225+998082728+999426571
800+1001388192+1001675025+1000318308+1003102103+1015397391+1026303426
789+1023324416+1017346836+1018064318+1021021071+1024014851+1028213749
777+1032633110+1034939549+1034168174+1031919521+1030963611+1033004176
766+1035949552+1036091771+1034116477+1033718863+1035760226+1038518173
754+1040100544+1039082657+1036937798+1036517729+1037094288+1037187504
743+1037197385+1036518228+1035329578+1034508801+1033568860+1032736206
731+1031385377+1028313451+1025583150+1024609475+1022761430+1019266540
719+1017646244+1019445087+1020911887+1018702655+1016088225+1015783927
708+1013995862+1011371751+1013057218+1016183537+1015600889+1012618286
696+1010157852+1008582566+1006307864+1003810802+1003734752+1006028118
685+1007733246+1006780530+1005745876+1007796022+1010309152+1010165137
673+1009132279+1007986445+1005249657+1005073805+1009427097+1012672878
662+1013890371+1013597949+1013193549+1014086184+1014714242+1016201501
650+1019300873+1021017279+1022799754+1021774381+1009961440+995517601+991917519
637+987684689+963940540+945582940+960944564+987281287+998026440+998322355
623+993542406+987728802+982764319+979965553+980991125+981187437+982454830
609+988489198+994939843+996457642+995390652+997329817+995872998
##END=
