##TITLE=Sample description
##JCAMP-DX=4.24
##DATA TYPE=INFRARED SPECTRUM
##DATE=24/8/2023
##SAMPLING PROCEDURE=Instrument type and / or accessory
##ORIGIN=Default
##XUNITS=1/CM
##YUNITS=ABSORBANCE
##RESOLUTION=4
##FIRSTX=4397.6552
##LASTX=599.8556
##DELTAX=-1.9287962
##MAXY=1.5408766
##MINY=0.53489435
##XFACTOR=1
##YFACTOR=1.4350532e-009
##NPOINTS=1970
##FIRSTY=0.78490609
##XYDATA=(X++(Y..Y))
4398+546952612+547090922+546710962+546541957+546038057+544903202+544067812
4384+543699731+543484996+543483874+543474363+543057894+542630044+543025247
4371+544104612+544773530+544090532+542365508+541238752+541541209+542476988
4357+543370235+543919658+543772707+543138263+542704931+542289417+541243404
4344+540729245+541763918+542920912+542807439+541849895+541622368+541772973
4330+540259902+539225976+541763088+544304311+542920663+540505414+539968203
4317+540247068+540120636+539509243+539519918+540361870+539905402+537982881
4303+537044485+538288868+540689081+541978903+541085987+539464095+538910312
4290+539583965+540198181+539646225+538334266+537274505+536706392+536651068
4276+537514701+538917456+539588367+539461977+539484406+539525400+538892701
4263+537515282+536200664+536220726+537085979+537123111+536891014+537684786
4249+538718712+538904455+538496916+538058890+537617499+536769317+535778505
4236+535916483+536562889+535702911+534542471+535136169+536562142+537528615
4222+537917879+537493186+535955692+534216796+533720788+534578814+535359169
4209+534636962+533668620+534512898+535800684+535031543+532668628+531391101
4195+532447539+534146603+534700677+534489223+534408189+534281300+533781096
4182+532895533+531855460+531306079+531286101+531299600+531181267+530823237
4168+530637784+531608826+533416421+534118691+532950733+531500711+531233310
4155+531730025+532042657+532027580+531520980+530549523+530044418+530633008
4141+531813510+532624311+532659324+531739910+529972854+528690093+528623970
4128+528959072+529403744+530119222+530260856+529082306+527640176+527436697
4114+528235038+528758833+528656118+528259543+527424943+526548683+526836229
4101+527875969+528150431+527934741+528016399+528171573+528604407+528857478
4087+527935655+527039459+527311636+527768477+527874973+527856365+527511834
4074+527187239+527450196+527984085+528197200+527449905+525806207+524534661
4060+523841861+523307391+523799744+525100240+525610703+525343427+525209851
4047+525222062+525423713+525964538+526163531+525637451+524871425+524521038
4033+525108340+525928652+525775222+525124372+524923011+524686554+523591074
4020+522303495+522127595+522767522+523410729+524157899+524192539+522849262
4006+521641638+521584071+522488200+523906281+524744661+524836536+524975304
3993+524942325+524021332+522788912+522564749+523369319+524456534+525332503
3979+525289265+524207242+523098180+522530856+522075510+521844660+522002949
3966+521364808+519707362+519136923+520446931+521861440+522487868+522528073
3952+521891470+520820453+519877904+519337038+518705460+518108688+519193577
3939+521748175+523383607+522778944+520450669+518116953+517558352+518066572
3925+518293518+518982123+519853399+519252556+518046967+518183118+519540143
3912+520911539+521382087+520326397+517283018+513828693+512454556+512558933
3898+514080228+516690731+517646281+515519284+514464342+516619084+517142256
3885+514874248+513621144+513007384+513901960+516259974+516757021+515191284
3871+512497793+510636204+512124894+513271877+512892291+513906529+515456026
3858+516296275+514706988+507005190+503868150+509661548+514847791+516484968
3844+515604596+513966796+511325100+507112433+506162906+509662130+512832772
3831+514228424+514956155+515072909+515248726+513449854+507962193+506611108
3817+508500734+509445360+512357946+516296109+517689934+515378772+514136050
3804+514764347+512320523+511208221+513658982+515521236+517299382+518759455
3790+518374469+517184622+516123574+515554132+515926823+515515172+514589984
3777+515819497+517605120+517374394+514986683+513457663+514265722+515146177
3763+515922171+515862735+513742176+512682333+513658068+512685323+506383290
3750+501786800+504901577+507936650+507907700+510585614+514490218+514716209
3736+510045164+505801802+506807401+510437958+512908531+513012036+512129380
3723+511352388+510870460+511960873+514487726+515911746+512805026+506695714
3709+506410163+510880055+514424883+514178042+511629592+511990529+514892898
3696+517176024+517730223+515716616+510868923+507909860+509523154+512698282
3682+515071746+515452205+513037580+506456599+501809893+503043892+502517604
3669+501617213+504836866+507947781+508579982+507728726+505996559+502857442
3655+501281197+502495716+500411749+492359646+489028223+491768939+494450840
3642+494890652+493341072+491270479+488900005+486285307+483775816+477967548
3628+470646251+471164979+474054638+473616986+468828356+462704465+460275385
3615+459231657+457269678+455620248+453459442+451327751+451275750+451156130
3601+448880106+446161321+444199549+442136059+441021680+441539370+440325100
3588+434638114+430402645+431155297+432220498+430837639+428277932+426313128
3574+425551048+425596529+424574689+419945096+414127815+413690329+416051541
3561+416844897+416721414+417281470+417226893+414838310+412184153+411493679
3547+410971794+409379599+408057172+407598877+407528185+407225023+406479972
3534+405718514+404732395+403016426+401653213+401431915+401051000+400295025
3520+399892428+399367636+398639531+397998815+397323999+396676347+396065245
3507+395527827+394522103+392641740+391294600+391232547+391395031+390751200
3493+389483060+388499973+387875372+387071466+386165011+385395828+384943846
3480+384946671+384851141+384503577+384114438+383421264+383107551+383821493
3466+384371372+383591598+382049535+380868410+380026168+379192980+378753915
3453+378796239+378876775+378494780+377715088+377406983+377608842+377647262
3439+377525981+377303479+376840490+376386224+376202017+376064246+375451483
3426+374281282+373194275+372734858+372802062+373140861+373673711+374144010
3412+374386780+374707180+375106246+375314336+375291242+375077795+375021058
3399+374942059+374353013+374021440+374587726+375438317+376277984+377404325
3385+378353021+378579054+378723096+379204194+379464326+379417974+380101761
3372+382051488+384006240+384755237+384971425+385863884+387333426+388501219
3358+389113691+389825431+391325170+393164455+394420467+395218351+396236618
3345+397451635+398490338+399375195+400106706+400823389+401798211+402429623
3331+402397267+402470576+402741092+402784828+402944280+403247235+403248232
3318+403471980+404202743+404522312+404273477+404052844+403930067+403826438
3304+403899124+404482812+405256813+405403016+405089303+404777294+404665441
3291+405158750+406067988+407209489+408751800+410074434+410773797+411158783
3277+411495008+412178629+413273818+414387533+415165936+415486626+415581533
3264+415916636+416794557+417618981+417686309+417451472+417655449+418234693
3250+418748271+419188249+419663656+420545606+421945329+422436810+421506306
3237+420650856+420782895+421637722+422513525+422927793+422923557+422966337
3223+423323537+423582465+423989298+425086274+426047929+425932711+425210006
3210+424625694+424165406+424083333+424665858+425403433+425862268+425950613
3196+425729980+425306699+425257355+426323886+427527481+427758415+428025857
3183+429184055+430289089+430352014+429978034+430314923+431524001+432852949
3169+433366028+433141366+432947980+433023698+433449430+434205280+434793205
3156+434783361+434487841+434511931+434756655+434977454+435367673+435927479
3142+436251367+436051626+435867253+436243185+436843986+437385600+437653374
3129+437258794+436570978+436317989+436493141+436759670+436947200+436837506
3115+436440226+436095446+435969346+436198992+436796636+437056478+436638139
3102+436443424+436961571+437326329+437009917+436899186+437530224+437998030
3088+437828028+437864496+438430491+438859753+439254458+439931558+440258811
3075+439961380+439402654+439147713+439670470+440420506+440542493+440295195
3061+440343168+440515039+440422832+440262590+440249133+440439404+440865219
3047+441127511+440896495+440581910+440642260+440901853+440831368+440468686
3034+440318039+440338433+440402064+440739618+441384570+442027695+442346765
3020+442144948+441360189+440680140+440746720+441142048+441554364+442000697
3007+442365954+442744627+443136259+443318679+443532459+444148212+444787267
2993+445111155+445538133+446447786+447475565+448098462+448629319+449369967
2980+449968982+450423913+450982971+451466768+451587925+451416470+451271887
2966+451277661+451201486+450777291+450103430+449661915+449817172+450335402
2953+450734593+450890972+451058689+451651889+452663344+453284871+452944286
2939+452159320+451634527+451519102+451801414+452291691+452397563+451901347
2926+451442471+451456551+451248420+450326306+449745483+449944061+449674833
2912+448837034+448543342+449068300+450192481+451261254+451503402+451291325
2899+451273133+451531106+452083186+452559383+452589413+452414842+452187231
2885+452097682+452513902+453251893+453773237+453845342+453743249+453662962
2872+453369062+453076906+453192456+453315981+453190213+453401459+454122587
2858+454677491+454823112+454787559+454270533+453220866+452420864+452340619
2845+452781386+453435393+454090439+454748059+455348860+455678729+455995681
2831+456496134+456884568+457226150+457568272+457784917+458014397+458280801
2818+458898881+459942235+460583532+460662988+460713702+460789628+460829293
2804+460989244+461532228+462388551+462927175+462895484+462877956+463482578
2791+464454492+464932184+464783240+464766419+465255740+465701450+465733390
2777+466002619+466750370+467178261+467052162+466883489+467002486+467337215
2764+467582976+467791398+468221283+468832925+469483110+469884419+469893059
2750+469886122+470140648+470537430+470955062+471304037+471458007+471590461
2737+471997835+472441136+472572967+472668497+473111092+473807880+474448346
2723+474764800+474841764+475115810+475693642+476252950+476473375+476543278
2710+476973080+477591824+477836049+477695495+477837544+478652748+479404403
2696+479706070+480155518+480722302+480937535+480906633+480917308+481060105
2683+481310310+481693801+482259920+482777444+483060587+483236653+483349129
2669+483470286+483693328+483873090+483991589+484244951+484671555+485132633
2656+485488420+485675742+485751585+485698129+485584532+485713206+485997097
2642+486311100+486846940+487396197+487699567+487911145+488328653+489085209
2629+489742123+489880517+489814560+489958146+490300683+490714578+491287716
2615+492137311+492936814+493292684+493421110+493607269+493854442+494359132
2602+495124618+495710093+496077385+496499420+496847689+497091748+497564870
2588+498333430+498965258+499023822+498980293+499442576+499974263+500386786
2575+500924163+501290168+501479484+501797516+502240733+502749119+503113961
2561+503170988+503157323+503329527+503683569+504106975+504539851+504947141
2548+505330673+505738047+506018116+506099898+506328630+506920999+507559306
2534+507785463+507839500+508220581+508589992+508775237+509282626+510002134
2521+510416319+510641686+511091425+511785679+512431836+512683039+512577125
2507+512617580+512925020+513253685+513579858+513910350+514218331+514560619
2494+514960225+515305795+515443192+515449672+515571327+515804794+515911082
2480+515834408+515695890+515576519+515587609+515760601+515972345+516089847
2467+515944891+515585698+515330591+515234812+515203661+515332626+515520821
2453+515440575+515141193+514904195+514760360+514700176+514651954+514425839
2440+514024862+513556889+513244714+513173274+513048420+512941136+512995006
2426+512757760+512157374+511598025+511119129+510804129+510819040+510822653
2413+510511558+510033035+509506250+509069553+508800407+508423313+507928841
2399+507560469+507209251+506720884+506026589+505121421+504302189+503846136
2386+503535664+502696869+500873616+498313203+495434218+492196705+488351538
2372+484094180+479901533+475959382+472376383+469380104+467060385+465624071
2359+465624984+467283303+469871336+472928588+476688442+479690619+479555714
2345+476230147+472638924+470774136+470394965+470995641+471905710+472400265
2332+472330736+472434282+473232664+474400166+475670217+477099429+478606893
2318+479997852+481149861+482075381+483016767+484140865+485321118+486370287
2305+487170081+487696119+487929503+488001940+488360801+489108593+489792214
2291+490223470+490555956+490831706+491053211+491230357+491413691+491624647
2278+491692764+491690479+491885153+492120946+492220422+492441138+492874055
2264+493223986+493507378+493983989+494505791+494847830+495164035+495640563
2251+496130840+496455642+496785761+497311799+497926223+498447153+498884182
2237+499320463+499680570+500052888+500743321+501598979+502155296+502498955
2224+503025990+503637175+504115157+504611457+505197554+505935503+506885487
2210+507626177+508025451+508552943+509333548+510205737+511068955+511805118
2197+512421452+512987156+513472781+513918574+514619432+515758109+516914022
2183+517658077+518343027+519315315+520267085+521063681+521915311+522831734
2170+523745251+524676918+525588607+526341716+526910784+527571852+528444996
2156+529226847+529844428+530442363+531013259+531540502+531835565+531824766
2143+531805494+531959920+532154344+532179888+532129465+532090132+531790043
2129+531066714+530153696+529379695+528622516+527573804+526322693+525036817
2116+523744503+522461742+521168639+519868143+518590491+517301168+515984183
2102+514609672+513058596+511401732+509834665+508419076+507123191+505781409
2089+504309499+502825087+501372822+499927287+498396439+496700157+495135209
2075+494012067+493044223+491873357+490519240+489061493+487672237+486517902
2062+485377148+484026478+482725650+481655672+480535645+479203541+477757548
2048+476382497+475239044+474215834+473084966+471844322+470717275+469706900
2035+468644149+467598884+466618289+465628556+464603644+463482536+462289782
2021+461171872+460027880+458721112+457631363+456996213+456452024+455714532
2008+454830547+453934392+453023160+452076956+451262833+450583489+449729368
1994+448430284+446863924+445752868+445306410+444998970+444560570+443957360
1981+443179122+442364542+441698573+441168257+440571402+439790257+438726343
1967+437545716+436829739+436596438+436301500+435794817+435237835+434655517
1954+434016048+433298077+432530888+431750366+430842872+429746187+428968614
1940+428997730+429127817+428769995+428211767+427680869+427164010+426587466
1927+425802873+424566341+423288149+422842481+422713972+422476227+422671108
1913+422869852+422357354+421419166+420882703+420842580+420842414+420668840
1900+420239661+419599070+418928241+418483154+418103609+417428212+417094895
1886+417424848+417667785+417657733+417590738+417437890+417167166+416792854
1873+416172615+414649202+412539192+412348880+414061609+415341005+415494144
1859+415033897+414555541+414335739+414282450+414144471+413587697+412589117
1846+411071685+409718980+410375645+411825998+412300035+412225563+412030017
1832+410711204+408227631+407148433+407721364+408129568+408749557+409580046
1819+409814759+409515501+408948218+407932610+406677096+406152760+406288455
1805+406241271+405611977+404231028+403013893+402855853+402601743+400960827
1792+399478949+400747131+402666496+403021826+402197817+401206257+400553288
1778+400441269+399927359+397702755+394403604+393895384+396137973+398130729
1765+398827393+397902994+396697820+396813329+397261032+397705372+397512193
1751+395075596+391975978+391763653+393059829+393626820+393316472+392915911
1738+392971775+391835009+388629727+388436549+391351503+393920887+395268442
1724+395299634+394635493+393042218+388760562+384644713+386662349+390713819
1711+393019706+392941953+390638018+388132888+387124922+384846779+381008673
1697+380773711+384248221+388343386+390341792+389946505+388318964+384774384
1684+380715105+382810328+386701765+388317012+387286201+385482303+384219853
1670+382629070+383329306+386205175+386993464+385748832+385971833+387067521
1657+386352250+381988022+375505562+376012079+377316728+376265233+378555462
1643+383346169+385928595+385666095+382979998+381317318+386058682+391880614
1630+395300673+397345265+399435005+401815406+405681423+409987253+412351538
1616+414937702+420743229+426534384+430386322+433330723+436811962+440587600
1603+444323614+448199890+451854371+454879060+457718296+460982765+464576895
1589+468312867+472033679+475607042+479108011+482409529+484627196+484966618
1576+486466980+491805738+496305078+499106268+503637341+509391406+513972528
1562+516517448+515485807+514906064+523302324+532444922+539793591+545642479
1549+551087858+555456529+556950910+555598454+555256456+565308791+578094531
1535+585540807+590858756+598133825+604934692+609404210+612965943+615860462
1522+619426847+626104604+633708588+642182725+650896518+656904070+658745764
1508+656741129+660169203+673376106+683770605+689717433+693001381+697531997
1495+704669503+710476566+713416150+716420279+723488837+731813075+738137579
1481+742734069+747003099+750608319+752347464+753954529+759722964+767737104
1468+773956608+778416780+783943484+790676690+794814220+794393057+797934397
1454+810015790+821280194+829036153+834704905+842057561+851135324+859068636
1441+865814137+871021853+874741045+881310355+889847168+896445968+902961947
1427+911093879+917633284+921607914+924010952+924622510+927771346+936209307
1414+944304190+948725486+951252878+953433788+954819139+956655310+959100546
1400+959877662+959441132+959535000+959897516+961449007+963694046+964286913
1387+961910209+959414051+960501017+964471993+968938479+971869423+972208347
1373+972385036+974625755+976352191+976315391+976239715+975446483+973449988
1360+973109652+974667789+975687136+975305763+975592104+976882175+976991411
1346+975895640+974654664+971924000+966979614+964051660+965487020+967822439
1333+969533672+971140986+972477326+973552579+974757172+976405272+978597811
1319+980527767+981953574+983823055+986576978+990283211+993328792+994672858
1306+996982027+1001465376+1006047993+1009606363+1012460551+1015424059
1294+1019148983+1022586402+1024415678+1024626509+1024299630+1025555144
1283+1028582532+1031393358+1033149200+1034174694+1035112301+1035984532
1271+1035552071+1033011554+1029798256+1027748513+1026503632+1025063787
1260+1023544859+1023466774+1025749360+1028613268+1030040653+1029723991
1248+1028582781+1027736219+1027739542+1028277667+1028663774+1029239031
1236+1030339122+1031162674+1030682698+1028820526+1026744783+1025933193
1225+1027220025+1029147488+1029887555+1030634517+1032208354+1033080169
1213+1032876233+1032451665+1032107258+1032661000+1034829283+1037110872
1202+1037179737+1035365248+1034516941+1035755841+1037707561+1038744436
1190+1038022229+1036761149+1036374211+1036507039+1036825528+1037019911
1178+1036653491+1036018507+1035111304+1033569781+1032274560+1032989374
1167+1035617613+1037284238+1036204084+1034381039+1033478986+1032553757
1155+1031171811+1029261211+1026854934+1025734574+1026146599+1025606148
1144+1023130841+1020124469+1018122741+1017052970+1015294719+1012563557
1132+1010607434+1009996374+1008808894+1005246704+1000568557+996777759+993737162
1119+991201380+989004023+986409178+983373815+979833555+975476803+970476595
1105+965817969+962469683+960419193+959566816+958943545+956280749+951001759
1092+945775768+943688893+944460527+945070008+943111643+938539409+933504727
1078+929375171+925663788+922338844+919193247+916511179+915582129+914907438
1065+912346901+909445280+907758801+905744778+902257350+898540983+895573986
1051+893564616+891921000+888667414+884172767+881422831+880525015+879664746
1038+878947108+878226811+876708964+874682315+872094198+869421517+868588911
1024+869521284+869558416+867898768+866422123+866118255+866010264+865006119
1011+864014019+864197935+864219699+863117615+861960954+861614720+862361598
997+863709901+864610209+864911669+865185300+865448548+864903943+863411100
984+862202686+861704933+860691816+859028015+857688352+856329666+854485105
970+852344236+849862614+847273252+845201579+844169357+843701592+842995999
957+842065453+841182423+841074017+841830864+842742138+844400456+847447864
943+850966443+853502724+855077391+857395033+860568043+863226519+866092669
930+870259523+874362331+877625720+880941609+883953712+886401275+888788446
916+890322492+890865435+891851222+893647519+894926292+894733072+893551989
903+891988619+890216745+887934989+885418479+884059543+883845223+884007791
889+884375291+884082387+882751197+881013547+879495367+878982495+879737764
876+881404805+883402213+883859761+882423155+882103420+883271213+884495825
862+887446374+892359691+897413978+902864755+908748159+913423732+916083537
849+917200574+918145989+920492124+923219963+924955868+927486501+931627935
835+936550972+941747640+945347212+947452444+950322665+953043444+954499654
822+955242545+955323039+956068423+958675147+962725953+967200330+969871018
808+970303478+971345171+973603335+975370807+977922040+981914697+985086211
795+987400863+988711867+988754980+989888797+992218982+995036869+999617908
781+1005486775+1010460318+1013861270+1016672346+1018779240+1018774089
770+1017210886+1017355261+1021097961+1026056718+1028060273+1025701180
758+1022042047+1019785046+1019119825+1020235948+1021652617+1021755623
746+1021633345+1022006577+1022292336+1021672803+1020342693+1020233207
735+1021472356+1020659271+1015632065+1009606196+1007705896+1010279808
723+1013510883+1015359015+1015184735+1011810614+1006224765+1001628109
712+1000144736+1000348173+999864459+1000496369+1004454220+1008025797+1006862491
698+1002582994+1000066152+1000915040+1001178869+998557857+996794123+998545397
685+1000739182+999394285+997818288+1004028405+1013492524+1013045693+1007048982
671+1002538137+994196371+990859714+1001861867+1011450674+1011994780+1010361216
658+1015233165+1022138325+1020913298+1009504270+997348945+996626489+1007051640
644+1017404770+1017132551+1009861469+1010987478+1021723891+1030101210
633+1033903970+1038405595+1036805841+1028275258+1036638040+1063154603
621+1073741823+1063499591+1032431894+980336043+948453682+954471493+974281598
608+997951947+1030850997+1054504566+1055382279+1040828901
##END=
