##TITLE=Sample description
##JCAMP-DX=4.24
##DATA TYPE=INFRARED SPECTRUM
##DATE=24/8/2023
##SAMPLING PROCEDURE=Instrument type and / or accessory
##ORIGIN=Default
##XUNITS=1/CM
##YUNITS=ABSORBANCE
##RESOLUTION=4
##FIRSTX=4397.6552
##LASTX=599.8556
##DELTAX=-1.9287962
##MAXY=1.5533005
##MINY=0.41704333
##XFACTOR=1
##YFACTOR=1.4466238e-009
##NPOINTS=1970
##FIRSTY=0.66734242
##XYDATA=(X++(Y..Y))
4398+461310269+460730631+460666025+461247600+461420609+461163711+461210929
4384+461256788+461033388+460450206+459471933+458646604+458437666+458537417
4371+458072570+456967969+456228053+456616264+457677684+458407299+458840709
4357+459140293+458907334+457962023+456148244+454571627+454940843+456259862
4344+456268226+455261935+454792308+455065234+455748084+456184708+455760898
4330+454924609+454238751+454436936+455528681+455853192+455011959+454346249
4317+454546329+455127656+455047929+454059767+453076962+453042887+453854743
4303+454349792+454050538+453743414+453744485+453365627+452250644+451331909
4290+451833427+453177991+453529407+452918002+452749813+452789697+452355299
4276+451741874+450830185+449739882+449423322+450151825+450967183+450890382
4263+450679177+451461038+452330907+452032971+451168046+451099814+451587530
4249+451396308+450453016+449392750+449254927+450531219+451408916+450669742
4236+449880754+449884544+449755209+449261685+448583202+447911311+448103604
4222+449049285+449439515+448941541+448131745+447444074+447380663+447886837
4209+447950742+447265254+446857266+447181531+447345311+447062909+446884996
4195+446793608+446825664+447220138+447591620+447551283+447495247+447577076
4182+447181860+446360281+445629265+445219258+445375045+445834907+445965931
4168+445783445+445742036+445625103+445140437+444946002+445401744+445965519
4155+446133749+445750318+445235368+445254898+445334378+444698539+443919069
4141+443801847+444459193+444997958+444308928+443004000+442192515+442063963
4128+442595106+443529375+444140079+443873210+443133253+442733382+443005195
4114+443402718+443126496+442651183+442589914+442499145+442134173+441611847
4101+440877205+440069676+439910428+440602714+441440115+442111223+442344718
4087+442047112+441764833+441644480+441575260+441303240+440594638+439788180
4074+439476894+440055832+440904564+441012927+440481908+440053648+439944708
4060+439848253+440034777+440866287+441407977+440758377+439790981+439827034
4047+440346846+440086322+439499308+439515542+439859749+439923942+439445374
4033+438651895+438137686+438026439+437831386+437681450+438203322+438895979
4020+438888645+438340856+437817172+437702216+437730234+437352942+436969799
4006+436940875+437002390+437261390+437403498+437063617+437149236+437946589
3993+438195864+437270001+436061859+435388320+434931754+434587836+434775473
3979+435353380+435895812+435964415+435623669+435634959+436037179+436197621
3966+436083531+435882957+435532570+435411270+435604469+435054991+433562304
3952+432739653+433142738+433770954+434629575+435140775+434372759+433939349
3939+434694757+435485435+435276744+433635562+432366440+433373843+434866613
3925+434838101+434466948+434680789+433598851+431226117+430785620+432463472
3912+433706266+434023114+434033208+432995562+430739803+428976497+428410703
3898+429530054+432281521+434148369+432585720+430572356+431721661+432449340
3885+431080301+430524272+429635697+429335742+431258461+432046378+430619121
3871+428846050+428704478+430592586+430707747+429000395+429429108+431275272
3858+432800303+432298703+426479538+423625023+428481942+433477674+434845394
3844+432582012+430083322+428986509+426856459+425257922+426473275+428484003
3831+430303715+431532623+431579223+431717952+430660158+426525438+425667476
3817+427238860+427525754+429260754+431790263+432445879+430386079+429316789
3804+430239604+428996769+428371726+430046281+430841903+431748813+433169190
3790+433837990+433732759+432892061+432189022+432465738+431962449+431111080
3777+432428079+434505225+435015148+432968616+430538858+430143313+430313562
3763+430516032+430076483+428421581+428429821+430324110+430526744+426303438
3750+423045179+425829279+427963614+426080779+426475047+429178637+429821150
3736+426520328+422951031+423928727+427830900+430766791+430650641+429262278
3723+429129771+429640230+430307299+431604563+432916701+431346717+426396968
3709+424966950+427630038+430435440+431229413+430338490+430441826+431761710
3696+433052628+433778411+433102153+430236967+428259860+429585142+431813748
3682+433001331+433038537+431972420+427676349+424061976+425139630+424300621
3669+422404025+424336344+426638333+427093745+426927451+426556298+424573094
3655+423247566+424794764+424021309+416393144+411776188+413953045+416285111
3642+416176172+414358890+412211370+409405639+406012276+403277743+398296103
3628+390981531+390181912+392473229+392487980+388752965+383271249+380825340
3615+380073311+378422694+376477849+373574839+370668861+370413652+370705078
3601+368813426+365736293+363356473+361656578+360459643+359739792+357573731
3588+352725958+349850059+350469334+351012343+349923317+347947076+346312487
3574+345186235+344202049+342900769+339483550+334660766+333629259+335039542
3561+335120773+334231147+333936487+333573286+332267741+331154879+330778720
3547+329747790+327952923+326794121+326609966+326735346+326138876+325021091
3534+324768313+324966560+324166611+322583546+321343019+320583161+319943078
3520+319262597+318615613+318056844+317361551+316502312+315484567+314564760
3507+314268411+313906075+312919932+312080595+311682145+311388350+310957536
3493+310393472+309624158+308521721+307497960+306967518+306604379+306031066
3480+305536944+305307384+305074465+304589284+304116938+304282737+304643404
3466+304087354+302651733+301342623+300897285+301004288+300920688+300577368
3453+300160459+299534324+298544988+297475534+297086046+297425390+297812818
3439+297886200+297638531+297136581+296327712+295691585+295858250+296128086
3426+295744016+295122186+294561955+293885964+293560237+293994678+294657236
3412+295167736+295509037+295616164+295470451+295287944+295392867+295380444
3399+294801589+294186805+294306148+295142911+295722158+295694861+295859733
3385+296365495+296949913+297855896+298969663+300041343+301063682+301929019
3372+302746808+303476526+303998316+304772141+305902328+306914861+307821133
3358+309033416+310779417+312787404+314331616+315213289+316084147+317365692
3345+318859079+320102038+320705491+320933939+321414629+322246818+322925754
3331+323094067+323114524+323243879+323150926+322944234+323068624+323457474
3318+323788166+324008538+324204188+324117601+323595235+323126596+323170786
3304+323527291+323626033+323582730+324200171+325151127+325202815+324536817
3291+324396439+325195770+326630876+328222821+329421507+330245332+331054654
3277+331781880+332391184+333221539+334282341+335076500+335382121+335477587
3264+335515452+335608385+336261693+337664270+339139364+339965620+340021985
3250+339607487+339349559+339702830+340362525+340920243+341433174+341964461
3237+342228219+342072247+342172204+342944773+343459867+343319428+343536030
3223+344427881+345130612+345046579+344516796+344232375+344312761+344517414
3210+344853421+345186420+345292579+345497294+346031403+346429709+346479935
3196+346577214+346880506+347284662+347812220+348346412+348871580+349549033
3183+350029125+350087633+349921710+349522251+349288385+349829911+350852889
3169+351485884+351533308+351497792+351581763+351817359+352304786+352946063
3156+353525330+353784865+353707651+353563937+353523599+353640903+354107564
3142+354978257+355759705+355926699+355468979+354778671+354477604+354914310
3129+355570173+355636921+355126462+354791939+354980234+355299307+355506886
3115+355596089+355607338+355759458+355845777+355636633+355596048+356070702
3102+356625000+356666821+356400117+356358997+356568388+356722651+356583921
3088+356438106+356879632+357704096+358111919+358170304+358570463+359076266
3075+359040502+358924311+359154304+359017346+358334578+357885388+358054483
3061+358306766+358172528+358221518+358694318+359141943+359532791+359710951
3047+359531596+359417794+359609510+359578938+358996745+358699386+358987433
3034+359004326+358767659+358802681+358983643+359284710+359687506+359934227
3020+359942509+359811691+359749640+359719480+359601022+359703205+360261335
3007+361051065+361689746+361923900+361860036+361903258+362308856+362939709
2993+363412838+363646127+364014891+364574545+365183561+366021580+366953748
2980+367458768+367513897+367582664+367773638+367887893+367900089+368014961
2966+368438606+368773048+368422125+367566100+366790462+366389437+366469287
2953+366988770+367483736+367708332+368000376+368313062+368322539+368299712
2939+368461680+368433044+368236425+368354883+368638027+368572886+368155668
2926+367706066+367341093+366970229+366684777+366672004+366761373+366844149
2912+367146452+367498034+367509447+367325560+367340187+367733053+368411990
2899+368975023+369175061+369362368+369713950+369986217+370206074+370414518
2885+370592719+370944589+371336261+371462464+371436630+371352989+371060821
2872+370535612+370099235+370130343+370533305+371004127+371392049+371550967
2858+371550061+371649071+371729333+371428225+370789255+370246700+370206362
2845+370694654+371403174+372052980+372400977+372518322+372906862+373683984
2831+374335480+374526742+374619159+375067361+375728786+376135291+376228409
2818+376474883+377106930+377739802+377888049+377776225+378013016+378438227
2804+378779714+379337803+379971787+380287853+380463540+380709067+380969632
2791+381308811+381768014+382151569+382364133+382592684+382879413+383139772
2777+383504868+383917636+384163244+384306465+384449520+384583016+384707242
2764+384914862+385329113+385953250+386644011+387187514+387507988+387717956
2750+387934929+388174193+388453464+388786545+389014684+389070720+389256955
2737+389797080+390388667+390684378+390815855+391115192+391648889+392157412
2723+392449085+392579491+392870958+393586359+394257755+394475428+394616052
2710+394900268+395271503+395828851+396493325+397152195+397795326+398191283
2696+398317940+398518061+398844344+399115952+399299839+399430122+399584054
2683+399884668+400193894+400357551+400641931+401032737+401111022+400958820
2669+400924869+401020253+401221857+401576900+401902236+402036638+402094899
2656+402209772+402407132+402637661+402905395+403293565+403718116+404016134
2642+404286464+404682133+405024938+405227326+405524437+405913802+406271688
2629+406669128+407065909+407363103+407638295+408001372+408469351+408959662
2615+409371647+409775926+410303649+410863057+411329223+411760696+412212483
2602+412705595+413274891+413874842+414433755+414946357+415456692+415969953
2588+416428702+416782756+416968209+417085595+417438660+417976230+418342315
2575+418605105+419051824+419547326+419878059+420188026+420600382+420933876
2561+420990035+420963871+421324064+422114495+422848107+423238460+423449005
2548+423664948+423900091+424140838+424429833+424700245+424868022+425152073
2534+425748316+426531618+427222091+427541576+427578287+427714627+428033370
2521+428364927+428733443+429241842+429735820+430028358+430232846+430581915
2507+431027603+431299417+431387837+431563525+431968135+432423258+432663799
2494+432745380+432911138+433186660+433442981+433566095+433504991+433418054
2480+433521472+433720275+433815123+433920272+434186729+434393813+434371028
2467+434211698+433841534+433428437+433427283+433622748+433546070+433295188
2453+433087691+432945089+432803723+432542045+432180575+431862409+431662329
2440+431567522+431399292+431109967+430845158+430494194+430016739+429588932
2426+429209580+428894957+428713213+428500978+428126240+427808692+427724762
2413+427643635+427207794+426370433+425510329+424978116+424694312+424409849
2399+424103343+423772528+423256342+422633853+422028670+421366132+420757158
2386+420181434+419233898+417691191+415616640+413075965+410193721+407129731
2372+403865456+400433322+397062703+393893853+391276995+389475988+388263808
2359+387987586+389175992+391379466+394215852+397583298+399951375+399407336
2345+396330863+393579560+392469109+392099604+392118722+392557241+392995596
2332+393113023+393365389+394137855+395036319+395698568+396303834+397119480
2318+398290664+399630366+400705877+401475418+402173925+402963120+403868588
2305+404765527+405504866+405997278+406267073+406363569+406445727+406735670
2291+407146377+407531622+407875210+408125516+408351100+408619164+408860158
2278+409064481+409204817+409246391+409316930+409514125+409898092+410577399
2264+411325721+411808574+412188173+412664681+412993601+413016634+413093559
2251+413594129+414421106+415267613+415932005+416453259+416998987+417632518
2237+418269345+418785531+419271598+419902163+420582747+421108327+421576389
2224+422216265+422938505+423702525+424619529+425491623+426220456+426994900
2210+427728306+428335632+429095161+429998527+430772188+431532994+432458487
2197+433434493+434392000+435414896+436479942+437515651+438619716+439845863
2183+441025535+442006815+442900994+443901599+444959146+445932598+446937488
2170+448145465+449373426+450432003+451515837+452743715+453942834+455097908
2156+456309676+457402986+458236391+458895262+459385078+459778645+460166980
2143+460477606+460767054+460962313+460723132+460115682+459506296+458935846
2129+458269312+457458816+456514906+455548581+454595154+453377700+451681307
2116+449832340+448192271+446508528+444598293+442774008+441056601+439219625
2102+437287265+435308099+433343601+431480584+429611058+427648249+425709379
2089+423897866+422094965+420146412+418216647+416528495+415022499+413545057
2075+411973920+410343204+408825630+407385806+405817635+404110447+402454803
2062+400910778+399407336+397974929+396601523+395153046+393677993+392400878
2048+391239294+389893000+388468214+387203418+385986459+384687588+383313194
2035+381949841+380737661+379643320+378516224+377296421+376040031+374870825
2021+373794984+372591250+371207997+369981932+368999868+368002271+366983908
2008+366081983+365206593+364221274+363147082+362103791+361195191+360374724
1994+359405722+358164041+356998996+356128427+355301038+354489182+353770938
1981+353027685+352217889+351437553+350714077+349937326+349066592+348121693
1967+347218903+346617675+346191681+345546098+344672068+343845668+343158409
1954+342503782+341853667+341272504+340656155+339810513+338729996+337786580
1940+337418785+337308651+336963043+336354399+335692458+335201015+334775598
1927+334142644+333219438+332264692+331629512+330999257+330423904+330453652
1913+330513293+329961446+329217534+328892754+328885173+328797803+328514144
1900+328102653+327572644+326946056+326475275+326127690+325559980+325212292
1886+325330358+325301475+325129619+325028673+324870516+324695735+324542894
1873+324194114+323116419+321384757+320745725+321659269+322665642+322985168
1859+322781751+322510020+322341893+322149168+321885883+321485621+320785651
1846+319590817+318474289+318775912+319628723+319773200+319494691+319255387
1832+318488545+316910053+316054955+316351696+316664321+317052058+317364826
1819+317158134+316752020+316355816+315603478+314550442+314051438+314232358
1805+314358768+313836669+312565219+311553531+311463091+311296138+310103674
1792+308770214+309192520+310303362+310488238+309854934+309034013+308243398
1778+307914436+307730364+306462622+304069864+303399086+304830690+306204529
1765+306779737+306368989+305731070+305769491+305833314+305983909+305974392
1751+304451771+302173638+301802630+302699610+303121607+302650991+302010291
1738+302127945+301763302+299636074+299189047+301068873+302840317+303810020
1724+303868177+303437322+302385523+299416402+296440649+297674666+300278505
1711+301732173+301735222+300383530+299004438+298727392+297369684+294473555
1697+293954134+295932579+298570390+300081536+299920681+298930954+296648619
1684+293538750+294597121+297313464+298675848+298184939+296986068+296250643
1670+295116274+294893821+296403237+297052445+296293864+296227940+296742581
1657+296302558+293434631+288287336+288383977+289944298+289545251+290646040
1643+293698719+295791811+296183112+294810427+293816579+297234767+301750241
1630+304860871+307087747+309370618+312076330+315964639+319962361+322541417
1616+325498588+330605505+335488135+339222943+342617851+346314135+350022533
1603+353596404+357184861+360683538+363874060+366976079+370336356+373821601
1589+377441042+381339590+385350785+389174179+392566636+395175048+396882071
1576+399780962+404906934+409146021+412230735+416277818+421272684+425946788
1562+429227998+429808130+431234358+439242163+447482969+454277028+459823309
1549+464948416+469283258+471939877+472917573+474804611+484076305+494432988
1535+501309700+507642208+514958799+521175321+526030140+530529668+534406708
1522+538763882+545513607+553034481+560763550+568219777+574025015+577484714
1508+578661419+583297204+594215148+603374195+609591831+613596186+618323483
1495+625397308+631712593+636006603+639907211+646352820+654329312+661465105
1481+667537666+673074141+677704570+680738728+683483274+689910218+698974623
1468+706494919+711690565+717084561+723665933+729003893+732946898+740639503
1454+751701080+761224069+768895744+775832858+783476763+791257871+798515707
1441+805465512+811467246+817322216+825446377+834409424+841882007+848973137
1427+857353991+864937162+870357198+873932099+875314611+877994262+885094045
1414+892738938+898289503+901845204+903637270+904181473+904746031+905944779
1400+906832778+906851236+906814401+907722589+910697663+913976400+913924897
1387+910330795+909040659+911863119+915163034+918038728+920551014+921035969
1373+921060773+922441059+923179080+923533422+924902584+925792066+925406162
1360+924771478+924385080+924853553+925978631+926282212+924909342+922981885
1346+921681943+920810920+919491778+917141665+915688532+916627457+918218783
1333+919361084+919998323+920195436+921023278+923428109+925900099+926786861
1319+927270992+929213776+931852966+933557518+935495440+938870344+942106972
1306+944441511+946976129+950371140+954950066+959828205+962821573+964546808
1292+966836765+968619436+969477439+971300077+974414498+977572759+979976518
1279+980658256+979962344+979674915+979072945+977081294+975095659+973519990
1265+971635960+969919708+969210117+969610688+970281796+970568401+971218825
1252+972234716+972788396+973278707+973618629+973904987+974807406+975006249
1238+973609234+972314979+972902528+974462952+974987296+974957960+974776339
1225+973475491+972433807+972777519+973011385+973493373+975213334+976496629
1211+976476687+976672235+978400436+980370991+980580053+979897656+979601409
1198+979981215+981301346+982387775+982663585+983276515+983586523+982344925
1184+980714785+979934161+979368697+978512178+978045517+977946301+977799538
1171+977708068+977101731+976389255+977096292+978970103+979999426+978668253
1157+976707587+976859954+977410008+975072091+971005973+967761269+965096121
1144+962662613+961529954+960993826+958440914+953791119+949966695+948818297
1130+948747181+946477001+941434711+936159296+932613484+930241616+926913023
1117+921647910+916341923+913302408+911445654+908332140+904094783+899803534
1103+895931397+892860568+889732303+885392269+880438894+875953910+872957576
1090+871327107+869148067+865930227+861732178+856613992+852428798+848926249
1076+843963809+838546987+834666198+831532989+827988989+824879347+822777686
1063+820476274+817080851+813025857+809065382+806114041+804161450+802275278
1049+800289643+797786339+794948387+793390764+792603630+791184119+790179764
1036+790301229+790502216+790256483+789519369+788253131+786915778+785899887
1022+785035704+783779684+782287079+781670935+782200883+782908661+782977634
1009+782645871+782979859+783977786+784304275+784079227+784682680+786080601
995+787161675+787451823+787195873+786498807+785569772+784772831+783825501
982+782472820+780963405+779332277+777208366+774598841+772205135+770222714
968+768167364+765713585+763153504+761593244+761135978+760362276+759535422
955+760041967+761734239+764475200+767392508+768570738+769164220+771352159
941+774378325+777174580+780588214+785065122+789375325+793244742+797559477
928+801742282+804463136+806048776+808025099+810352716+811794230+812605014
914+813763713+815297109+816431663+816391120+815410086+814043479+812322529
901+810611880+809350999+808498682+807800463+806451902+803758571+800643656
887+798633876+797877479+797625731+797274685+796825082+796782891+797028706
874+797311026+798024572+799011786+799923023+801689213+804978992+808905269
860+812902991+817060827+821092088+824751043+827773252+830075983+832738659
847+836774782+841310939+845014805+847664790+849804029+852469671+856345846
833+860786084+863726713+863810272+863018028+864452290+868147009+872212303
820+876039282+878999770+880659905+882650072+886076315+889959988+893013924
806+895315501+897573402+899748157+902085333+905706134+910687032+916602241
793+924866573+932913603+934837929+933710626+935566308+939928097+944457497
779+946822526+947164013+949367857+953904344+956404352+956406660+958596824
766+962685357+963552754+961065683+958898427+958223282+958647504+959675673
752+960178262+960472366+961284716+960901120+959300317+958884995+958720103
739+957523085+957268700+956762156+953195660+950659558+952325049+952594184
725+949056448+946383718+946295709+947313001+948276071+950029158+952886146
712+952063165+945810261+941117780+942414426+945150937+944103402+941103359
698+940267771+941570844+943396448+944797336+943538350+940929072+941123631
685+942511499+943386065+945849238+949260648+951537585+950099862+945434987
671+943379473+945672150+951257160+955182778+952323813+949509347+951528356
658+949458997+943246636+942580390+947176786+949206590+945189914+942593987
644+944351195+936659908+921485489+922910192+955517508+1023751465+1073741823
631+1026681876+962798170+941625726+936004869+922289022+913943520+926230791
617+941253666+938445216+931695820+934505259+947144730+958248580+956728369
604+949465013+943157144+931357135
##END=
