##TITLE=Sample description
##JCAMP-DX=4.24
##DATA TYPE=INFRARED SPECTRUM
##DATE=24/8/2023
##SAMPLING PROCEDURE=Instrument type and / or accessory
##ORIGIN=Default
##XUNITS=1/CM
##YUNITS=ABSORBANCE
##RESOLUTION=4
##FIRSTX=4397.6552
##LASTX=599.8556
##DELTAX=-1.9287962
##MAXY=1.3085575
##MINY=0.31192079
##XFACTOR=1
##YFACTOR=1.2186892e-009
##NPOINTS=1970
##FIRSTY=0.50500059
##XYDATA=(X++(Y..Y))
4398+414380149+413615019+413031439+412925551+412729867+412512223+413147108
4384+414091586+413568947+412238969+411863105+412396798+412715879+412040106
4371+410937066+410578955+411254924+411858214+411390842+410800023+410948168
4357+411009989+410476687+409700602+408895440+408596950+409168841+409609411
4344+409319137+409336133+409955172+410005671+409021625+407744396+407076546
4330+407380465+408075655+408398600+408291368+408018016+407960817+408228251
4317+408488201+408817847+409166371+409040773+408384221+407615570+407170182
4303+406819383+406725405+407681010+408734506+408265788+406675127+405614833
4290+405470380+405235105+404881298+405136798+405977565+406716357+406563346
4276+405729450+405144501+404835642+404357093+403852575+403604142+403905347
4263+404534559+404326672+403065094+402072807+402470020+403839540+404587136
4249+404031752+403019119+402438743+402237605+402068674+402151061+402308205
4236+402001792+401578119+401332621+401256128+401574524+401892652+402035563
4222+402591461+403467393+403864997+403125961+401786373+401229350+401536938
4209+401712129+401430047+400978546+400532204+400328083+400456958+400624764
4195+400792105+400951132+400995517+400900854+400566489+400303531+400167833
4182+399635583+399014050+398889821+398993263+399064035+399109715+398747130
4168+397989214+397707255+397903942+397677396+397198579+397240885+397914628
4155+398397041+397706106+396796622+397034954+397737994+398089208+398067713
4141+397702413+397375873+397421505+397514505+397243404+397001721+397273874
4128+397530719+397045568+396215316+396230918+397257221+398131490+398073631
4114+397194128+396023471+395188109+394629130+394014566+393843092+394376516
4101+394688334+394295474+393982824+394198463+394370940+394235634+394296256
4087+394324354+393503591+392292829+391394594+390782451+390693755+390835566
4074+390501446+389962764+389689046+389832520+390395167+390921059+391396477
4060+392082839+392178431+391341503+390434807+389788551+389507374+389782462
4047+389958191+389669018+389548995+389652046+389509404+389031100+388378387
4033+388075691+388395799+388694705+388537145+388602463+388961062+388498899
4020+387520991+387249743+387497295+387558920+387509009+387570267+387232918
4006+386419442+385947717+385876188+385629100+385310606+385485211+386039617
3993+386412424+386315731+385705765+384903758+384398995+384473727+384630578
3979+384327514+384015574+383818667+383548666+383688081+384306117+384690296
3966+384703354+384808190+384706533+384010390+383171432+382552247+382181885
3952+381978717+381738795+381647360+381959129+381832651+381127166+381370145
3939+382352992+382599566+381718987+379986564+378690407+379170936+380324475
3925+380721565+380947500+381173532+380227170+378813632+379081481+380913973
3912+382444941+382565721+381244229+378429820+375271827+373891962+374190013
3898+376092590+378997896+380475823+378751151+376889682+377690735+377625882
3885+376211341+376687224+377252414+377910017+379551300+379293183+376957787
3871+374356914+373094455+374767870+376094522+375896466+377043231+378901424
3858+379700031+377240627+369390982+367499996+373347510+378335720+380250182
3844+379419979+377504270+375107836+372288658+372258824+374567271+376051336
3831+376883715+377657721+377772657+378008740+377176190+374080066+374199012
3817+375761893+375767860+377957581+381540030+383095795+381012597+378619293
3804+377725607+375620767+375369596+377518698+379022375+380730467+382734457
3790+383809399+383930913+383294731+382648010+382809752+382325995+381635329
3777+383022750+384870940+385118174+383648024+382744336+383554706+384441252
3763+385424906+385538668+383479387+382066827+382399994+381314903+376913745
3750+375559802+380069048+383062732+382527474+384288632+387534025+388260321
3736+385104260+382627909+385717087+391320106+395422333+396753949+397441118
3723+400050917+404481175+410550637+417862799+425500546+433791129+446296135
3709+464164189+482513212+498724480+512075755+521763271+528255917+532510739
3696+534622573+534106585+530103496+522760571+517115809+516368238+516034679
3682+512784004+507168587+500321450+489797691+481946701+482314447+480657416
3669+477194916+478166539+480123087+481715069+484634974+488813793+492991828
3655+497150643+499127390+492982487+476894958+466240270+465203550+465768349
3642+465042004+462980644+460168534+456823709+453536841+450872533+445098847
3628+436655327+435265143+437039017+436405158+431820006+425985868+423925340
3615+423297204+421331070+419091486+416110836+412938121+412121050+411987236
3601+409742566+406063742+403038952+401111260+400555020+400899387+399396272
3588+395115944+392888954+393767552+394414689+393637308+392519815+392055548
3574+391769138+391065218+389470839+385736137+381354690+381334075+384240921
3561+385961680+385865648+385849361+386515597+386908164+386465417+385282557
3547+383783673+382931168+383196302+384257086+385495653+386385084+387064085
3534+387526420+387241355+386308175+385538937+385082569+384677971+384915716
3520+385862640+386591381+386745249+386261222+385410356+385038918+385314274
3507+385501326+384779970+383593418+383114600+383047375+383302801+384386034
3493+385375655+385078681+383765039+382685401+382599273+382720151+382380210
3480+382525909+383414411+384045311+384092067+383884816+383620709+383298864
3466+382784197+382006987+381302284+380932802+380890496+381158076+381005481
3453+379975901+378951115+378370763+378184445+379007923+380271824+380484431
3439+380119962+380311343+380713544+380346141+378866038+377501335+377565650
3426+378383748+378583516+378059336+377630112+377767204+378200829+378346944
3412+378064178+377752580+377707828+377898744+378089488+378124238+378200560
3399+378514922+378903502+379278242+379610724+379636817+379439494+379385719
3385+379433014+379323971+379286507+379605173+379901951+380012461+380302025
3372+380851076+381649928+382507055+382888446+383056790+383461951+383600485
3358+383500442+383899024+384823866+385723617+386252076+386426852+386199328
3345+385743816+385756434+386492414+387462619+388515210+389988588+391370580
3331+391672298+391238599+391296923+391890114+392272923+392681385+393455294
3318+394215728+394600078+394709365+394913094+395124625+395432579+396144887
3304+396673176+396617591+396669190+397317158+397998140+397890150+397054860
3291+396975604+398712307+400745593+401437677+401518768+402292677+403836777
3277+405360507+406385562+407116089+407905526+409019131+410314750+410964210
3264+410706852+410666991+411605845+413024152+414453658+415952518+417440031
3250+418603083+419272595+419527557+419744076+420383559+421433827+422231774
3237+422171030+421766016+421898559+422478128+423342151+424441768+424886936
3223+424464364+424347668+424938144+425319241+424983922+424360922+423896435
3210+423699186+423776413+423912281+423654238+423149108+422956359+422867393
3196+422636446+422457097+422321375+422295111+422369208+422302545+422026651
3183+421688397+421319429+420763972+420120381+419710427+419981382+420719905
3169+420680680+419871288+419515379+419505841+419124353+418456112+417861429
3156+417696411+417936700+418041169+417897524+417595854+416992417+416365260
3142+415909527+415426944+414869188+414198061+413594869+413236073+412906183
3129+412584315+412217596+411599682+410985681+410823695+411195598+411578749
3115+411504701+411359247+411429969+411471835+411277080+410605953+409832509
3102+409697667+409968793+410191866+410540219+410922589+410863458+410653835
3088+410836460+411074842+411256587+411481176+411279476+410869669+410861208
3075+410928017+410743631+410716291+410845459+410549463+410007358+409880855
3061+409936856+409583441+409141452+409143115+409023973+408095341+407009957
3047+406707382+407023602+407288028+406986700+406111551+405231094+404484085
3034+403510482+402597574+402318329+402304268+402037422+401812906+401748175
3020+401344457+400577616+400054022+399767955+399120035+398084342+397212493
3007+396907571+396914565+396616124+395984100+395506798+395319893+395265018
2993+395197988+394898104+394457704+394247983+394483944+395123133+395749264
2980+396061033+396126913+395976323+395629339+395152381+394543906+393931030
2966+393493443+392934830+391862162+390628560+389863772+389544691+389346733
2953+389264786+389227053+389022321+388571479+388091195+387948870+387915514
2939+387616559+387156987+386607668+386160593+386137581+386285921+386003791
2926+385166276+384220795+383630784+383303706+382789675+382092455+381700891
2912+381919391+382378743+382572715+382514734+382244366+381843509+381605543
2899+381545141+381460895+381288027+381147121+380954885+380554175+380368199
2885+380723668+381158248+381267608+381115648+380799917+380409796+379981624
2872+379567366+379281372+379075001+378955884+378951066+378925854+378763672
2858+378429429+377975775+377437167+376778903+375800507+374760461+374622538
2845+375311712+375973546+376459700+376632030+376362004+376050064+376047863
2831+376343297+376658979+376758484+376791864+376915041+376816539+376410693
2818+376217601+376381421+376491246+376398221+376357456+376501810+376550597
2804+376309305+376047521+375979195+375951928+375869517+375895781+376087675
2791+376259540+376247778+376059234+375905147+375910234+375901993+375840636
2777+375859369+375933563+375959191+375843082+375568606+375258891+375096587
2764+375235683+375634584+375981176+376100122+376224766+376427053+376461363
2750+376315394+376180357+376186984+376289399+376367825+376510516+376846569
2737+377348300+377720007+377539900+377013030+376823043+377026651+377229574
2723+377503854+378000205+378385020+378338239+378058480+378019329+378294318
2710+378556347+378657026+378660230+378665145+378827058+379160053+379374934
2696+379376915+379479942+379692891+379786967+379866419+379965313+380018012
2683+380156302+380262947+380207534+380265931+380529085+380747731+380861689
2669+381035829+381198622+381187030+381214639+381427417+381650001+381894203
2656+382313352+382776200+383049772+383148959+383218214+383404287+383733052
2642+384091285+384494416+384914420+385185987+385391746+385689625+386031889
2629+386460526+387022635+387444033+387547133+387644877+388039523+388642984
2615+389332305+390050775+390733127+391344829+391740673+392027254+392568283
2602+393301060+394010238+394628836+394975306+395153628+395611072+396324138
2588+396870768+397197430+397508343+397870879+398293109+398760800+399240253
2575+399823417+400503103+400970011+401143466+401272659+401445747+401607660
2561+401753066+401955719+402236285+402575883+403085831+403724385+404141161
2548+404163463+404065621+404161874+404491593+404914678+405261246+405441182
2534+405505106+405713262+406143219+406485507+406737730+407070946+407315270
2521+407503911+407822870+408111310+408312080+408530018+408606194+408552076
2507+408741818+409130447+409259346+409205816+409341342+409614987+409893034
2494+410097326+410149805+410167461+410241705+410274351+410189225+410072187
2480+410030712+410082457+410155209+410138409+410065046+410086321+410197344
2467+410158022+409882469+409552310+409265729+409063907+408920115+408725433
2453+408544911+408464480+408364462+408100648+407730530+407429496+407225302
2440+406967724+406584719+406199806+405883293+405578713+405350652+405198081
2426+404876138+404386659+403943814+403567167+403306336+403076123+402501102
2413+401681977+401127767+400871387+400725369+400692136+400529881+399952903
2399+399197213+398616128+398181499+397725865+397166690+396507717+395899976
2386+395395506+394686744+393332899+391263176+388806975+386077741+383017736
2372+379841916+376739874+373627292+370411660+367572821+365822252+365055827
2359+364711435+365051156+366968650+370410095+374195808+376589846+376149007
2345+373250157+370468027+369265922+369059233+369453316+370015303+370178878
2332+370168045+370593185+371371178+372116377+372909482+373867728+374801593
2318+375820804+377148189+378394435+379062725+379381782+379914203+380731909
2305+381557735+382104633+382283175+382485070+382910161+383160990+383211073
2291+383488582+383977890+384396794+384729716+385021873+385291581+385545051
2278+385643528+385581781+385594546+385787540+386038296+386251979+386526968
2264+386905816+387275078+387605750+387891207+388129148+388474542+388986519
2251+389454186+389822029+390225013+390573366+390863077+391308441+391864877
2237+392375509+392824101+393233492+393674699+394222257+394987020+396000557
2224+396915861+397471735+397935292+398558268+399233993+399886583+400681058
2210+401650259+402620390+403539240+404501643+405656747+406983472+408276181
2197+409489462+410762217+412244105+413873258+415436481+416889220+418335747
2183+419979132+421926339+423953805+425959653+428093203+430245631+432219835
2170+434053280+435814682+437663435+439789551+441880696+443495959+444848483
2156+446230304+447510003+448611136+449550039+450158318+450203216+449765971
2143+449135977+448234294+446753041+444723276+442418302+439905416+437019991
2129+433813920+430575765+427266106+423702707+420006570+416324225+412655819
2116+408929334+405238137+401749984+398352680+395032652+391843381+388601485
2102+385398226+382515736+379844924+377140633+374394892+371715520+369159716
2089+366708993+364373940+362190455+360157535+358250507+356326874+354235118
2075+352075060+350055199+348202680+346423964+344666817+342938819+341287755
2062+339724385+338235845+336784109+335230423+333521158+331839648+330353774
2048+328949773+327468276+326002650+324684092+323482427+322306390+321084037
2035+319848747+318716752+317678467+316627514+315542399+314433391+313366250
2021+312488777+311686574+310736716+309851736+309216581+308581696+307728506
2008+306670706+305604347+304686964+303792960+302778738+301771461+300924898
1994+300027568+298889558+297847653+297113214+296509117+295987406+295493036
1981+294875978+294151394+293402624+292635000+291943528+291332730+290469440
1967+289334291+288527320+288179872+287802296+287201720+286461143+285685644
1954+285074504+284649976+284109656+283288403+282374933+281403702+280626712
1940+280567435+280715408+280455213+279945730+279439768+279042727+278734136
1927+278306184+277445096+276519521+276228244+276044861+275766618+276028330
1913+276288720+275839321+275185190+275162301+275605586+275880160+275894344
1900+275808729+275530340+275026066+274654334+274395778+273912412+273763191
1886+274178085+274463272+274472295+274385800+274364990+274481515+274512890
1873+274069776+272555217+270487572+270375913+272164875+273582864+274073444
1859+274224132+274377021+274627557+274970407+275275916+275320472+274937712
1846+274102765+273887077+275589446+277634740+278719904+279428177+280173719
1832+280012882+278768348+278530016+279569524+280540266+281670475+282681469
1819+282837122+282345515+281584078+280337514+278719904+277670663+277251881
1805+276667641+275389360+273426552+271873501+271324989+270618085+268680782
1792+266857731+267580701+269080196+269262015+268434575+267530765+267064395
1778+267326228+267302238+265582507+262724275+262306545+264310290+266006840
1765+266626930+266182960+265747647+266165500+266628862+267070362+266775906
1751+264378983+261616711+261753802+263389289+264244484+263958538+263462603
1738+263491801+262447892+259596508+259424128+261926157+264182467+265283992
1724+265073635+264333865+262964589+259348907+255947788+257877118+261489523
1711+263607153+263745051+262168622+260677001+260398808+258886400+256006160
1697+256093414+259402926+263297780+265268488+265244718+264365215+261996928
1684+259576235+262565909+266979611+269473863+269871272+269857039+270262738
1670+270458104+272852240+277026583+279565097+280838609+283303345+286099535
1657+287172668+285393634+283591834+287650385+291189305+293927709+300217359
1643+307406001+312444490+315099994+316012608+319540401+328345798+336229679
1630+341969495+347200465+352598335+358354634+365557460+372447832+377655765
1616+383993687+392258886+399467312+405272789+410492680+415621210+420371772
1603+424780706+429147775+433115502+436197296+438836465+441758131+444906978
1589+448153105+451407644+454480732+457455366+460391607+462586342+463594646
1576+466769855+473633523+479437141+484601032+492086673+500346100+507427070
1562+512155477+514027462+520851073+536284495+550127255+562096416+572616850
1549+582876599+591856698+598521894+603163536+609453112+626770991+643996823
1535+655352521+666454284+679150084+689783595+698599947+707174152+714928253
1522+724172753+736377166+747996140+759833150+771686153+780944788+786498873
1508+788789664+796035163+810234615+820654345+827107472+831207499+835954784
1495+842829603+848424967+850367821+851074260+856230423+863460907+869432380
1481+873929057+877138258+879121706+879312842+878315004+881276433+888864342
1468+894789646+897019888+899495750+903990372+906235678+903277869+902845906
1454+911399862+920820190+927665566+931754343+936121900+942658270+950042132
1441+957109358+962719297+966748210+972435132+979955840+985793108+990446195
1427+996190829+1001931844+1006272208+1008239125+1007358766+1008520644
1416+1014828120+1020649541+1023454071+1024891110+1025376872+1023788509
1404+1021491164+1021246425+1020376728+1016499530+1013615475+1014494562
1393+1017832198+1020327232+1018761270+1013200631+1009615712+1011003353
1381+1014712598+1017673733+1018020105+1016873976+1017703079+1020323711
1369+1021866197+1022404487+1022464254+1020391596+1017764508+1017904974
1358+1018878847+1019039267+1019149508+1018678418+1016538560+1014100064
1346+1012809164+1012018015+1010170827+1006249612+1002976732+1003443811
1335+1005087440+1005165401+1004307149+1004246502+1005972690+1009001222
1323+1011592020+1012901602+1014044797+1015927004+1018050136+1020336036
1312+1023319963+1027125656+1031272439+1034523897+1036650941+1039227849
1300+1042978862+1046808129+1049288588+1050310000+1051508364+1053979629
1288+1056931667+1059596513+1061571842+1062150727+1061938267+1062105437
1277+1062648423+1062869100+1061840547+1060140085+1058727697+1057025572
1265+1055526517+1054668754+1053526831+1052588857+1052592477+1052967216
1254+1053284732+1053765310+1054786037+1056497650+1058374086+1060131380
1242+1062038530+1063098873+1062894141+1062896391+1062840048+1061847688
1231+1061443310+1062214308+1062921041+1063434388+1063715026+1063687148
1219+1064437214+1066115471+1067834518+1069400970+1070672501+1071162079
1207+1070639732+1069729148+1069723083+1070824608+1072294415+1073460695
1196+1073741823+1073676676+1073705728+1072858236+1070859431+1069232724
1184+1069079737+1069177359+1068081214+1066518871+1066581963+1068576074
1173+1069541045+1067318335+1063634816+1060943070+1059414474+1058427885
1161+1057739347+1056995640+1056106184+1054867910+1052931513+1049753320
1150+1045243144+1041441266+1039616870+1037518388+1033278287+1028066270
1138+1022944930+1018031550+1013294633+1007683618+1001184223+995004986+989106093
1124+983338374+977602152+971215933+964227058+957001759+949987843+943500284
1111+936742162+929476366+922880131+917637399+913140527+908963127+905630383
1097+902805312+899554636+896321763+893792688+891761896+889962443+888259927
1084+886804499+886037804+885916608+886039565+885834050+885182487+885023337
1070+885810182+887108809+888476789+889699998+891064554+892764429+894427720
1057+895860357+896926276+896971566+896376345+896459979+897367629+898983283
1043+901125783+902644206+902866839+902665921+903457951+904867405+905693573
1030+906641915+908507786+910721693+912640679+913780157+913969629+913649961
1016+913475357+914113617+915347097+916197720+917055776+918584176+920037844
1003+920802778+920739001+920057603+919457590+918840654+917431102+915469859
989+913959163+913074402+911874082+909488310+906598190+903891381+900815897
976+897922157+896024984+894162732+891634147+889203965+887370961+885747481
962+884126350+882967798+883104644+884298020+885177009+885161651+884958778
949+885728113+887272752+888630754+890131961+892261744+894841489+897284778
935+899391378+902069821+905234123+907465246+909067010+911187207+912748572
922+912964455+913463912+914783863+915375171+914704533+913939208+913960532
908+913911917+912260266+909569499+907328497+905753633+904923455+904018348
895+901676985+898900432+897390030+896607391+895185122+893416775+892765994
881+893374909+893594314+893291666+894515267+897558276+900618011+903055529
868+906159478+910745756+916007660+921444755+926935063+930987355+932539916
854+932923655+933219553+933367844+934016082+935264333+936646398+938749184
841+941543540+943820833+945138534+946620178+949364451+951241963+949249418
827+945622731+944369296+945366156+947467865+951016200+954991019+957633367
814+959097697+960294007+961777607+963403727+964708908+965974766+966816976
800+966811889+967653317+970375777+973517288+976630432+980511053+984810138
787+989395536+994158667+998498934+1003360959+1010532850+1019193819+1025198453
773+1027282653+1029600344+1033668775+1035778995+1035291570+1036551461
762+1040756739+1044002230+1043174595+1041214329+1043563126+1048659719
750+1050934077+1049555924+1045970712+1041922920+1039349534+1038276475
739+1039668224+1043546204+1045696823+1044092809+1040769161+1037450600
727+1034270647+1031806327+1032313023+1035398386+1037496379+1036881008
716+1034443686+1031552686+1029169066+1027325693+1025925922+1026025207
704+1026727342+1024586016+1020314712+1018836296+1020743642+1021354709
692+1019411268+1017742597+1017096414+1015689796+1013627213+1013346672
681+1014206489+1015693513+1019584503+1022910596+1022826766+1019849491
669+1013600705+1011194684+1017026376+1020670963+1019987512+1020655802
658+1026900186+1036053471+1038596534+1033548068+1030365963+1030537633
646+1032147124+1035624052+1034435176+1026380774+1022654020+1028520731
635+1036464403+1037744151+1030380244+1018257215+1008531208+1009737886
623+1018292332+1018917974+1008953193+1000125250+1001162899+1007709931
611+1012223530+1016280419+1021919605+1024208147+1020686027+1020618827
600+1024639620
##END=
