##TITLE=Sample description
##JCAMP-DX=4.24
##DATA TYPE=INFRARED SPECTRUM
##DATE=24/8/2023
##SAMPLING PROCEDURE=Instrument type and / or accessory
##ORIGIN=Default
##XUNITS=1/CM
##YUNITS=ABSORBANCE
##RESOLUTION=4
##FIRSTX=4397.6552
##LASTX=599.8556
##DELTAX=-1.9287962
##MAXY=1.2811505
##MINY=0.3412292
##XFACTOR=1
##YFACTOR=1.1931643e-009
##NPOINTS=1970
##FIRSTY=0.48685092
##XYDATA=(X++(Y..Y))
4398+408033410+408297948+409248893+409791355+409036134+408004736+407541527
4384+406983179+406208051+406479357+407861590+408100275+406553141+405292824
4371+405432473+406552242+407485902+406782010+405142858+404216391+403886962
4357+403992592+404832937+406141511+407124977+406682899+405123950+403934594
4344+403469787+403332236+403259576+402913187+402307457+402088778+402654745
4330+403222884+403025936+402621949+402412213+402210794+402165110+402262772
4317+402645228+403551988+404199581+403717689+402441237+401411137+401402146
4303+402380441+403396728+403305260+402279507+401500182+401037548+400475678
4290+400395775+400736794+400536898+399821341+399416006+399648672+399823839
4276+399629963+399903917+400498333+400262720+399211989+398477574+398525007
4263+398655839+398545113+398403166+398176570+398189333+398677145+398704845
4249+397868871+397389677+397754974+398365900+398900944+398767164+397515214
4236+395827881+395080103+395500025+395554576+394950020+395038490+395844416
4222+396352584+396179090+395620092+395399191+395817965+396180863+395982217
4209+395424518+394700869+394295833+394916800+396216307+397337149+398120220
4195+398091796+396758070+395356929+395444525+396456016+396604133+395601759
4182+394614896+394128108+393964555+394549105+395745605+395854407+394465405
4168+393353580+393350857+393826455+394452542+395140598+395571761+396030074
4155+396761566+396874840+395977172+395054900+394734289+394541662+394214156
4141+394023477+393997950+393924566+393562817+393186130+393147040+393196396
4128+393361023+393617018+393539038+393135925+392686154+392293258+391910427
4114+391698667+391731912+391549651+391020152+390602577+390555569+390416494
4101+389679931+389327074+390466699+391762809+391620362+391018703+390868813
4087+390123658+388770824+388214598+388489426+388650482+388520823+388406926
4074+388167890+387611141+387189645+387127675+387086612+387123005+387282187
4060+387057489+386430227+385972689+385999539+386217868+385830616+384929226
4047+384563605+384965769+385660045+386209326+386282335+386011978+385565130
4033+384753659+384097574+384339831+384625624+384068450+383429699+383155695
4020+382988421+383002483+382838555+382257752+381955100+381923153+381510699
4006+381190886+381596772+382224158+382454875+382306534+382009950+381802736
3993+381729178+381617103+381758002+382303062+382499086+382117154+381722908
3979+381423178+380973057+380351866+379968085+380002080+380030779+379967161
3966+379904493+379422551+378549311+378345144+379282602+380266292+379996410
3952+378570941+376950722+376228646+376753425+376852111+375968405+376002625
3939+376947026+377401867+376704519+375136753+374583425+375685285+376376738
3925+375790940+375462435+375565443+375094591+374903388+375921822+377475701
3912+378469532+378339100+377023907+374356904+371133551+369037635+368923612
3898+371261611+374488161+375748778+373787391+372115119+373030271+373006368
3885+371555372+371241029+371200965+372448294+374603033+374427665+372466253
3871+370289260+369102701+370549351+371362270+370987832+372448569+374176466
3858+373950419+369778868+361246113+361812354+370042831+375678941+377235067
3844+375718730+372508540+368905179+366402129+367288632+370032940+372416473
3831+374394195+375519309+375710762+375560797+372713431+367451935+367756461
3817+370819158+372810369+376124440+379239315+379443407+376509744+374517834
3804+374360725+372994778+373160254+375059497+376638228+379081907+381508026
3790+382467114+382419457+381690812+380886960+381021938+380933343+380787774
3777+382483525+384549693+384798669+382839080+381225580+381625321+382745015
3763+384096675+384047819+382116879+381688589+382398276+380188362+374438855
3750+373055898+377325361+379870348+380044442+383053537+386651753+386293675
3736+382287925+381942736+387818380+394592241+399210291+401236594+402873498
3723+407328694+414976295+424770217+435380631+445544146+455875560+470454157
3709+489785732+508294196+523996133+537556295+550171157+562961062+575325898
3696+585404240+590648776+589328213+582861975+578713404+579647214+580187928
3682+577907628+573725137+567900972+557628305+548855340+547906593+545529279
3669+541989711+543218906+545037172+544228548+541853933+539622339+536205659
3655+532656050+530847975+525628916+515052722+512438072+517993978+522915155
3642+525339426+525846870+525162135+524153792+523538045+523392426+520467655
3628+515977291+518545382+523255899+524453422+521705742+518342165+518271129
3615+519423543+519864047+520035693+518669970+517053124+517762936+518283418
3601+516675263+515069357+514526794+513723317+514007811+516426137+517190600
3588+514088338+512436723+514267577+516612520+517999273+518344663+518624012
3574+519292711+519877585+519549280+516724319+513571553+515139394+518659280
3561+520674769+521715483+522609330+523004475+523421700+524994936+526520215
3547+525940236+525063324+526871349+529945936+531837935+532121630+532352822
3534+534058439+536081471+536511185+536129328+536211504+536317809+537470573
3520+540139074+542485615+543845942+544453097+544412583+544298785+545070492
3507+546519989+546762121+546431668+548224407+550953804+552483129+553484180
3493+553990425+552844205+551112311+550739047+551783458+552629747+552552467
3480+553547523+556249694+558003667+557271575+555597380+554965198+555698739
3466+556770975+556997672+556606623+556930332+558060267+559064764+559509614
3453+559719026+559904609+559422043+558613270+559095186+560672169+561770532
3439+561827630+561339819+560855904+560427689+560255543+560887276+561982741
3426+562628461+562503873+561907409+561419297+561643296+562573460+563334926
3412+563703494+564378837+565493136+566197753+565149195+562915553+562180313
3399+563687759+565859207+567531104+567812801+566440584+565432091+566062174
3385+566865303+567196005+567955073+569104290+570296818+571264349+571080214
3372+570163638+570201054+570986898+571248913+571170983+571729131+572957427
3358+573791278+573751563+573578619+573833689+574736028+576057691+576618237
3345+576239028+575903579+575941645+576646911+577961879+579113494+579767057
3331+579563939+578632726+578074927+578192821+578680433+579263409+579162999
3318+578216051+577663048+578431257+579232437+578778545+578702663+579649063
3304+579414773+578422015+578826652+579476468+579035364+578698817+579147663
3291+579853629+580760813+582066190+582504047+581707712+582169297+584067791
3277+584660308+583744482+583651765+585230396+586958693+587781203+588357186
3264+589453301+591001659+592371478+593021793+593271219+593694638+593790902
3250+593383268+593327269+594253986+596483082+598865791+599423839+598383474
3237+597764381+598439074+599342113+599349006+598061863+596348703+596127452
3223+597368836+598549175+599261935+599182556+597961254+596704383+596319379
3210+596394412+596643638+596930980+596810188+596073450+595180553+594640938
3196+594058062+592955803+591694586+590667659+589740992+589054259+589584932
3183+591501959+592468540+590377470+587171651+585847042+586022534+585932665
3169+585433364+585250078+584949149+583708164+582350784+581838495+581568587
3156+580908381+579910877+578686528+577490752+576386795+575025818+573207153
3142+571337183+570266995+570230378+570327141+569871700+569407568+568920705
3129+567567921+566135958+565595544+565082505+563837274+562138651+560676565
3115+559774676+559177462+558962805+558753643+557679709+556377579+555684052
3102+554853299+553480583+552163716+551295047+551217866+551826769+552419786
3088+552733904+552697387+552117758+550973336+549634140+548913588+548702627
3075+548020990+547133438+547023886+547279207+546703424+545205670+543584427
3061+542306626+541285993+540382455+539819911+539662303+539218901+537941649
3047+536468873+535515979+534723242+533519674+531833139+529982053+528191712
3034+526335081+524666980+523777530+523411509+522559674+520910856+519173418
3020+517917697+517315788+516960707+515788510+513983782+512640040+511562808
3007+510243294+508949907+508153123+507689090+506817274+505567797+504590475
2993+504309428+504585330+504506051+503585079+502448750+501780001+501481519
2980+501022282+500258768+499394195+498384903+497096411+495782642+494785088
2966+494004740+493030365+491789281+490471965+488974511+487494990+486555685
2953+485916010+484957122+483933791+483413609+482966061+482080707+481115924
2939+480215383+479070462+477915101+477344214+477105878+476360398+474914648
2926+473186801+471686050+470607019+469736851+468844004+467797894+466654622
2912+465594624+464869976+464674701+464637035+464287100+463706871+463182642
2899+462740889+462054906+461049060+460001302+459092818+458499552+457982966
2885+457215006+456553351+455971724+455192874+454741979+454616991+454072331
2872+453024722+451637319+450177332+449340584+449084364+448629623+447830291
2858+447013825+446157794+445083360+443787225+442470958+441521212+441079109
2845+440842771+440526156+440143400+439872743+439705743+439356008+438576758
2831+437575658+436951219+436740658+436301653+435498575+434709634+434150387
2818+433962206+433913150+433438826+432585293+431959606+431732510+431319581
2804+430367237+429474889+429200036+429285509+429234905+428716421+427781910
2791+427123902+427178603+427335112+427042075+426551017+426008904+425351245
2777+424791948+424354741+423973084+423716914+423324067+422824866+422645827
2764+422558405+422223456+422015693+422188538+422232049+421721957+420995210
2750+420482871+420173349+419921376+419701923+419482320+419116699+418579631
2737+418114649+417852810+417560597+417142973+416935434+416952719+416716631
2723+416291063+416135903+416115946+415886702+415551403+415384079+415414476
2710+415457188+415376261+415148590+414897091+414838569+414827854+414568612
2696+414270130+414176739+414141321+414028347+413931834+413912102+413731689
2683+413501346+413541285+413455762+413069784+412861046+412914423+412968849
2669+412863444+412651260+412485734+412280718+412005365+411914822+412072905
2656+412211430+412008288+411510111+411225366+411412848+411824553+412166521
2642+412336942+412421466+412451464+412301999+412056145+412102478+412644616
2629+413375034+413774525+413727842+413652360+413848509+414213431+414636376
2615+415078953+415421745+415682710+416093016+416563319+416768160+416923045
2602+417420249+418072188+418507921+418802306+419318817+419974428+420284799
2588+420326012+420544615+420912185+421215063+421417381+421524485+421618650
2575+421811127+422072842+422275310+422435915+422647525+422774062+422712317
2561+422589477+422498459+422482873+422565349+422679646+422764220+422831810
2548+422836805+422706922+422503055+422244188+422054858+422214614+422540771
2534+422652870+422631490+422659115+422625045+422485471+422484422+422694033
2521+422978827+423227804+423223957+423011848+422930621+423005504+423072993
2507+423159016+423326315+423403446+423273563+423182195+423248036+423311728
2494+423366779+423406193+423312977+423288899+423517393+423704225+423643330
2480+423412787+423234947+423335257+423469087+423407143+423289049+423055359
2467+422718312+422449603+422146576+421816622+421574640+421341249+421206121
2453+421189785+421018340+420656964+420183590+419625192+419097166+418581330
2440+418171099+418020409+417907311+417629186+417152189+416557349+416102008
2426+415824183+415580177+415227095+414670645+414106002+413706237+413298278
2413+412745300+412194096+411750445+411400159+411125331+410752616+410223092
2399+409752465+409386145+409004887+408611890+408161795+407460525+406564606
2386+405729181+404767796+403133739+400695306+397863801+394945399+391976792
2372+389012681+386017773+383012949+380316098+378198926+376632983+375486638
2359+375061520+376009244+378137606+380873272+384068025+386462024+386331066
2345+383748488+381033728+379870873+379762845+379917206+380246610+380510073
2332+380249882+380026733+380560928+381463641+382134513+382693711+383560956
2318+384701481+385854020+386835088+387463474+387923635+388616163+389468097
2305+390138769+390563687+390855775+391081147+391283815+391429059+391502393
2291+391735584+392263335+392780070+392983362+392939127+392808994+392741754
2278+392817337+392872662+392805123+392671168+392530719+392561716+392880105
2264+393329326+393658256+393863421+394166449+394529523+394751798+394864796
2251+394966455+395147168+395493032+395903513+396297084+396788118+397441655
2237+398109580+398607857+399004376+399447702+399905865+400324789+400825389
2224+401624471+402638484+403617230+404535180+405363385+406203430+407301568
2210+408528940+409734906+411021225+412404232+413923741+415523953+417039066
2197+418707916+420793841+423028733+425105316+427166164+429529789+432172464
2183+434761387+437246404+439891177+442703199+445523664+448387940+451352425
2170+454400536+457422969+460236041+462908838+465587731+468086085+470290704
2156+472356647+474237506+475695046+476605728+477074806+477271280+477084198
2143+476273926+474847908+472919791+470433375+467335160+463666258+459445451
2129+454911726+450323650+445582411+440668928+435670770+430563510+425551815
2116+420838751+416297283+411749870+407231606+402954650+398961539+395195649
2102+391660901+388166567+384666962+381431745+378479548+375600786+372754969
2089+370090014+367688522+365438719+363296845+361263997+359225079+357197452
2075+355266162+353376911+351580275+349996724+348365015+346445116+344682325
2062+343371354+342124549+340715765+339266368+337900945+336621245+335290567
2048+333870093+332433110+330962981+329517181+328332620+327411473+326503814
2035+325622556+324916740+324347402+323866035+323481356+323094179+322572248
2021+321921358+321102444+320101918+319161563+318296341+317312650+316238191
2008+315154989+314172722+313251750+312144520+310966154+310034042+309170918
1994+307875707+306277443+305215748+304831393+304548822+304130298+303624503
1981+303076845+302426954+301675704+301009029+300466916+299769518+298556933
1967+297199578+296671702+296774610+296617776+296101415+295357808+294509670
1954+293919051+293616273+293265139+292666627+291694176+290232814+289138123
1940+289429436+290151662+290258516+289962532+289634977+289375910+289185056
1927+288785715+287745075+286676336+286548701+286658452+286671665+287248472
1913+287816111+287651784+287304796+287612694+288267905+288630529+288796705
1900+288912776+288685980+288110047+287756765+287543606+287074078+287137896
1886+287903083+288537863+289014509+289471024+289830401+290064441+290147266
1873+289774776+288147688+285986756+286343410+288878806+290880532+291797708
1859+292363424+292986339+293562472+293988888+294230921+293956542+293088348
1846+291928815+291691129+293648020+295890854+296939486+297600742+298303435
1832+297879292+296452099+296507175+297960119+299321820+300877247+302249289
1819+302827145+302901753+302575121+301460323+300077441+299711670+300116856
1805+300033880+298743765+296767541+295825388+296161985+296136458+294717733
1792+293666703+295561300+298056582+298827240+298419206+297954649+297933793
1778+298636686+298986397+297494837+294799610+294680267+297192909+299607663
1765+300700281+300184070+299778085+300574969+301242169+301562256+300708674
1751+297447405+294284173+294570441+296208668+296963065+296794392+296540370
1738+296626742+295278954+292157160+292441554+295844770+299143031+301027637
1724+301352895+301118006+299897703+296005226+293045811+296709168+302150952
1711+305657775+306717548+306001741+305778417+306984683+307234483+306568332
1697+308958359+315330407+322336634+326710703+329080348+330532993+330628407
1684+332298456+339723707+347943044+354265537+358783426+363080864+367157225
1670+371406581+379067670+387619983+393781670+399518364+407019921+414063740
1657+418318092+419791043+424606465+434631654+440944330+447344578+459135630
1643+470688996+478849511+483989491+486813353+492064384+502671250+511915142
1630+518188603+522975551+527333084+531614336+537123235+542412681+545066945
1616+547618651+553218868+558305596+561057173+562988637+565535198+568135311
1603+570445185+572904275+575383546+577366114+579368864+582422620+586263418
1589+590303436+594796948+599944571+605341770+610659490+615282036+618986356
1576+625621493+636088635+644788665+652324792+662292083+673759227+684271178
1562+691304157+693532654+699775343+716546220+732070367+744946044+755972933
1549+767134651+776657342+782303068+784678932+787698668+802181201+818911064
1535+828871512+836902943+847541931+856629663+861972461+866054892+870098457
1522+874551455+881479528+889725516+899270737+909263855+915830553+916894097
1508+912410228+912671992+925292849+935414551+939540243+938303055+936969554
1495+940820592+944321945+941965763+936853958+937767237+941892529+943937591
1481+943420655+941856761+939182365+933886525+925980431+921218910+923620452
1468+926133993+923958648+920802984+920760123+919725553+913719950+911180133
1454+918917779+927649630+934573907+940685913+947711499+954663550+960362728
1441+965839405+970475738+973612919+979714235+987824645+992665294+996829851
1427+1003414033+1008263775+1010725462+1012597879+1011836164+1012929481
1416+1020294262+1026283379+1027127720+1026203051+1025993139+1024910113
1404+1023060076+1022606383+1021083852+1017297055+1014865341+1015131202
1393+1017424141+1018803202+1016179860+1011279264+1010029987+1012606771
1381+1014896513+1016159278+1017205837+1017175265+1017371189+1019014812
1369+1019768134+1019446723+1018869542+1016678212+1014226715+1013854450
1358+1014009910+1013661123+1013379077+1013367387+1013252391+1012792504
1346+1011272470+1008749738+1006096922+1003332407+1001439708+1001265664
1335+1001648720+1002052857+1002658712+1003408139+1004562801+1006362983
1323+1008033482+1008866333+1009570200+1011470992+1014494874+1017969751
1312+1021740662+1025319845+1029230030+1033859669+1037772352+1040893447
1300+1044316470+1047824617+1050640686+1052718918+1054403604+1055180706
1288+1055255139+1056493426+1059237260+1061621217+1062418201+1061924245
1277+1060986487+1060653087+1060694250+1059610924+1057854502+1056513907
1265+1054639692+1052364337+1051693440+1052744995+1054104573+1055138244
1254+1055699040+1056202487+1056922740+1057374634+1057782567+1058656981
1242+1059681960+1060460560+1061192203+1062532398+1064360255+1065261845
1231+1064431391+1063050133+1063040441+1064476950+1065545190+1066105387
1219+1067298314+1068279433+1068332485+1068693960+1069919558+1071135765
1207+1071832539+1072120980+1071754809+1071170134+1071751312+1072989899
1196+1073180727+1072931451+1073497742+1073741823+1072393635+1070813955
1184+1070234276+1069705651+1069035953+1069049740+1069331787+1069129169
1173+1068295418+1066742814+1064603137+1062406012+1060727420+1059799255
1161+1058803849+1056224667+1052468843+1050085885+1049630694+1048554162
1150+1044789445+1039280896+1034750368+1031572725+1027559532+1022497481
1138+1017682909+1012811187+1007468190+1002131087+996659604+990580368+984023262
1124+977694550+972059914+966940416+962046515+956665051+950851577+945936394
1111+942458820+939524557+935236112+929101226+923283355+920333406+920433117
1097+920791195+920136483+919704871+919652418+919860132+920661411+921863531
1084+923119402+924364083+925887214+928121406+931014906+933567212+934696297
1070+934986636+936370692+939368398+942719286+945822097+949116536+952516280
1057+955229542+957250225+959427868+961522685+962565048+963087879+963893454
1043+964518792+964664961+964794645+965716816+967105268+967510603+967180300
1030+967419285+968440667+970006060+972126555+974299102+975258939+974946320
1016+974800052+975168321+975238857+974628006+973729014+973589040+974444271
1003+975096086+974465852+972849205+971650782+971150732+970416092+969337362
989+968490722+968210275+967620505+965947009+963968587+961601015+958302480
976+955108251+952812714+951017228+949228835+947577020+946293274+944742667
962+943285877+943250708+943597397+943267893+943300963+943846173+944396079
949+944586408+944494091+945285479+946747865+947478908+947843680+949293377
935+952025721+954817412+957006544+959256522+961206170+961403692+960852987
922+961347643+962161711+962179595+961316671+960579833+960889055+960905540
908+959586925+958135630+956905335+955342840+954326853+954001745+952929309
895+950918616+949193067+948581817+948629274+948460925+947922010+947384693
881+946770744+946350122+946937295+947326645+947497991+950620784+957139825
868+963789748+968514101+973082995+978811846+983532503+985560280+985438690
854+984823343+984238968+982595845+980443579+979215883+978577357+977925443
841+977605031+977784769+978874490+981556479+984625421+984789074+980895773
827+975943724+972559865+972109470+974935830+978194401+980115174+981988491
814+984119276+985620127+986093501+986627022+988333188+990007184+991097004
800+992878902+995163549+997386051+999765613+1001757922+1003484670+1006252382
787+1010045973+1013390567+1015364393+1017209734+1021659135+1028199057
775+1032512780+1033116337+1032385494+1031869158+1031813808+1033645462
764+1038248524+1042295687+1042513591+1041197774+1040965882+1040389600
752+1038946597+1038568637+1039886752+1041773456+1042455143+1041690531
741+1041188981+1041253124+1040798532+1039198770+1036042307+1032221441
729+1030377599+1030947786+1030646057+1028658144+1027949581+1028411466
718+1028809308+1030249014+1031074273+1029658145+1027609087+1024334830
706+1019357903+1016028795+1015752344+1015535739+1013997921+1012548523
694+1010775717+1008749738+1008013000+1006866430+1004786600+1004913386
683+1006685393+1008280460+1010328019+1011933876+1012999418+1014336117
671+1014022399+1011916691+1012445816+1015100530+1015947768+1015642143
660+1015074353+1015726067+1017939078+1016918496+1012007610+1009384267
648+1010531536+1011720368+1011267974+1011147083+1014448116+1019883830
637+1021156187+1016562316+1012083641+1011550920+1011015202+1007371077
625+1004657915+1004448903+1003130388+999852035+996434706+993691772+992649808
611+996683183+1005153170+1011772121+1010938970+1001574487+993158151+994133675
##END=
