##TITLE=Sample description
##JCAMP-DX=4.24
##DATA TYPE=INFRARED SPECTRUM
##DATE=24/8/2023
##SAMPLING PROCEDURE=Instrument type and / or accessory
##ORIGIN=Default
##XUNITS=1/CM
##YUNITS=ABSORBANCE
##RESOLUTION=4
##FIRSTX=4397.6552
##LASTX=599.8556
##DELTAX=-1.9287962
##MAXY=1.4372485
##MINY=0.42396772
##XFACTOR=1
##YFACTOR=1.3385419e-009
##NPOINTS=1970
##FIRSTY=0.67139405
##XYDATA=(X++(Y..Y))
4398+501586112+502659675+501724554+500908951+500940078+501014620+501476569
4384+502259799+502075403+500605037+499207255+499406614+500895014+501533300
4371+500448783+499199374+499065741+499282733+498602767+497671788+497965282
4357+499090633+499715159+499404210+498014220+496048998+495377404+496930238
4344+498775185+498917724+498063069+497588073+497581171+497551870+497712399
4330+498138190+498007452+497545191+497204184+496917191+497292797+497797495
4317+497453994+496359993+494388092+492597025+493127683+495737203+497680204
4303+497477728+496481736+496074336+495955264+495125189+493727763+493422157
4290+494790460+496186105+495708303+493802840+492934158+493804844+494875868
4276+495210329+495021658+494271513+492993159+492522883+493037110+492822077
4263+492182722+492585313+493571598+494561623+495413473+494624321+492313238
4249+491365338+492068771+492530631+492475281+492032301+491554945+491327399
4236+490949922+490941194+491426477+491466954+490730436+489473189+488842918
4222+489613858+490153422+489395129+489161928+490410758+491493004+491118822
4209+489617910+488218169+488198442+489325084+489977486+489721664+489380033
4195+489066278+488632561+487968492+487072736+486716767+487211356+487667828
4182+487441351+487167851+486924052+486012799+485565144+486141935+486155205
4168+485762187+485988976+486183882+486066235+485941240+485925388+486339958
4155+486630602+486473635+486582198+486610430+485942888+485115574+484671436
4141+484438146+484268221+484337108+484644674+484909046+484695705+484194213
4128+483724694+483228190+483109207+483076299+482528185+481984391+482017788
4114+482721488+483644986+484359106+484705724+484252992+483341027+482883887
4101+482840293+482679497+482102260+481242840+481084672+481867456+482090549
4087+481571157+481508860+481373134+480675980+480480228+481108272+481769981
4074+481657811+480870618+480229660+479936077+479746247+479462194+479158992
4060+479138286+479369884+479835173+480477155+480849199+480648460+480192077
4047+479818920+479674867+480137885+480719708+480679097+480372466+479740058
4033+478612036+477966758+478143941+478244444+478052433+478061072+478329986
4020+478753506+479086364+479112459+479053056+478738322+477784722+476796745
4006+476537271+476651668+476569422+476508416+476839404+477387385+477562875
3993+477024781+476580331+476884245+477031950+476692145+476472169+476336221
3979+476376876+476782718+477048515+476657724+475727724+474911899+474708577
3966+475029724+475443225+475582825+475637641+475771542+475527698+474974018
3952+474931447+475283097+475271208+475464867+475835887+475164381+474347621
3939+474472571+474619295+474150266+473135037+472501694+473395446+474674913
3925+474388187+473063834+472478405+472458589+472540523+473379994+474639200
3912+474994947+474791491+474983859+474513449+472566350+470514118+468929089
3898+468702790+470472572+472276374+471754087+470600238+471489047+471396515
3885+469562032+469658884+470230376+470682039+471939375+471898096+470856817
3871+469780672+468805030+469363920+469212386+468190033+469218843+471062989
3858+472478983+472369218+467102443+463461264+466605360+470651269+473225966
3844+473535714+471951932+469040235+464996152+463645705+465747766+467953447
3831+469431828+470474041+470686358+470842568+469495371+465011782+464002119
3817+465716417+466579221+469122303+472030660+472204593+469361115+468211184
3804+468957321+466678745+465501829+467834598+469676740+471055419+472557801
3790+473359021+473244713+472467094+472010533+472347488+471562031+470040947
3777+470624061+472188028+472611325+470928911+469168569+469797237+470913904
3763+471772923+471962575+470293029+469147061+469623973+468955050+465326294
3750+463567511+466385117+467790024+465814115+466383737+469637910+471373493
3736+468868351+465437707+465812289+468254734+470270363+471004878+470508997
3723+469472394+469249123+470211584+471409740+472156545+470862294+467629629
3709+467255580+469583718+472000291+472347844+470428621+470346464+472443360
3696+473809615+473667120+472160375+469083028+467483928+469458902+472168479
3682+473434231+473320369+472301578+468080579+463521957+463408229+461694866
3669+459675942+462564706+465692104+466078932+465485665+465207445+463681863
3655+462248591+463648822+464005281+458516883+454174630+455155037+456163542
3642+454516706+451065311+448013524+445690463+443615877+442014239+437337747
3628+428579679+426045815+427776945+428034415+424601233+419130201+416449390
3615+415130202+413061227+411286146+408674845+405665762+404753530+404054550
3601+401478205+398479587+396312958+394144503+392412616+392335313+391526078
3588+386890821+382848118+382645821+382949735+381928717+380468727+379515840
3574+378526661+377321157+376173231+373225643+368281952+366319914+366796736
3561+366405812+365311810+364961363+364856429+363560219+361685926+360646652
3547+359746710+358373575+357577788+357417771+356862398+355802373+354772961
3534+353902431+352911583+351810612+351156429+350837686+350052408+348944202
3520+348302220+348211001+348431934+348594422+347947586+346286813+344430221
3507+343121609+341913078+340671951+340545242+341153738+340732199+339225008
3493+338117893+337747474+337479874+337223005+336853009+336123259+335463577
3480+335206441+334934766+334203680+332918335+331684422+331416043+331822174
3466+331654721+330452401+329088484+328587638+328801135+328846243+328279071
3453+327481213+326951423+326644102+326482193+326385653+326027346+325590066
3439+325251975+324686606+324110884+323861185+323962690+324283035+324160089
3426+323461109+322825695+322681531+322927200+322977741+322896274+323260748
3412+323641921+323342505+322630455+322030531+321979300+322658019+323393090
3399+323612153+323633127+323997445+324642322+324984197+325221317+325782678
3385+326059652+325903821+326073924+326533157+327034737+328148755+329785772
3372+330960171+331701477+332866369+334463844+336057200+337590596+338685132
3358+339319478+340395244+342249499+344370217+346091484+347359307+348584514
3345+349685084+350765126+351976039+352768843+352895619+352801461+352922849
3331+353329826+353792889+354066924+354105575+353837018+353466643+353588699
3318+354104796+354454798+354555502+354413719+354018854+353805246+354028361
3304+354351556+354698686+354976172+355002444+355258244+355828734+356238517
3291+356612009+357297585+358268663+359279662+360245396+361171543+361897018
3277+362595843+363490040+364301301+365063268+366106551+367264497+368069390
3264+368315772+368230431+368202356+368461406+369045255+369787050+370211172
3250+370397439+371090073+372092633+372673076+372782619+372720478+372857629
3237+373103142+373122067+373446398+374562687+375679131+376110711+376138631
3223+375880226+375575956+375804927+376153370+375870563+375532139+375860143
3210+376250133+376377354+376908814+377598354+377619372+377527774+378204222
3196+379138853+379532716+379359853+379040621+379258192+380161384+380903558
3183+381078871+381374814+382106167+382726018+383059500+383480037+384032337
3169+384536322+384771482+384784129+385187343+385901152+386186274+386066713
3156+385972844+385961267+385883874+385964517+386492326+387030287+387149047
3142+387312872+387781634+387893670+387564152+387445347+387741646+388211344
3129+388269410+387627606+386885255+386715642+387043423+387342706+387590023
3115+388093519+388639807+388701703+388331752+388167304+388454030+388825273
3102+388992971+389242247+389786042+390050859+389678904+389296840+389388126
3088+389626448+389830794+390282234+390954229+391479099+391823268+392252087
3075+392634462+392656950+392310243+391800201+391362610+391050903+390986424
3061+391352991+391872606+392058606+391919986+391846022+391991055+392120770
3047+391869178+391391821+391285885+391618298+391873631+391890596+391928936
3034+391761194+391400727+391605875+392287132+392625690+392454251+392318080
3020+392671199+393303607+393626714+393329657+392740309+392466541+392695601
3007+393208092+393890507+394387946+394317278+394317144+394871938+395514454
2993+396115202+396880932+397671064+398248033+398799442+399676273+400622036
2980+401209425+401600795+401933742+401891439+401473084+401208356+401335310
2966+401534357+401611972+401471125+400945187+400371379+400188096+400521844
2953+401163203+401619943+401929824+402389235+402852119+403109678+403288197
2939+403465469+403297593+402946566+403026007+403357841+403409050+402982190
2926+402315806+402019150+402082337+401828786+401200964+400631387+400245182
2912+400233471+400748811+401401748+401835955+402002407+401987489+402144901
2899+402663537+403272567+403722761+404069735+404360824+404319679+404011757
2885+403965981+404076681+404088215+404463376+405312242+405890859+405719376
2872+405140091+404779803+404919982+405258762+405417688+405475888+405602352
2858+405713943+405695285+405599146+405342389+404743378+404291314+404529369
2845+405082069+405582225+406205995+406874071+407242375+407498420+408006724
2831+408537516+408789197+408979383+409393196+409894954+410355746+410836042
2818+411276171+411773923+412435765+413035622+413413901+413571268+413506878
2804+413398850+413557063+414125304+414923095+415455669+415581687+415790041
2791+416313842+416965042+417493206+417663309+417561025+417630625+418171970
2777+418789773+418943578+418820632+418816624+419104775+419718881+420325908
2764+420667583+421045372+421668518+422232618+422516583+422592506+422563383
2750+422748582+423382014+424103660+424505940+424583376+424544235+424622919
2737+424962545+425599718+426368788+426963836+427224334+427277012+427497790
2723+428102456+428828911+429361083+429669094+429836748+430115814+430747867
2710+431568679+432357654+432945933+433077607+432949139+433146004+433762961
2696+434315172+434608354+434934177+435408016+435874774+436169159+436315884
2683+436557100+436744792+436495382+436200374+436413225+436842490+437155443
2669+437446934+437753119+438033209+438245660+438459045+438779613+439071950
2656+439252428+439597487+440273757+440859855+440986542+440949537+441169558
2642+441602029+441894988+442051955+442316728+442590540+442801743+443049238
2629+443319800+443669223+444141325+444629369+445103742+445604966+446155930
2615+446788339+447397235+447850546+448279054+448877887+449616365+450245389
2602+450651899+451092919+451589424+451905049+452291877+452943210+453499117
2588+453817102+454149827+454632661+455154948+455627851+456183357+456849742
2575+457252378+457258211+457346736+457647666+457837228+458024208+458460018
2561+459073546+459718378+460279762+460657863+460823290+460981993+461410412
2548+461992813+462390729+462509178+462604916+463015523+463700654+464355951
2534+464905445+465352923+465576283+465772257+466199295+466609902+466861316
2521+467095185+467386230+467871068+468522490+469126489+469503520+469553037
2507+469548540+469902149+470431961+470611905+470579621+470833484+471259943
2494+471579309+471874228+472216927+472463176+472444206+472310395+472444829
2480+472915596+473325846+473338982+473117448+472913681+472782230+472830455
2467+473074032+473278289+473151513+472747274+472503386+472516522+472486331
2453+472276374+471910074+471566618+471492031+471502006+471221514+470807879
2440+470547604+470288531+469933497+469668458+469451376+469021755+468494570
2426+468181706+467993079+467681906+467270899+466947614+466685870+466158506
2413+465328921+464709471+464571029+464539546+464237814+463661914+463022203
2399+462501786+462050880+461504814+460841235+460249081+459771636+459121816
2386+458155169+456968903+455540707+453662362+451211858+448338857+445201751
2372+441770528+438047325+434443417+431516224+429166756+426942195+424984855
2359+424039849+424680941+426709305+429801124+433522101+436113274+435755435
2345+432820583+430028715+428753478+428191782+428184524+428732594+429089676
2332+429113900+429579323+430598336+431554964+432198327+432775474+433715982
2318+435181939+436735574+437802101+438358231+438913514+439787539+440842622
2305+441839059+442433974+442567919+442737443+443147560+443586532+443955548
2291+444218094+444466346+444852996+445225397+445418343+445628033+446017711
2278+446392560+446568229+446712460+447022297+447463451+447970954+448455881
2264+448862123+449288850+449744877+450114561+450478011+451081431+451860831
2251+452482463+452916849+453362857+453858114+454372920+454889017+455369625
2237+455872096+456478588+457164031+457853304+458503390+459212211+460037611
2224+460790338+461432008+462163451+463007152+463823556+464553974+465287820
2210+466125376+467111527+468227749+469248767+469998332+470694596+471660798
2197+472831702+473878146+474765753+475714499+476770962+477836420+478916484
2183+480012890+481090772+482245512+483406441+484436365+485588121+487055057
2170+488558196+489823325+490960520+492118599+493254859+494287722+495247111
2156+496385286+497714047+498862419+499700509+500383726+501051891+501563758
2143+501746819+501887176+502108132+502131955+501839574+501251295+500443707
2129+499450164+498277078+497164062+496232950+495148211+493668227+492068682
2116+490517407+488728344+486679006+484699579+482776482+480689071+478524891
2102+476512869+474629359+472588036+470326203+468126444+466115179+464239996
2089+462425284+460532779+458617965+456870849+455190571+453302875+451281725
2075+449499519+447999497+446480061+444817862+443055294+441219208+439444840
2062+437864532+436384682+434867071+433323677+431815729+430348214+428887334
2048+427365537+425751475+424184971+422702404+421132427+419568060+418234668
2035+417061047+415814220+414477310+413187780+411889610+410548559+409305205
2021+408239436+407168367+405832748+404451308+403302402+402188229+400982636
2008+399851541+398803940+397640071+396406069+395360872+394544423+393740620
1994+392708604+391406338+390113645+389022449+388019377+387121840+386383941
1981+385688390+384951960+384212681+383573504+382982241+382173229+381008381
1967+379774913+378913489+378377175+377870474+377267499+376439562+375401133
1954+374541223+374102251+373737554+373068877+372146848+370981110+369785180
1940+369232346+369097867+368759487+368243412+367684477+367103189+366518137
1927+365854714+364903229+363870033+363319871+362782778+361961007+361674015
1913+361688821+361183856+360443463+360177600+360221617+360088607+359726404
1900+359279662+358760247+358121181+357650638+357390474+356798142+356197483
1886+356198552+356303731+356163418+355904501+355643558+355467132+355317469
1873+354965173+353880523+352168719+351635166+352615016+353550314+353797409
1859+353604930+353296540+353007766+352742326+352514201+352166180+351457248
1846+350209954+349008324+349295517+350246379+350435473+350118535+349914545
1832+349189537+347431200+346308276+346531191+346774033+346978178+347256711
1819+347232598+346979358+346622187+345896289+344829540+344259272+344356079
1805+344387450+343793916+342463752+341295965+341016654+340794830+339619763
1792+338299284+338871755+340214477+340455025+339612059+338608319+337909383
1778+337797102+337646926+336115622+333404464+332837848+334654052+336236275
1765+336717528+335915329+334783833+334723340+335087458+335578730+335688339
1751+334019417+331570783+331186894+332036049+332306321+331696222+331018550
1738+331188831+330858577+328627626+328086458+329952223+331721960+332753264
1724+332896471+332614800+331877992+329217775+326108523+326973999+329428534
1711+330916176+331010334+329601553+328010179+327748412+326647219+323841013
1697+323217733+325140474+327788266+329311087+329107721+328035093+325578310
1684+322244807+323366350+326196157+327524807+326921543+325673381+324892066
1670+323607812+323431697+325183600+325828677+324810732+324693508+325373942
1657+325001252+322032735+316738464+316783861+318260817+317750553+318855843
1643+321951068+324067713+324604182+323513008+322787778+326489919+331257985
1630+334517792+336933697+339530703+342460145+346427482+350644451+353586383
1616+356833766+362225602+367469021+371505489+375163034+379095882+382854931
1603+386411594+390289537+394381267+398057669+401412880+405081624+409038963
1589+413062295+417027873+420850555+424648835+428374487+431450810+433534168
1576+436709213+442107528+446691754+450359518+455214484+460778716+465617027
1562+469000515+469952022+471704570+479732666+488130446+495197015+501199106
1549+507018937+512125807+515429586+516551330+517816903+527173983+538770051
1535+546640201+553349020+560853225+567385485+572482691+577257726+581711926
1522+586879712+594417448+602797861+611480942+619586341+625696816+629238873
1508+630332652+635327085+646830220+656025835+662108703+666298575+671683175
1495+679538407+686560848+691826777+696992158+704021812+711736909+718531448
1481+724730181+730840123+736383782+740451466+743577305+749607361+758459208
1468+766249738+772323655+779171051+787061951+793057318+796230047+802097347
1454+812974397+823443201+832502288+840785583+849264362+857970152+866816389
1441+875926507+883854367+889585674+896107201+905023617+913268883+920420860
1427+928598886+936608057+943152562+948992610+954435989+959688247+965619402
1414+971183189+974899623+977202602+978613208+979454460+981124318+983778901
1400+985628658+986806108+988599045+990180734+992078582+992862391+989210435
1387+984350393+985152281+989792436+994087131+997242761+998856511+998710098
1373+998002524+998111354+999105965+1000888572+1002535007+1001943387+1001246233
1360+1002993839+1004225793+1004000384+1003736057+1003429070+1002138248
1348+1001257811+1001951492+1002224012+1000886880+998241736+996271661+996425288
1335+996871296+996604920+996449779+997362278+999030354+1000731739+1002134686
1321+1003552506+1005556870+1007508955+1009636131+1012880374+1016882778
1310+1021125818+1024954289+1027695438+1030408534+1034093887+1037393169
1298+1040111607+1043342848+1046366136+1048761558+1050790679+1052741162
1287+1055397081+1058097797+1059772197+1061132396+1062293993+1062639097
1275+1062784441+1062460801+1060600980+1058041779+1056402113+1055541357
1263+1054486007+1053620353+1053481421+1053748954+1054233436+1054898083
1252+1055343201+1055443214+1055473227+1054778032+1053947645+1054669023
1240+1055773979+1055491751+1054801187+1055465033+1057347208+1058808845
1229+1058427583+1056585753+1055545454+1056177951+1057332780+1058200215
1217+1058483512+1058525548+1059317906+1060334427+1060499542+1060908501
1205+1061843800+1062324184+1062894786+1063637894+1063854486+1063604230
1194+1062937000+1062052376+1062358917+1064171447+1065037725+1064104475
1182+1062678461+1061715109+1062556183+1064459464+1065347561+1065730960
1171+1066039550+1065000320+1062057898+1058795575+1057293327+1057043427
1159+1056518157+1055388086+1054014439+1052699215+1051320848+1050803593
1148+1051015643+1049689375+1047188151+1045358077+1043990219+1041866872
1136+1038674728+1035671924+1033001221+1029353718+1024584961+1019111392
1124+1014120433+1011193685+1009817277+1008203171+1004636533+998490924+991217203
1111+984891427+980640192+977702401+974691582+971588497+968642957+964903100
1097+959291667+953183729+949147216+946902750+944732202+942654543+940351565
1084+936772371+932064352+926653569+922080831+919803858+917817307+913603656
1070+907709104+902628462+899878407+897808051+894151197+889893996+886698379
1057+883921695+880935278+877869776+874922901+872159042+868733474+864886390
1043+862117276+860387037+859069497+858320777+858079338+858053957+858354086
1030+858869470+858340905+855843689+852833671+851327148+851455303+852058144
1016+851856693+850495514+849126053+848722081+848886929+849239870+850073107
1003+851283420+852319355+852928429+852889422+852227535+851952075+852774803
989+853963563+854399240+853599222+851933996+850343579+849289832+848019049
976+845519339+842260490+839538667+837095064+834226561+831884842+830479401
962+828991313+827213071+825817960+825143872+824958273+824827980+824503003
949+825106824+828503626+833756240+838453482+842258887+845804773+849634936
935+853711526+857432591+861152678+865263199+869188833+872654655+875620946
922+877972728+880449372+883408982+885818742+886921205+887222402+888007458
908+889144831+888646011+886175602+883844392+882651268+881143943+878446077
895+875567154+873625577+872691080+871801737+870443586+868867864+867276200
881+865983775+865091938+864673004+865291965+866800180+868012452+868801693
868+870054042+872388369+876120211+880105693+883231309+886731331+891403013
854+895950903+899344231+902088319+905400069+909879117+914673967+918986118
841+922971867+926316302+929404960+933543534+937418583+938346044+937431319
827+937744183+939481458+941605160+944590776+949306454+955046934+959710868
814+962217079+963670255+965765370+968615171+971158698+973988015+978815105
800+983972515+986915294+990179041+996401598+1003803119+1008859714+1010174938
787+1011689477+1016547292+1021914882+1024689072+1025619739+1027035154
775+1029409914+1032725939+1037553475+1041487035+1041876224+1041488995
764+1043748779+1046288655+1046477994+1046510768+1047975077+1050070013
752+1051124473+1050213131+1049106929+1048435067+1047142642+1045316575
741+1043550267+1042381901+1040908063+1039694009+1041012173+1041759022
729+1038593507+1034198531+1030256510+1026954022+1025228413+1024595738
718+1025626863+1029062673+1031708529+1030219283+1026004741+1023274814
706+1023498085+1023377232+1020016321+1015917021+1016802268+1024628600
694+1032819006+1033964484+1030697797+1029153424+1029884421+1030363559
683+1028336129+1024244222+1021133478+1020708221+1023478581+1029141936
671+1033049936+1030147145+1025694816+1027905974+1030869592+1031248093
660+1031495767+1030892035+1027732398+1027496124+1033095089+1039115749
648+1043143356+1047166599+1052414582+1058804125+1059740225+1047899555
637+1029584203+1015584386+1012395626+1021160284+1029116732+1028603752
625+1025168833+1023346506+1026627976+1027901788+1017755467+1009892087
613+1019384625+1037307227+1046607575+1052212953+1065847895+1073741823
602+1056945996+1033990400
##END=
