##TITLE=Sample description
##JCAMP-DX=4.24
##DATA TYPE=INFRARED SPECTRUM
##DATE=24/8/2023
##SAMPLING PROCEDURE=Instrument type and / or accessory
##ORIGIN=Default
##XUNITS=1/CM
##YUNITS=ABSORBANCE
##RESOLUTION=4
##FIRSTX=4397.6552
##LASTX=599.8556
##DELTAX=-1.9287962
##MAXY=1.3699559
##MINY=0.33268976
##XFACTOR=1
##YFACTOR=1.2758709e-009
##NPOINTS=1970
##FIRSTY=0.58998227
##XYDATA=(X++(Y..Y))
4398+462415353+462660382+462915269+462934984+462745501+462805251+463121151
4384+463138483+462485194+461181748+460114876+459978836+460492254+460942791
4371+460466186+459828034+460030879+460215971+460015602+459727126+459487749
4357+459584126+460052789+460472773+460085211+459338395+459117004+458844178
4344+458522579+458953682+459365351+458764526+457814212+457255759+457179330
4330+457605528+458225367+458620451+458762797+458765180+458127588+456799055
4317+455995245+456158194+456896974+457770859+457758105+456934861+456478858
4303+456017856+455169665+455254176+456106244+455980670+455273564+455505793
4290+456189681+455658183+453995251+453235775+453905601+454402528+454258173
4276+454079061+453966146+454082752+454471763+454860493+455215448+455211897
4263+454735946+454534083+454178054+452711332+451370372+451392423+451799046
4249+451543598+451021771+450934084+451209807+451345005+451047886+450406511
4236+449959758+450206609+450884330+451416669+451485156+451192007+450793653
4222+450209132+449670113+449411629+449120069+448978984+449308899+449342815
4209+448184938+446880418+447028089+447913841+447910944+447126008+446824825
4195+447010103+446708920+446304446+446617449+447428826+448195216+448260573
4182+447287368+446117158+445724129+446035170+446649076+447232476+447435694
4168+447305260+446785769+445835596+445310078+445518669+445715860+445861897
4155+446063901+445801305+445021508+444427317+444616006+444969419+444396297
4141+443357081+443031651+443146995+442744296+442009721+442077507+443301534
4128+444300153+444081752+443532549+443336946+443154423+442817782+442650769
4114+442904815+443411599+443687369+443279578+442770504+443018103+443242438
4101+442747520+442461005+442803346+443032913+442701503+441999349+441250525
4087+440674554+440560518+440770790+440792280+440703611+440714777+440692119
4074+440278208+439601328+439561712+439930681+439936194+439827811+439585584
4060+439091133+438678857+438438172+438365948+438183892+437739382+437729945
4047+438324837+438766685+438739496+438478909+438200337+437942787+437931154
4033+438296714+438429856+437875561+436945896+436315826+436438551+436885912
4020+436690729+435747656+435278152+435895235+436777249+437212883+437189011
4006+436687272+435827449+435451752+435999180+436591362+436283919+435445258
3993+435046670+434838126+434359793+434330174+435026629+435478707+435069795
3979+434560535+434654950+435127537+435679216+436047859+435953677+435672442
3966+435523696+435035832+434258557+434307610+435157903+435386769+434513491
3952+433815074+433697909+433276149+433036632+432817203+431795646+431389723
3939+431945887+432239409+432107901+431370616+430682384+431725010+433070642
3925+432640520+431896321+431832319+430948156+429574634+429655361+431165296
3912+432620712+433459139+433738973+432543629+429900297+428208587+428262031
3898+429986957+432819772+434191192+432096923+430228343+431737577+432090663
3885+430027320+429655548+429594816+429659005+431028135+431264943+430320795
3871+428869350+427529091+428452169+428817401+427758190+428755968+431020240
3858+432563764+431495303+424470540+420884089+425289720+429658678+431534966
3844+431433590+430384424+428444367+425202312+423892559+425631967+427385156
3831+428445068+429243318+429323251+429884927+429881657+426830628+425746096
3817+426328562+426222982+428522711+431524455+432206193+430151867+428952973
3804+429119005+426923080+426132912+428288333+429779721+431154411+432767823
3790+433724958+433891363+433101054+432226328+432174426+431306100+429880816
3777+430455387+431972189+432631690+431846520+430636227+430412267+430696118
3763+431446484+431397385+429331193+428501502+430034188+430030123+425446828
3750+422880953+426880848+428922748+425814209+425992621+429052760+429416124
3736+425747498+422810270+423874433+427271121+430332615+430554800+428789324
3723+428303236+429262519+430509204+431738231+432240530+429997935+425908204
3709+425868962+429136524+432274213+433430501+432792723+433174260+434920908
3696+436643452+437780679+437430256+434832567+433787838+436434674+439375919
3682+440355945+439613568+438203934+434790755+431990829+433054384+432062306
3669+429455973+430586054+432868077+433848103+434081968+434478173+434705404
3655+436093267+439364006+439959085+433236159+427866340+428678792+429101953
3642+426408868+422405563+419298613+416649535+413516471+410228446+404367399
3628+396179527+394160145+395243088+394398261+390139811+384563106+382237402
3615+381066608+378310082+375189070+371615630+368154053+366763059+365933041
3601+363974485+361928638+360028103+356851966+353905769+353331946+352442248
3588+347975091+344030835+343852774+344209574+343070431+341258004+339526538
3574+337760409+336544486+335615662+332534757+327793840+326533396+327598446
3561+327474226+326300489+325592846+324918348+323416683+321998710+321052344
3547+319557195+317940863+317554070+317918438+317844509+316916526+315624035
3534+314834333+314133184+312575014+310995564+310206027+309260128+308328150
3520+308487852+309007670+308744164+307671358+306133463+304529441+303718554
3507+304137837+304164022+302759060+301723021+301640239+301403921+300924210
3493+300403737+299437400+298149043+297377608+297217649+296780357+295782555
3480+295326248+295686575+295756347+295300250+294775784+294174819+293520900
3466+293052984+292495489+291389701+290290618+289895323+289969089+290083335
3453+289937158+289387278+288459949+287383126+286723577+286328960+285757660
3439+285398384+285378716+285471122+285421766+284760162+283848437+283465732
3426+283555125+283670282+283623028+283446695+283110638+282794458+282934001
3412+283406472+283693827+283650731+283497523+283579791+283873290+283990970
3399+284032010+284437629+284979428+284921522+284358771+284309088+285021566
3385+285615945+285783892+286183274+286910094+287532993+288388051+289875445
3372+291397059+292489883+293501279+294744834+296083435+297271841+298390522
3358+299758741+301658505+304013734+306115501+307323084+308007556+308882352
3345+309855931+310702813+311678004+312835507+313952133+314849143+315278073
3331+315150980+314888665+314849983+314973666+315052384+314914079+314868180
3318+315153269+315324370+315280222+315405236+315523477+315244274+314908987
3304+314993054+315382088+315702869+315884271+316265060+316894896+317374398
3291+317431719+317479908+318147047+318971739+319578801+320483403+321391858
3277+321928448+322644874+323874391+325450500+326997154+328264185+329196956
3264+329534135+329359998+329369809+329885235+330590286+331174643+331655009
3250+332286551+333086483+333584414+333664020+333858315+334389392+335056205
3237+335542550+335801969+336305576+336832916+336736819+336490692+336819905
3223+337658893+338356796+338347476+337992965+337831885+337904577+338327481
3210+338965259+339385360+339622915+339749401+339564683+339252474+339328973
3196+339966634+340848204+341639097+342192388+342472946+342469302+342296169
3183+342418801+342925865+343319642+343657825+344368715+345293942+345918335
3169+345977362+345954097+346359739+346768301+347004011+347233811+347159368
3156+347241987+348000762+348622189+348612589+348478698+348391922+348206806
3142+348139627+348345742+348760237+349285404+349643489+349611208+349274636
3129+348899920+348654213+348781633+349489557+350128223+350033528+349620224
3115+349415744+349513546+349824423+350095077+350212733+350229715+350394882
3102+350903839+351316045+351400205+351425269+351416626+351284581+351015772
3088+350951513+351398757+351893605+351942401+351797298+351994537+352538998
3075+352996029+353175819+353246641+353274718+353037864+352570999+352320363
3061+352401043+352480392+352617880+353101749+353614980+353779377+353677184
3047+353498632+353352268+353109387+352619468+352233470+352350122+352749901
3034+353112961+353311718+353125645+352685619+352443322+352453133+352553504
3020+352618814+352541778+352548598+352722362+352833735+352991194+353198897
3007+353336057+353682439+354184552+354403327+354549037+355144373+356041943
2993+356835125+357426093+357766612+358086575+358851610+359890452+360812245
2980+361643501+362230358+362449273+362450441+362180068+361814111+361832097
2966+362123727+362004319+361247553+360445659+360200232+360390112+360562964
2953+360795334+361372357+362053161+362497836+362786802+363063249+363292629
2939+363426192+363187516+362474874+361937841+361922611+362013569+361970659
2926+361879842+361828780+361792084+361653686+361329961+360728716+360033196
2912+359905589+360532155+361276961+361874446+362434978+362649572+362474220
2899+362474711+362793880+363028492+363100926+363234233+363468284+363715183
2885+363939213+364214212+364436677+364426119+364464310+364737978+364901136
2872+364789693+364700838+364927508+365283911+365368048+365263986+365294655
2858+365354290+365181414+364859488+364559309+364327477+364353522+364791258
2845+365328198+365723282+366261904+366991084+367602490+368030954+368220484
2831+368172926+368315132+368871296+369515708+370085957+370718153+371313232
2818+371636792+371716421+371808921+372049512+372408718+372908892+373449616
2804+373785159+373963221+374347910+374888424+375136070+375175709+375370986
2791+375810498+376359724+376711432+376919345+377240547+377578052+377768190
2777+377796313+377888626+378287284+378843354+379309799+379690915+380103494
2764+380564963+380932882+381144812+381488134+382042313+382322357+382209349
2750+382202178+382536460+382986437+383403338+383874664+384388035+384915024
2737+385548621+386079581+386302841+386537406+386985935+387468543+387986796
2723+388699158+389515581+390198885+390776772+391387735+391912925+392248633
2710+392502071+392763032+392956813+393028664+393338163+394071523+394712432
2696+395112141+395536890+395777856+395691990+395553942+395616075+395855125
2683+396049374+396167100+396322901+396508881+396693926+396826181+396812727
2669+396782127+396982029+397270879+397367816+397516423+397977097+398402641
2656+398573111+398616417+398658462+399017668+399646991+400064873+400252581
2642+400580673+401140901+401507488+401537247+401682396+402098737+402644716
2629+403229471+403749242+404186699+404592528+405044139+405591474+406213275
2615+406859929+407446179+407920261+408347206+408878937+409556985+410216674
2602+410752095+411229915+411718947+412256985+412875983+413560057+414176720
2588+414580633+414850657+415219953+415793262+416326581+416622112+417006031
2575+417658245+418317886+418878395+419313516+419520705+419570505+419749290
2561+420301950+421052690+421568257+421871075+422353240+422993354+423465007
2548+423695181+423823091+423973286+424163937+424417750+424818253+425331765
2534+425825141+426199997+426454090+426752704+427280838+428035408+428765218
2521+429119986+429153342+429295688+429782197+430477811+430968758+431085223
2507+431166650+431399767+431648067+431871701+432114955+432413850+432854296
2494+433357483+433594337+433496185+433499876+433792230+433926681+433794098
2480+433814981+434038988+434192873+434174841+434088882+434024739+433953123
2467+433846048+433698095+433521179+433308944+433064942+432805290+432480421
2453+432074966+431690533+431502685+431478298+431402337+431192578+430754001
2440+430172376+429789952+429552304+429220988+428872060+428499633+428035548
2426+427559270+427100417+426804560+426621196+426114178+425297241+424598778
2413+424136655+423762406+423377226+422893099+422299749+421783388+421350463
2399+420855124+420335540+419822869+419269321+418668917+418067765+417394575
2386+416322797+414812395+413220379+411453642+409055947+405938580+402302515
2372+398382693+394493797+391029884+388201156+385997897+384275004+382945513
2359+382220818+382440737+384087225+387226690+390977795+393486208+393005679
2345+390014213+387422247+386532525+386405782+386573705+386887362+386988831
2332+386890282+387119638+387787969+388493814+389132059+390064691+391430481
2318+392889307+394178925+395199688+395913989+396649966+397687126+398704992
2305+399465542+400108506+400610478+400861955+401020746+401407047+402086590
2291+402727545+403092964+403406014+403823896+404161892+404402157+404622707
2278+404740667+404872268+405176675+405519997+405943532+406579909+407270477
2264+407916711+408460962+408886459+409349703+409896477+410506505+411122046
2251+411659710+412227647+412928820+413637654+414266883+414929047+415738463
2237+416629493+417329078+417806898+418461541+419444650+420443596+421230681
2224+421956474+422814195+423744327+424627415+425501347+426482774+427528484
2210+428531961+429559545+430629687+431666941+432730683+433821148+434849105
2197+435905419+437141219+438512545+439857243+441208434+442658150+444113193
2183+445509419+446903542+448438144+450130648+451810258+453416523+455018863
2170+456705108+458415504+460116090+462006113+463983263+465723138+467311137
2156+468927118+470457375+471698268+472558698+473275988+474129925+474929250
2143+475514846+476033870+476273901+475980706+475506484+475044781+474358838
2129+473461454+472433871+471197323+469607549+467594054+465456385+463407104
2116+461244629+458804655+456052380+453118329+450339892+447749210+445061685
2102+442225412+439355130+436535255+433848477+431284470+428766340+426214106
2089+423605998+421013728+418518395+416189234+413987143+411753751+409463458
2075+407229880+405077168+402957112+400836308+398708823+396644827+394748590
2062+392985264+391148381+389267515+387588278+385959286+384139548+382321446
2048+380649450+378983388+377300718+375658364+374002603+372356676+370793460
2035+369334867+367939786+366480329+364953669+363511918+362142741+360662541
2021+359098509+357625293+356303838+355101183+353858258+352536429+351361337
2008+350405814+349342049+347936830+346465530+345206558+344129571+343129761
1994+341983984+340546087+339141895+338045848+337132861+336313051+335467920
1981+334549748+333668645+332728141+331701399+330783250+329919035+328846627
1967+327634909+326704917+326077510+325403526+324643910+323896231+323057173
1954+322093031+321182310+320429865+319693912+318775015+317557084+316399207
1940+315925568+315771940+315369428+314796773+314183194+313535605+312829807
1927+312012777+310954454+309870226+309293694+308874971+308326258+308107553
1913+307966048+307373538+306604042+306289334+306333388+306206435+305840829
1900+305416757+304884185+304228444+303751606+303347131+302599218+302063540
1886+302170101+302300978+302192665+301962328+301709052+301491562+301231887
1873+300766494+299591635+297848700+297415799+298472066+299305798+299347119
1859+299008539+298741833+298657042+298566084+298345137+297864631+296994366
1846+295622480+294360962+294619890+295520053+295749736+295598187+295464811
1832+294622202+292755398+291695089+291954181+292137334+292388811+292783568
1819+292732226+292281455+291672058+290796724+289808266+289377047+289477324
1805+289447939+288750153+287248698+285976295+285730658+285549934+284337422
1792+282927578+283367604+284518660+284612210+283801603+282992281+282522776
1778+282466669+282223882+280737586+278229803+277633977+279115951+280341941
1765+280638687+279938448+279156618+279330498+279670714+279963395+279876244
1751+278243818+276021055+275749139+276624730+276992251+276547110+275943435
1738+275949461+275381408+273194476+272819433+274690069+276473204+277472523
1724+277521132+277119601+276131820+273151870+270033452+271204409+273902727
1711+275439874+275413783+273971727+272600004+272480433+271282777+268342372
1697+267641550+269498474+272094201+273605935+273458263+272472164+270141998
1684+266851615+267793800+270546169+271943423+271350072+269908017+269010400
1670+267945676+267969759+269583195+270042702+268954853+268807812+269424381
1657+269001173+266126546+260975128+260755045+261967043+261400882+262547944
1643+265697335+267796066+268127171+266835171+266172983+269869592+274520720
1630+277818859+280413768+283166488+286249121+290422079+294828971+298086255
1616+301821640+307365363+312537757+316615226+320317745+324317990+328380603
1603+332353426+336484665+340635759+344400038+347958086+351775085+355780095
1589+359932077+364289426+368601366+372690280+376602511+379876614+382134438
1576+385593820+391334898+396234466+400246788+405233670+410839689+416049457
1562+419967738+421342521+423456925+431638864+440185709+447533986+453818988
1549+459840975+465049715+468641025+470933793+474507164+484626450+494666505
1535+501294455+507966413+516237909+523560819+529488437+534824107+539504012
1522+545197112+553103376+561331985+570198139+579042663+586114517+590729860
1508+593321429+600110086+612023579+621330973+628129207+633532896+640034898
1495+648300788+655143028+660055443+665766670+674776338+684481106+692669538
1481+699867995+706835577+713259889+718117365+722431851+730456261+740374151
1468+748182590+754747473+763400551+773042718+779961154+784217245+792596002
1454+805790517+817250156+826212780+834440175+844367876+855262148+865491265
1441+874717653+882748930+891339782+901463039+910790802+918853006+926797671
1427+934941536+942398850+949611929+956194051+960554039+964597848+971212858
1414+977892618+982453022+986308749+989852127+991396212+992442482+995758536
1400+998977326+998686186+995928492+994611825+997657108+1001124245+999504946
1387+994342642+993823151+999618561+1005821809+1008684336+1008973700+1008051230
1373+1008546802+1011130897+1012281345+1011289360+1010603370+1010235428
1362+1010128260+1011175464+1011875096+1011114452+1009887388+1009735558
1350+1009967554+1009410596+1008812901+1008350217+1006862847+1004178217
1339+1002724016+1003955565+1005660823+1006147145+1006026896+1006479862
1327+1007775226+1009671650+1011499773+1012698807+1013942876+1016469229
1315+1019755011+1022855607+1027334256+1032848711+1036384054+1038449312
1304+1041340430+1045015830+1048159592+1050350798+1052854634+1056085103
1292+1058795520+1060777061+1062292835+1063046004+1063812814+1064969617
1281+1065533582+1065814537+1066748967+1067842328+1068281373+1067827285
1269+1066698606+1065127146+1063138036+1061569846+1060970095+1060770054
1258+1060784910+1060348668+1059002476+1057974425+1058495878+1060446960
1246+1062338525+1063317616+1064114138+1064725007+1064467317+1063705646
1234+1063234086+1063600533+1064625500+1065037543+1064691558+1064360336
1223+1064077792+1064692212+1066219852+1067172969+1067995559+1069326428
1211+1069890768+1069872828+1071028977+1072906152+1073741823+1073420878
1200+1073118714+1073293341+1072977255+1072230907+1072465145+1073026962
1188+1072377411+1071790274+1072691068+1073331556+1072222685+1071327404
1177+1072009096+1071928649+1070235538+1068916441+1068364996+1068064420
1165+1067117656+1064660912+1062392716+1062453822+1063602589+1062498483
1153+1059137020+1056893211+1056510319+1055504599+1053154649+1050865338
1142+1048412143+1044490359+1039935281+1036823753+1034860898+1032255594
1130+1028794344+1024965246+1020425678+1014749302+1009343978+1005514599
1119+1001204504+994832515+988205172+983179749+979317668+974667568+968928966
1105+963698549+958728626+952761391+946599348+941471802+936895140+932006504
1092+926953892+921460366+915461084+910239731+905313534+899474023+893852307
1078+889067008+884329921+879285344+873835359+868798630+865147429+862127747
1065+858564280+854206814+849737602+845722103+841949158+839017958+837295134
1051+835719843+834073635+832603082+830575665+827921122+825759721+824812677
1038+824845098+824876679+823864979+822026392+820608723+820375325+820816145
1024+820853332+820348323+819950202+819946278+820469787+821921559+823995880
1011+825253310+825420369+825802793+826558859+827206447+828110044+829427179
997+830878577+832032576+832675867+833029047+832650173+831199148+829673937
984+828648970+827406489+825385425+822840853+820137630+817114958+813748262
970+810630101+807996112+805453222+803052537+801401190+800393228+799525790
957+799190176+799694905+800677920+802274421+804929339+808517285+812667422
943+816986019+820711780+823992329+828111352+832919916+837454999+841664279
930+845499918+849443846+853916890+857602381+859557293+860595248+861573779
916+862599493+863376207+863846739+864209916+864088359+863212418+861860153
903+859834231+856889669+853484946+850477223+848233974+846255703+844073747
889+841770140+840052175+839473727+839294895+838354205+836611013+835320787
876+835285283+835572871+835815425+837272804+840303511+844206796+848556414
862+853171196+857745241+861526221+864696145+867924652+870942933+874606840
849+879742048+885011613+889621911+893988440+898378794+903148769+908263515
835+913393490+917570629+918783305+917866907+918264748+920667955+923737812
822+926992013+931045913+935939594+939772150+942186009+945276234+948181460
808+948874364+950583359+955672597+960611034+963943065+967396280+971523151
795+975755323+978492462+981563627+989048224+998900243+1006090524+1010572070
781+1015032126+1019471720+1023399391+1028156566+1032615874+1035275744
770+1037446395+1039062143+1040002460+1041491979+1043663284+1046276717
758+1047684575+1046685770+1047170784+1051898434+1055730989+1053044771
746+1046203091+1041082179+1040211377+1042360258+1044292840+1043898083
735+1042382215+1040693308+1038247308+1036348269+1037243363+1039551922
723+1038927131+1035048980+1032117312+1031348914+1030368141+1028634853
712+1027682951+1027279504+1026011049+1024375586+1023007530+1021979106
700+1022934932+1025889211+1027712849+1027137952+1024793514+1021275176
689+1020092493+1023221960+1025946860+1025190608+1023318758+1023555705
677+1026856530+1030272651+1033456871+1037225144+1038071279+1038335042
665+1042631309+1045052736+1042967203+1039473999+1038684951+1040690038
654+1041563175+1041033780+1042442013+1044258737+1042775758+1039518660
642+1037589161+1034377286+1028930383+1022269871+1005874132+988898449+996030335
629+1016864267+1020266560+1004343501+991938501+994937534+1005079292+1012339087
615+1016178744+1020124541+1028616913+1040862703+1049570627+1053454198
604+1056859481+1052263292+1036371160
##END=
