##TITLE=Sample description
##JCAMP-DX=4.24
##DATA TYPE=INFRARED SPECTRUM
##DATE=24/8/2023
##SAMPLING PROCEDURE=Instrument type and / or accessory
##ORIGIN=Default
##XUNITS=1/CM
##YUNITS=ABSORBANCE
##RESOLUTION=4
##FIRSTX=4397.6552
##LASTX=599.8556
##DELTAX=-1.9287962
##MAXY=1.4359865
##MINY=0.44170681
##XFACTOR=1
##YFACTOR=1.3373667e-009
##NPOINTS=1970
##FIRSTY=0.68850768
##XYDATA=(X++(Y..Y))
4398+514823418+514977581+514888889+514004468+513088582+513489790+514335792
4384+514343859+513876066+514342967+516040588+516623100+514924232+512652032
4371+511367831+511834064+513284239+513918629+513747976+513252996+512251494
4357+511826977+512285143+512363005+512288709+512253900+511751612+511496768
4344+511650976+512058779+512352397+511112987+509216368+508584473+508921056
4330+509766211+510780550+511039226+510407109+509479991+508704720+508893780
4317+510781931+512376955+511361101+509600461+509246051+509335500+508882682
4303+508910315+510198438+510925309+509820184+508328827+507591171+507440351
4290+507266801+506682015+505886064+505688936+506735587+507913269+507989883
4276+507650804+507887330+508746079+509550945+509418175+508061193+506062823
4263+504455588+504095250+504921999+505814308+505933128+505610228+505308008
4249+505071304+504759635+504497170+505062123+506081898+505975156+505066134
4236+504620625+504193390+503196478+502458377+502480795+502368081+501857324
4222+501687116+501912589+502399502+503036655+503226830+502500004+501166198
4209+500740032+501911742+503031307+503010984+502760775+503038171+502966905
4195+501487270+499452889+498603187+499441791+500843788+501538836+501073539
4182+499682507+498945876+499816257+500933816+501313853+501133974+500609357
4168+499804536+498705071+498004229+498185891+498626541+498746386+498675611
4155+498825050+498704225+498092698+498178225+499050300+499613648+499202502
4141+498037834+497694432+498735957+499521569+499169566+498339475+497573696
4128+496841522+496142462+496015130+496477752+496392359+495442556+494920167
4114+495544306+496424092+496953434+497401572+497353883+496514120+495735595
4101+495429185+495548273+496099766+496108278+495320794+494937682+494763463
4087+494305164+494556353+495474066+495452851+494332930+493726885+493995233
4074+494569500+495294900+495216771+494108482+493471551+493807198+494419839
4060+494893693+494886785+494552921+494548865+494880813+494959120+494236528
4047+493192462+492849551+492887301+492625549+492336833+492666285+493649559
4033+494066499+493255483+492136408+491521316+491594007+491977387+491872339
4020+491149702+490334943+489825924+489733578+489702602+489475570+489473430
4006+489763216+489775071+489284236+488785825+489022306+489976744+490808262
3993+490849399+490208501+489619749+489576027+489761478+489533509+488917169
3979+488827185+489361474+489614044+489609543+489476283+488635584+487600477
3966+487362257+487616210+487772423+488062208+488293787+487781960+487196908
3952+487646204+488161017+487678205+487488654+487324017+485967035+485424902
3939+487035569+489153650+489653844+487915845+486201600+486450071+487282034
3925+487244908+487094400+487495963+487457322+486519286+485720080+485994668
3912+487026923+488216015+488745892+487055268+483255790+480462048+479850343
3898+481037206+483425998+484647535+482794103+481631396+483983819+485274706
3885+484083029+483657220+482873881+482664230+484107898+484068811+482373731
3871+480185098+479230348+481868234+483938849+482978484+482461710+483622144
3858+485637851+485902500+478927148+473909117+477811906+482894383+486017442
3844+486164385+483791951+480634216+478000030+478730154+482120403+484103887
3831+484218963+484488292+485078425+485750966+483983730+478325426+477246419
3817+479439776+479520668+480970576+483906715+485043706+483208725+482401988
3804+483146775+480393278+478185570+479732726+481397544+483256013+485118715
3790+485762733+485737195+485342004+484719603+484529161+483722023+482870627
3777+484043006+485732381+486278214+485311475+484159776+484201760+484470910
3763+485163239+485309469+483407814+482564441+483851673+483593843+478643557
3750+474148139+476035042+477892753+475943231+476884521+480991390+483137326
3736+479936628+474570160+474201800+478391477+482480473+483486745+482541176
3723+482096871+481887354+482192693+483624506+484790601+483077292+479064107
3709+478571802+481046610+482873703+482579015+481487439+482246666+483867985
3696+484887449+485322038+484199754+480309623+477740284+479759601+483185015
3682+485295029+485931247+485390272+480979044+476582301+477375044+476010039
3669+473385435+475379125+477653464+477367200+476551504+476391592+474858608
3655+473263986+474129821+473188041+466780493+463322767+465427522+467246548
3642+466438562+463623561+460829819+458677955+456211124+453502062+448209132
3628+439928497+437742627+439652305+440190205+436481824+430142734+427217693
3615+426299979+424726928+423423919+421129747+417813972+416521303+416100307
3601+413949914+410998710+408761586+406783228+405290490+404520388+402170683
3588+396747078+393498914+394396660+395215832+394210007+392750428+391856469
3574+391107538+390277714+388795984+384483698+378442550+376767258+378387329
3561+379282134+378734519+377483878+375729878+374121885+373688299+373341310
3547+371531599+369719994+369556851+369949835+369886770+369434175+368942717
3534+368388684+367132405+364947604+362955608+362156826+361902094+361482881
3520+361058743+360636277+360102121+359422717+358446596+357060399+355860343
3507+355703417+355489309+353957083+352503744+352111495+352161010+352080163
3493+351379276+350294163+349524640+349230398+349224047+348732900+347414225
3480+346624535+346748971+346699678+346164185+345263653+344170830+343283089
3466+342692309+342194076+341608421+341048550+340862431+340935122+340603598
3453+340043459+340109287+340252509+339591065+338688906+337995663+337629086
3439+337700151+337800787+337615113+336982662+336079723+335257609+334510706
3426+334001598+333953575+334229566+334528823+334820146+335192004+335458168
3412+335436308+335254757+335038733+334600712+334334102+334772301+335316373
3399+335326669+335010922+334969518+335160918+335258189+335932758+337334398
3385+338342964+338498554+338481818+338767013+339262438+340148797+341629970
3372+343152993+344055753+344546499+345422563+346950800+348744912+350516382
3358+352051505+353309857+354778573+356413374+357484804+358187719+359311540
3345+360815554+362056190+362634535+362783684+363170317+363912787+364387978
3331+364657306+365280510+366039670+366515975+366729214+366930798+367171313
3318+367098287+366702272+366518293+366631988+366458281+366021932+365967380
3304+366204039+366415451+366807031+367337844+367777380+368494980+369703927
3291+370590353+370450386+369935996+370225002+371303809+372450493+373741425
3277+375108056+375859974+376265727+377235898+378691778+379734417+379966219
3264+380042119+380466725+381001950+381634869+382230307+382351177+382145938
3250+382257137+383009501+383587957+383476491+383611133+384302259+385150044
3237+386129664+386876902+387105584+387107545+386975755+387027321+387533799
3223+387648475+387190041+387160180+387562323+387889101+388210084+388435780
3210+388660406+389305716+390048675+390555733+391013319+391137310+390859558
3196+390743724+390955915+391403474+391967267+392288117+392607273+393556095
3183+394355880+394008913+393453276+393888489+395032967+395973009+396385983
3169+396757329+397249679+397435530+397369925+397320855+397244955+397202793
3156+397484779+398306580+399134087+399177051+398839621+399076727+399681613
3142+399855118+399726582+399721412+400042440+400795428+401359400+401285683
3129+400809957+400309362+400241306+400231946+399701758+399268639+399621311
3115+400329641+400734681+400954003+401385205+402095139+402582453+402301581
3102+401679715+401597753+402245425+402985354+403072486+402462563+401859505
3088+401942180+402539400+403047750+403310705+403536980+403788303+403877930
3075+403639845+403204097+403032597+403208420+403311285+403330538+403609137
3061+404146769+404673258+405112794+405429187+405322401+404823009+404505234
3047+404456298+404335963+404478850+405026822+405366524+405349811+405271325
3034+405214812+405091981+404990676+405132360+405301275+405312551+405538782
3020+406006173+406309552+406568986+406713478+406124191+405251715+405280818
3007+406247646+407129883+407353573+407256503+407206274+407429696+408063240
2993+408888028+409727033+410396766+410742084+411302401+412434356+413563325
2980+414383032+415040999+415470195+415665941+415585584+415241291+415048397
2966+414968575+414506844+413949379+413964309+414318987+414376436+414273482
2953+414297995+414296836+414359277+414659848+415105579+415501304+415702398
2939+415818277+415927425+415988573+415951893+415669907+415197658+414847304
2926+414843916+415049868+415000976+414472125+413832743+413478466+413356883
2912+413404037+413709956+414194462+414703213+415253814+415733819+415867525
2899+415954122+416380421+416696324+416552456+416417101+416546306+416638028
2885+416858821+417402024+417658428+417620544+417963678+418529433+418797112
2872+418569188+417971032+417556989+417613101+417916614+418348573+418776031
2858+418979086+419024190+418771574+417866429+416845495+416754798+417542638
2845+418165619+418409543+418875731+419544975+420175086+420789421+421186929
2831+421191118+421172310+421613584+422326995+422950065+423404754+423595553
2818+423714640+424093608+424781480+425570970+426052668+426186017+426300381
2804+426494121+426937267+427664494+428096943+428104698+428249769+428687478
2791+429228898+429729805+430052527+430323416+430758049+431180070+431320238
2777+431256683+431254366+431566302+432202520+432745500+432888699+432859328
2764+432932599+433114261+433368436+433777309+434362985+434924506+435411419
2750+435898955+436162757+436138913+436251850+436791443+437556286+438176236
2737+438509832+438703171+438988678+439495602+440027083+440226929+440232678
2723+440424457+440854679+441563722+442447696+443099870+443459405+443725926
2710+443961337+444305942+444873301+445490221+445909567+446203364+446628282
2696+447029622+447179997+447348823+447677918+447978266+448347473+448844146
2683+449205866+449474258+449778840+450030252+450261608+450414791+450430301
2669+450454546+450617489+450968646+451234230+451181104+451172324+451536851
2656+452141648+452722110+453051205+453098805+453079417+453248466+453726866
2642+454306660+454643243+454717895+454853651+455281956+455776312+456057718
2629+456255380+456482903+456704499+457113060+457794559+458437863+458834391
2615+459137368+459575835+460133567+460742598+461415005+462003847+462558103
2602+463268661+463971954+464476650+464794246+465086171+465602766+466315553
2588+466871012+467077008+467148006+467323874+467539809+467804369+468343204
2575+469107690+469817625+470227790+470269506+470219144+470432093+471059174
2561+471891360+472585517+473011861+473228019+473539732+474022143+474351417
2548+474557324+474873182+475256071+475578481+475775073+475985571+476469186
2534+477061637+477425406+477646289+477874347+478159185+478629741+479263463
2521+479892906+480396487+480721081+480965451+481315983+481758015+482084704
2507+482235435+482389553+482670648+483108000+483725499+484352402+484793453
2494+485047450+485205357+485337146+485440947+485552235+485608302+485522730
2480+485474864+485645829+485927592+485991682+485772003+485619890+485722710
2467+485882087+485870767+485712949+485565383+485529950+485570463+485628804
2453+485667177+485452401+484923638+484406196+484112801+483914515+483603113
2440+483234798+482977459+482911898+482884845+482546301+481988970+481516409
2426+481090956+480756201+480635420+480531397+480201499+479693729+479189657
2413+478734254+478273102+477877734+477562098+477182552+476755049+476312349
2399+475719675+475010587+474473401+474066578+473408522+472700148+472321403
2386+471768128+470527069+468891131+466895079+464127231+460766264+457163556
2372+453347453+449693714+446458965+443266066+440299531+438500473+437922061
2359+437500085+437413087+439108122+442581402+446553050+449175425+448657003
2345+445323489+442120518+440883247+440841130+440982190+441231997+441569516
2332+441597638+441722653+442524889+443607551+444444462+445264079+446486598
2318+447963826+449310424+450405298+451239177+451937969+452822568+453803881
2305+454566317+455138846+455495485+455663018+455965283+456387838+456752767
2291+457225997+457810158+458240870+458449941+458572728+458763928+459017078
2278+459190940+459334050+459637785+459993488+460225245+460590129+461301222
2264+462082778+462616755+462867052+462991042+463223112+463677489+464295656
2251+464928264+465504448+466122749+466697016+467111148+467544667+468128383
2237+468739152+469186265+469688420+470571682+471572783+472273715+472692705
2224+473242816+474054500+474804769+475461577+476233774+477126351+478016030
2210+478850088+479661550+480436020+481172249+482002296+483037136+484076433
2197+484896229+485673952+486568623+487509958+488572118+489866927+491232110
2183+492390984+493352687+494317064+495273953+496264714+497491957+498859145
2170+500195358+501538257+502774681+503719848+504562151+505645214+506939578
2156+508144536+509095364+509866937+510654019+511433971+511922220+512169220
2143+512509591+512835076+512856335+512624578+512239950+511791099+511378082
2129+510805285+509872820+508814804+507896199+506747086+504895035+502838146
2116+501222978+499739599+497933588+495943240+494059992+492201746+490174050
2102+488116315+486197277+484373839+482596619+480838074+479010134+477093459
2089+475150889+473179929+471296012+469640241+467994410+466135540+464228224
2075+462456531+460808203+459296122+457836899+456130766+454154592+452342564
2062+450943152+449684266+448213589+446566287+445029960+443574214+441972149
2048+440365047+438962382+437645245+436250067+434824449+433493986+432219768
2035+430943054+429713003+428447253+426975507+425411726+424035089+422838554
2021+421671747+420430286+419082485+417879310+416983836+416196531+415322049
2008+414302318+413209093+412184371+411154032+409932138+408687380+407649732
1994+406544696+405135391+403850164+403021009+402397983+401741621+401020366
1981+400287390+399526380+398694194+397865529+397053265+396183730+395169258
1967+394081293+393312171+392877092+392310580+391531787+390773228+390064943
1954+389335354+388622790+388014562+387361541+386436920+385240385+384212855
1940+383971248+384044742+383618309+382778189+381997346+381437163+380891152
1927+380166243+379204406+378253489+377745139+377257870+376582254+376384636
1913+376386464+375855874+375052702+374698916+374698203+374543995+374173808
1900+373701358+373072026+372361468+371953620+371665082+371000073+370641139
1886+370970992+371109645+370863448+370612348+370404814+370148723+369861054
1873+369461630+368291279+366392654+365893463+367083847+367997237+368015154
1859+367761937+367629523+367516742+367322401+367062120+366639609+365913273
1846+364631991+363338074+363617586+364598342+364830099+364626777+364503098
1832+363728517+361879141+360706472+360848624+361103223+361629445+362312482
1819+362402778+361973693+361459215+360686015+359510517+358774153+358827257
1805+358917286+358353247+356995685+355840755+355677300+355606725+354463985
1792+352888549+353167928+354477690+354859153+354153453+353170558+352425124
1778+352222760+351898100+350123420+347190334+346580702+348425466+350079765
1765+350752930+350174741+349254688+349280827+349492640+349779974+349807941
1751+348122934+345693741+345339487+346219473+346644725+346308967+345816929
1738+345888773+345095473+342265698+341651564+343896732+346097912+347215181
1724+347101152+346635856+345722956+342504920+338936285+340267595+343516539
1711+345540001+345640793+343787227+341743843+341129687+339551087+336539137
1697+336168348+338381628+341346469+343176904+343220425+342229552+339432579
1684+335496119+336739317+340033699+341605792+340977574+339569650+338644404
1670+337412816+337511269+339404033+339966801+338737107+338593485+339597260
1657+339524502+336301229+330281006+330417876+332114872+331563068+332999828
1643+336631617+338863905+338929867+336938093+335781737+340165399+345516603
1630+348917125+351258540+353656155+356359490+360425400+364949587+368047511
1616+371367096+376930335+382371322+386443026+389910735+393704197+397445202
1603+401028255+404961707+408981800+412570023+415986256+419743706+423772401
1589+427808317+431770159+435728168+439661576+443338891+446215086+447930177
1576+450835162+456450680+461165599+464533029+469069673+474598817+479508100
1562+482861268+483258776+484035340+492347842+501678113+509576839+515984922
1549+521781210+526491360+529079373+529665852+531146869+540803740+552026530
1535+559426310+566232524+574397147+581321067+586382908+590970049+595338580
1522+600698185+608307125+615841770+623553307+631707189+638289891+642020868
1508+643382129+649192946+661004756+670061109+675886411+679753724+685099913
1495+693179053+699880263+703791342+707760716+715252486+723905447+731256513
1481+737466756+743164904+747922519+750755571+753255606+760233186+769945322
1468+777381960+782124868+787884477+795860841+802471444+806501699+813700786
1454+825906093+837025885+845420304+852870580+862040493+870892810+877668673
1441+884297549+891711992+899201399+906532588+914157929+921450611+929234439
1427+938158957+945507795+950793995+954687246+956309099+959356437+966272246
1414+973728940+980682097+985954392+987927001+987743645+988075236+990796420
1400+994385891+995833393+994142814+992151843+994113755+997229550+995769748
1387+990705144+989834540+994821060+1001474537+1006788816+1008885326+1007715755
1373+1007069598+1008396229+1008551150+1007956871+1008576732+1008382502
1362+1008141207+1010665665+1013013275+1012729640+1010717811+1008170266
1350+1006095060+1006061455+1007118089+1007097409+1005963939+1003985358
1339+1003079455+1004316057+1005067841+1004794635+1004707994+1005116154
1327+1006399107+1008701881+1010776820+1011483144+1011808317+1013681181
1315+1016863027+1020102278+1023552605+1027418937+1031600725+1035985480
1304+1040097028+1043302317+1045090679+1046633825+1049675903+1054137227
1292+1058552109+1061381685+1062974034+1064539820+1065704667+1066254555
1281+1066942963+1067854303+1068573997+1069027795+1069192076+1068807805
1269+1067560328+1065349455+1063200443+1062591546+1062573005+1061506655
1258+1060443871+1060711461+1062086761+1063390929+1063463220+1062724984
1246+1062524603+1063174236+1063981731+1065202645+1066925581+1067010439
1234+1065253632+1064420465+1064860091+1065492966+1066622781+1067619426
1223+1067553464+1067002952+1066791786+1067104747+1067223121+1067359501
1211+1068364614+1068987595+1068684438+1069446384+1071666528+1072889135
1200+1072412072+1072484006+1073515236+1073667482+1072722092+1072438903
1188+1073208158+1072995654+1071727765+1072043490+1073391513+1073114118
1177+1072181028+1071846853+1071326023+1070911713+1070794141+1070119639
1165+1068643614+1067024969+1065497244+1063829574+1062681931+1062707781
1153+1063171473+1062358897+1060024123+1057796849+1056585027+1056009200
1142+1055078873+1053543126+1051498851+1048215478+1044099027+1040352941
1130+1036835493+1033300574+1030293170+1027524565+1023887583+1018991894
1119+1013997173+1010726992+1008650538+1004882347+998538710+992176801+987910956
1105+985461908+983536274+980014637+973963995+968044563+964907553+962728502
1092+959447268+957041273+955258081+951003557+945177363+940593654+937766574
1078+935457294+932102432+927857445+923800449+920099021+917079673+914147322
1065+910665351+908222631+906490158+903049012+897606643+892086814+888595483
1051+886555041+884192278+881834595+880390660+879632725+878471711+876201829
1038+873366728+871291700+870737890+870663906+869777078+868430570+867041721
1024+865395800+864453084+864883706+865153169+864364838+863637210+863357319
1011+862705903+862123569+862888991+864567536+865573362+865404714+864997713
997+864990493+865046471+865339020+866157835+866804705+866645149+865853342
984+865150405+864638044+863332360+860981631+858096434+854868326+851897111
970+849556721+847209290+844889937+843269598+841871658+840170204+838820309
957+838432026+838758982+839715336+842078189+845054662+846682043+847638219
943+849585602+852722879+856458090+860011638+863267647+866639355+870715783
930+875730115+880555118+884061602+886883601+889749901+891988228+893610973
916+895613978+897775737+899048885+899178669+898823635+898702765+898578329
903+897220857+894288328+891098994+888646202+886806408+885455086+884613273
889+884163219+883633297+882141763+880127259+879109756+879006714+879023739
876+879565516+880839199+881660688+881307437+881208049+883430154+888292684
862+894306066+899444209+902657966+905175115+908259713+911968984+916542531
849+920540073+922188757+923424735+927527013+934327211+940063376+943504255
835+947575959+951739742+951885838+949555521+950494315+954840027+958762694
822+962441034+967705842+972174741+973230217+973386118+975568467+978379145
808+980565149+984202130+989379226+992960496+995149264+998869321+1003815818
795+1006947748+1007193053+1008082109+1011611234+1015379426+1020007792
783+1026405980+1031604648+1034906472+1038582763+1043848016+1047291391
772+1045610172+1043141781+1044347898+1047658815+1049629552+1049034650
760+1048906114+1052414559+1056615512+1057694608+1057634975+1058629837
748+1059014465+1055842424+1049549328+1045669894+1047331859+1049865231
737+1048669810+1047355837+1048735237+1048732920+1045148975+1040335114
725+1037502686+1037714298+1037298562+1034911553+1034854149+1035439959
714+1032462238+1030263666+1031296767+1032311417+1033575385+1036319566
702+1037667055+1035878426+1035211946+1038194035+1039281778+1033955377
691+1027288262+1026120563+1028279201+1028536630+1028401854+1028908154
679+1026816012+1025538496+1031443487+1040022064+1042914035+1040574091
667+1040871899+1044957687+1045846831+1044185757+1042797087+1041467158
656+1041051332+1040595306+1036910101+1029164424+1020950241+1018206594
644+1019507821+1018535154+1015577043+1018139919+1010109627+963862418+927568016
631+951499249+999985587+1019989608+1029721532+1041137172+1035007198+1023792830
617+1039319572+1069337904+1073741823+1065638794+1063295107+1051057176
606+1034831597+1034701813+1044351464+1048632016
##END=
