##TITLE=Sample description
##JCAMP-DX=4.24
##DATA TYPE=INFRARED SPECTRUM
##DATE=24/8/2023
##SAMPLING PROCEDURE=Instrument type and / or accessory
##ORIGIN=Default
##XUNITS=1/CM
##YUNITS=ABSORBANCE
##RESOLUTION=4
##FIRSTX=4397.6552
##LASTX=599.8556
##DELTAX=-1.9287962
##MAXY=1.2827927
##MINY=0.34168214
##XFACTOR=1
##YFACTOR=1.1946938e-009
##NPOINTS=1970
##FIRSTY=0.49005467
##XYDATA=(X++(Y..Y))
4398+410192697+410260898+409569880+409249305+408953800+408179314+407793656
4384+408041590+408286306+408249312+407976806+407375343+406503022+406019801
4371+406024590+406075529+406350430+406707925+406738034+406924652+407454097
4357+407484904+406547649+405009405+403861909+404136610+405197994+405598445
4344+405401575+405170728+404540029+403222180+402094266+402227051+403387644
4330+404690351+405414970+405085514+403968476+402870722+402557081+403049132
4317+403527738+403366265+402717780+402179006+402171796+402816689+403066270
4303+401693290+400239936+400195109+400451175+400423236+400330838+400434736
4290+401243721+401717737+400869163+400025529+400326073+401507645+402584047
4276+402343222+401099611+400026377+399332192+399316077+400067986+400207981
4263+399120080+398044426+397540251+397193982+397349992+398296826+399183691
4249+399560444+399530359+398839118+398086759+397976300+398491052+399766020
4236+400819597+400417200+398954690+397225688+396175454+396564306+397523713
4222+397737147+397323973+397037024+396926665+396529956+395962569+396100967
4209+396789240+396959369+396929160+397455886+397793524+397261934+396656305
4195+396602148+396503314+396022338+395669483+395435943+395129262+395248152
4182+395653094+395524175+394829216+394360439+394693438+395222907+395219939
4168+395244136+395603876+395499504+394853838+394353130+394204629+394415394
4155+394850021+395141759+395030727+394504126+393725724+392951563+392817605
4141+393652783+394759319+395231663+394889809+394354602+394107890+394169206
4128+394356273+393944272+392819626+392569447+393910695+395026960+394862968
4114+394399728+393712927+392328323+391149969+390857432+390966095+391340777
4101+391855255+391770615+391157852+390684409+390194079+389531924+389293095
4087+389269097+388836516+388667884+388912126+388674545+388195565+388011491
4074+387895769+387954416+388300186+388425712+388056618+387597619+387515174
4060+387461391+386916705+386441043+386724749+387373234+387553740+387228475
4047+386891585+386643276+386484598+386497220+386456933+385882686+384790519
4033+383952472+383702617+383519267+383262927+383445029+383766278+383526551
4020+383200238+383234414+383237108+383139496+382988376+382484151+381933477
4006+381913122+382054313+381884309+381554579+381418451+381726080+382115680
3993+381973440+381674792+382077214+382713874+382576998+381841079+381075125
3979+380651998+380813346+380994650+380416936+379413001+378784148+378769430
3966+379188541+379385212+379128996+379291616+380048540+380453157+379761641
3952+378312078+377314879+377579876+378328692+377763176+376205150+376330626
3939+378044761+378947791+377980227+375833062+374921626+376473390+377766568
3925+376958581+376115695+376325937+376097884+375394120+375840371+377399395
3912+378471805+378756958+378314523+375656772+371448728+369639400+370518033
3898+372949129+376085910+377264863+375300748+374437631+376025118+375365856
3885+372943990+372365353+371836856+372442010+374502016+374339471+372088906
3871+369706180+368705164+370109026+370452152+369860692+371723428+374145644
3858+374885330+372377900+365281334+364199195+370684570+376362731+378267575
3844+376208568+372587244+369546777+367476345+368111010+370612327+372712346
3831+374451401+375485121+375175996+374816630+373001689+368546709+368355726
3817+371128826+373152535+376311892+379083346+378878193+375980216+374719891
3804+375189042+373353247+372475263+374494956+376898013+379517399+381680404
3790+382568492+382270267+380985346+380113548+380632565+380680261+380590133
3777+382515283+384591104+384668959+382934618+381822345+382313273+383178012
3763+384400495+384534153+382607182+381838784+382931649+382368628+378328368
3750+376717407+380230892+382669247+382435133+384469594+387397606+387025517
3736+383565990+383492201+388871739+395102071+399632512+401937557+403696195
3723+407932278+415545618+425498203+436379912+447061008+457935881+472886462
3709+492239837+510848038+526891285+540095925+551545295+563311723+574674831
3696+584072677+590107710+590822052+585236039+579561969+579337608+580393554
3682+578976546+574563474+568169624+558595563+551111541+550346012+547537689
3669+543401014+543482187+543758634+541962802+539435167+536612974+532031720
3655+528740101+528554356+524992777+514787343+510844645+515776735+520656388
3642+522435956+522529601+522896401+523159826+522407717+520930989+517030200
3628+512915777+515271886+519260434+520454578+517892568+513903671+512733374
3615+513222707+514016176+514882935+514040622+513302533+514692700+515388282
3601+514170389+512750487+511823609+511053939+511329887+512871274+512371464
3588+507933846+506015631+508592808+510539162+510413286+510539212+512052660
3574+513499703+513941988+513314307+509848768+505161844+505912905+510128159
3561+513160692+515105798+517288037+518744859+519049145+519306783+519396238
3547+519063813+519404120+520915024+522875097+524203349+524434645+524770312
3534+526288799+528025211+528623057+528302855+528345412+529312652+531037439
3520+533169088+535125170+536648896+538106316+539148492+538607473+537418916
3507+537769651+538693884+538705958+539328450+540967673+542063782+542507963
3493+543076822+543688936+543961591+544469932+545735621+546558525+546523003
3480+547298161+549063210+550002112+549290764+548334850+548766059+549888510
3466+550154230+549935308+550014984+550117660+550379788+551075121+551677606
3453+552323098+553502325+553944261+552513283+550528414+549698275+550764399
3439+552574150+553330001+554056466+555481208+555910471+555066862+554140982
3426+554048434+554485979+553899658+552533888+552423679+554212775+556824327
3412+558582142+558374844+556926604+556119066+556742705+558157618+559311950
3399+559736124+559856163+560045400+560182650+559878614+558931131+557977212
3385+557934356+558459909+558462104+558230509+558955178+560843508+563025947
3372+564498534+565001836+565085453+564729131+563654376+563272459+564316032
3358+565107805+565188129+565489173+565911451+566513388+567351759+567826872
3345+568302085+569211651+570130396+570842343+571139844+571310871+572001065
3331+572373852+571604879+571058172+571724019+572395405+572266885+571834927
3318+571436447+571390697+571798806+571531938+570306263+569948344+570840597
3304+571284828+570871779+570962780+572321216+573954154+574670940+574216382
3291+573315048+573258222+574196724+575369915+576588456+578017339+579284823
3277+579448317+579032923+579644539+581094226+582563719+583464055+583375498
3264+583422097+584282070+585257742+585990792+586433427+586637980+586636035
3250+586879902+588149133+590386003+592633050+593690793+593580882+593560826
3237+594162962+594763203+594799623+594332293+593364055+592351515+592606758
3223+593918496+594230465+593238080+592747151+592856762+592508472+592381349
3210+592823385+592443015+590850988+589178388+588196181+587920682+587597986
3196+586530664+585777358+586078351+586341777+586209515+586027562+585606680
3183+584953605+584297636+583868473+583791241+583733268+583257057+582747868
3169+582496317+581620428+580182864+579204648+578383640+577133317+575921611
3156+575319824+574888765+573780782+572657632+572956979+573912295+573477494
3142+571611515+569560989+568021897+567116123+566443441+565857070+565532378
3129+565098275+563984755+562033712+559974454+558888125+558586183+557877430
3115+556262503+554545549+553882296+554097078+553779121+552617007+551863551
3102+552065610+552235040+551604765+550650098+549912557+549312117+548632600
3088+547732165+546999613+546780491+546365796+545570631+545272281+545492551
3075+545332400+544336224+543098923+542385979+541880132+540769256+539451531
3061+539011042+538785285+537620825+536446887+535955958+535191126+533962457
3047+533115206+532723959+531918766+530324345+528538441+527050088+525658225
3034+524138591+522762593+521650320+520679288+519910615+518898972+517350651
3020+516008479+515120616+514061926+512671909+511346251+510213223+509107286
3007+507936440+506656084+505441783+504397112+503453521+502852832+502456945
2993+501690817+500631728+499817554+499552582+499572738+499233329+498491597
2980+497811082+497410506+497286726+496943774+495996840+494907317+493777632
2966+492258895+490619921+489250759+488061104+487029954+486342953+485751244
2953+484669654+482962329+481290776+480242762+479506319+478788086+478436303
2939+478500164+478185501+477024484+475754006+474996558+474424107+473444045
2926+471928652+470409716+469071785+467590467+466146866+465042775+464230996
2912+463842544+463868787+463628112+462811394+461980606+461411298+460909842
2899+460393469+459847660+459197478+458315303+457265294+456362863+455821295
2885+455475499+454918315+454107035+453378674+452813507+452430742+452225440
2872+451644757+450553288+449672759+449103851+448315072+447337455+446489355
2858+445617108+444594090+443553710+442372537+441083000+440043518+439498108
2845+439273848+438894974+438387731+437901841+437319761+436872786+436614849
2831+436212327+435713466+435301963+434849600+434468332+434340112+433902417
2818+432886184+432075802+431870201+431782293+431400426+430722804+430003973
2804+429504213+429151832+428695128+427952798+427106744+426765837+426907878
2791+426734356+426142398+425738080+425567352+425343391+425115987+424895518
2777+424634887+424310943+423805596+423181907+422594888+422124165+421686420
2764+421120405+420654321+420675974+421087925+421250022+420735145+419937685
2750+419431090+419206530+418898103+418521325+418370030+418289606+418109149
2737+417950321+417607619+417029954+416649784+416432607+416064261+415756333
2723+415716096+415708936+415528655+415210224+414953659+414935349+415024505
2710+415026201+414837014+414325904+413725015+413501428+413635460+413781467
2696+413805389+413678816+413313862+412895574+412733478+412702870+412646493
2683+412667971+412674706+412594980+412568638+412532816+412360716+412167338
2669+412088136+412055782+411846887+411420568+411137086+411225443+411419121
2656+411472180+411491662+411604940+411689206+411619010+411421241+411203317
2642+411231705+411483356+411561635+411585932+411872581+412106646+412013998
2629+411906557+412063939+412350439+412620425+412972956+413424146+413864061
2615+414283372+414662719+415021810+415440921+415777362+415993316+416417241
2602+417069568+417545280+417730575+417933084+418396622+419054063+419693168
2588+420124827+420344647+420523956+420739186+420997622+421291831+421534002
2575+421705129+421872364+422032664+422129952+422106802+421996343+422041146
2561+422312903+422577525+422727498+422663338+422351618+422110395+422120922
2548+422281122+422395373+422173208+421775775+421728378+422027376+422332809
2534+422518454+422558567+422427702+422190520+421996792+421926795+422032415
2521+422325775+422589050+422633404+422558816+422457388+422329467+422346380
2507+422593940+422864200+423005591+423061070+423184601+423407564+423488588
2494+423333227+423176319+423126278+423093001+423082374+423138003+423213787
2480+423207451+423100584+422880464+422509624+422231131+422180991+422083503
2467+421810549+421544130+421481616+421538742+421413415+421068717+420712395
2453+420421928+420180605+419981140+419774591+419519198+419216209+418893713
2440+418547318+418086524+417475407+416911912+416562574+416200189+415634449
2426+415043763+414605494+414343416+414096903+413698672+413246933+412786887
2413+412263229+411826108+411522271+411125761+410614451+410181646+409738163
2399+409106417+408481430+408083349+407759081+407238442+406601058+406116814
2386+405543465+404446708+402793914+400609605+398025468+395243138+392133648
2372+388818505+385748578+382923168+380182847+377846070+376346816+375621598
2359+375400755+375940303+377648925+380450812+383751860+386015122+385651066
2345+382911169+380191154+378843244+378473476+378888820+379684883+380172394
2332+380135375+379996154+380183720+380609541+381104835+381817755+382744183
2318+383720852+384813593+385960466+386938083+387695580+388308244+388925697
2305+389545320+389954128+390186496+390471748+390807466+391095088+391333369
2291+391533906+391760686+392033391+392204668+392191147+392065072+391965764
2278+391986693+392055568+392144624+392335532+392590501+392803311+392892442
2264+392829504+392796801+392983892+393234471+393392177+393653806+394148801
2251+394641800+394917723+395081217+395316902+395650375+395975540+396283868
2237+396718095+397239533+397791329+398550747+399462757+400195134+400710634
2224+401309054+402112176+402938598+403672921+404373967+405225733+406387598
2210+407717048+409066504+410477899+411939460+413504246+415178119+416804346
2197+418457340+420326088+422341091+424379644+426466840+428695328+431231943
2183+434053038+436865951+439578583+442277594+445037473+447881019+450724515
2170+453622691+456615063+459478465+462087872+464516773+466827232+469106060
2156+471308056+473158369+474565848+475692889+476495388+476626253+476078697
2143+475293810+474259965+472495964+469817608+466504586+462836738+458718424
2129+454243786+449796340+445177816+440026555+434663057+429543527+424714264
2116+420005587+415348772+410833598+406464780+402200808+398143710+394368397
2102+390786262+387321073+383969061+380752928+377737457+374898576+372204903
2089+369729678+367365511+364922442+362550492+360479385+358561420+356543074
2075+354468325+352563082+350921139+349354857+347597142+345733308+344168697
2062+342884898+341356507+339477956+337747357+336417458+335207324+333905763
2048+332627602+331464390+330304521+329103715+328052484+327131543+326106081
2035+325154706+324541195+324039964+323527008+323223819+323004947+322573488
2021+321925128+321007729+319891664+318998987+318321141+317405064+316191936
2008+314991605+313947084+312940555+311897331+310900007+309987498+309045778
1994+307790442+306256488+305087638+304493585+304060929+303520158+302904177
1981+302364280+301789185+301032162+300294122+299733969+299051907+297867092
1967+296632710+296180821+296204195+295950549+295372784+294662883+293979699
1954+293474700+293065493+292612706+291985924+290987951+289638994+288772036
1940+289123070+289763148+289762574+289328397+288931488+288715883+288568954
1927+288205671+287253125+286223346+285999759+286070879+286262212+287039865
1913+287584502+287198269+286695391+287101555+287979415+288456873+288558102
1900+288577809+288377072+287930996+287704141+287565169+287147854+287258987
1886+288019253+288555533+288938497+289439953+289956925+290373442+290578918
1873+290250635+288751780+286895530+287438545+289901122+291815620+292687343
1859+293079637+293448059+293940359+294436801+294740389+294523238+293697714
1846+292557402+292358960+294245269+296331817+297340815+298065185+298817269
1832+298473270+297145966+297227188+298607427+299754674+301091407+302369020
1819+302864813+302867033+302584225+301578794+300252089+299914550+300333311
1805+300158692+298816670+297053118+296331617+296545077+296282899+294829046
1792+293830823+295585071+297916659+298704440+298418764+298071796+298174771
1778+298896247+299098356+297477218+294747748+294481404+296806132+299141212
1765+300263364+299867278+299394834+299892174+300450655+300957450+300357159
1751+297200247+293884881+293977603+295511981+296211779+296020895+295737613
1738+295857377+294722428+291760640+291795863+294897746+298054084+299905669
1724+300174134+299804340+298500585+294657994+291780572+295346966+300647077
1711+304184808+305426399+304859411+304578000+305592412+305693242+304936768
1697+307189827+313267941+319969145+324236285+326666433+328214880+328338535
1684+329834820+336993601+344981374+351008649+355317373+359720242+364059649
1670+368432084+375754658+383753731+389543923+395045370+402307850+409123679
1657+413210762+414497355+418968599+428878777+435389373+441934842+453434702
1643+464708056+472890553+478123785+480857221+485794450+496346427+505923482
1630+512596174+517639271+522278050+526869632+532211827+537269991+540240460
1616+543222504+549035371+554677661+558191794+560539122+563248212+566133966
1603+568767171+571568209+574493277+576765320+578792098+581808218+585784542
1589+590300440+595128655+600098313+605487804+611195501+616093614+620109652
1576+627082938+637055081+644934839+652248133+662385166+673419292+683277284
1562+690171991+692953522+700387154+717406621+732256721+744667843+756048163
1549+767700291+777104722+782165431+783772026+786884934+802364561+819197684
1535+829296651+837599436+847672359+856333662+862179308+866791445+871088569
1522+876358272+884133109+892418831+901305542+910242045+915759607+916320383
1508+912374492+913359344+925777250+935660986+939962701+939186993+937071808
1495+939214832+942366257+941090241+937111721+938130498+941771355+943162719
1481+942025999+940287492+938191764+933956904+926957276+922388444+924128049
1468+925644540+922580226+919164179+919703103+919211376+912784099+909724075
1454+917916301+926874357+933056469+937749330+944137991+951978185+959141656
1441+965536005+970665115+974150809+979481379+987104447+993125112+997973334
1427+1003783358+1008012530+1009441712+1010170223+1009797636+1011054493
1416+1017079548+1022229911+1024308775+1025854802+1026541803+1024963447
1404+1023570985+1024130165+1023589844+1021371783+1019512739+1018425511
1393+1019828850+1020789254+1016567366+1010133104+1008767184+1011738102
1381+1014893518+1016343354+1015883258+1014902498+1015294343+1016371593
1369+1016634918+1017427190+1018785726+1017298770+1014537195+1014936623
1358+1016015569+1015398815+1014243037+1013178559+1011952534+1011232705
1346+1010663846+1008682868+1004535716+999149867+996443571+998294234+1000875502
1333+1001468907+1001410335+1002036269+1002528595+1002984600+1004439326
1321+1006612186+1008184755+1009748243+1013722971+1019180464+1023328115
1310+1026232179+1029135544+1032420976+1036164110+1040562513+1045174850
1298+1048769607+1050942566+1052571213+1054599687+1056827826+1058506264
1287+1059868891+1061404241+1062156899+1061042331+1059476647+1059478642
1275+1060346748+1060306835+1059407996+1058429731+1056904758+1054553787
1263+1052394997+1051455547+1051896385+1052674887+1052986906+1053434030
1252+1054610663+1056336598+1057928225+1059026928+1059864500+1060321204
1240+1060695787+1061458822+1062043846+1062580674+1063516532+1064102254
1229+1064029713+1063301003+1062274642+1062604323+1064172801+1065477853
1217+1066950041+1068743828+1069779268+1069886534+1070236770+1071631727
1205+1072885392+1073294599+1073067195+1072190607+1072006709+1073015607
1194+1073741823+1073346585+1072207570+1070968474+1069832253+1068773164
1182+1067726547+1067274932+1067651810+1067235618+1065790571+1065160745
1171+1065348735+1064336942+1061313240+1058440807+1057706110+1057642448
1159+1056460028+1054139092+1050910137+1047404785+1043947528+1040642040
1148+1037824986+1034792003+1030883630+1026211324+1020928850+1015630410
1136+1011277607+1007494660+1002174368+995111079+988197363+982096374+976873968
1123+971827279+965733873+959425836+953736948+948099747+942698931+937965957
1109+933845248+930537165+927977949+925699719+923508001+921384035+919612401
1096+918436965+917695583+917445528+917739088+918664968+920264977+921818288
1082+922589705+923322207+925955062+930271645+933374375+934507802+935931695
1069+938613245+941387891+943639878+945894559+948385424+950801253+952982594
1055+954735370+956516384+958958556+960595983+960378059+959582894+959781161
1042+961741185+964207304+965836150+967161758+968264452+968948959+970107331
1028+971728295+972411404+972215432+972640904+973668362+973867328+973286695
1015+973232014+973895866+974630164+974794904+974460733+974301181+974376617
1001+974268652+973648905+972936658+972275900+970729474+968660788+967458511
988+967017074+966343843+965018634+963034363+960767309+958263772+954886141
974+951544232+949557966+948061930+946257966+944563064+943341429+942595756
961+941752196+940990957+941386095+942489188+943127995+943364279+943682285
947+944196663+944956805+946134236+947598940+949277178+951288091+952963236
934+953930526+955164134+957395366+959709218+960994414+962061386+963490568
920+964034681+963403159+962883592+962974594+962675247+961428766+960028222
907+958706605+956495330+953487293+951726734+951656188+950682712+948097353
893+946626162+947074484+947043652+945688608+944494114+944459889+945265232
880+945623849+945506206+946477686+949175201+953476616+958521410+963051326
866+967774222+973579755+979079855+982121020+982100066+981063128+981215695
853+982103259+981800220+979891784+978699385+979439970+979544741+978164752
839+977714634+978296664+979553622+982101962+982887149+979324023+974376218
826+971612747+971998306+974941684+978188799+979765360+981065124+983120639
812+984428785+985239915+987215605+990218154+992237448+992479021+992472934
799+993203042+994635117+996311260+998716712+1002269560+1005126527+1008122091
785+1013510136+1018720468+1021665642+1023718164+1025126990+1026325974
773+1028854458+1031720804+1032787776+1033238692+1034989472+1036445895
762+1036277861+1036388320+1038279395+1040959547+1042431835+1042371067
750+1041248217+1039107188+1038458504+1040095831+1040111098+1037855420
739+1036630193+1037987432+1040289509+1039662178+1035173671+1030845115
727+1029577979+1029993872+1030127081+1030142947+1030465543+1029968427
716+1027231898+1023251881+1019845912+1017218744+1017032650+1020069026
704+1021965089+1020222092+1017017284+1013864762+1011552507+1010091095
692+1009558557+1010947726+1011553904+1007988383+1004296937+1005857532
681+1009948506+1012269742+1014713510+1017727235+1017235308+1011234002
669+1003702235+1005895150+1015397318+1019680274+1019904684+1021141186
658+1024868554+1027646992+1023761170+1014729076+1008522917+1008379729
646+1012495949+1018970123+1023521493+1021076029+1016032632+1015000684
635+1014161914+1011504811+1012059700+1013559229+1010042102+1003958076+999243862
621+995365523+993309010+995137421+1001314344+1006048715+999788972+987816195
608+984341675+990418716+999259927+1006290787+1005134310
##END=
