##TITLE=Sample description
##JCAMP-DX=4.24
##DATA TYPE=INFRARED SPECTRUM
##DATE=24/8/2023
##SAMPLING PROCEDURE=Instrument type and / or accessory
##ORIGIN=Default
##XUNITS=1/CM
##YUNITS=ABSORBANCE
##RESOLUTION=4
##FIRSTX=4397.6552
##LASTX=599.8556
##DELTAX=-1.9287962
##MAXY=1.4102285
##MINY=0.33897746
##XFACTOR=1
##YFACTOR=1.3133776e-009
##NPOINTS=1970
##FIRSTY=0.45158172
##XYDATA=(X++(Y..Y))
4398+343832350+343310176+342618566+342462813+342916867+343555992+343973513
4384+343996590+343484673+342822335+342819612+343220205+342779403+341344673
4371+340152106+340089047+340870265+341843339+342585573+342742960+342396282
4357+342245430+342374974+341906080+340944466+340694021+341433079+342121399
4344+341766029+341125906+341438933+341848580+341005823+339717408+339504018
4330+340103388+340398081+340312239+340407361+340526015+340370057+340395970
4317+340381561+340045593+340199100+340619753+340304002+339693401+339772503
4303+340394042+340697380+340244891+339561609+339137893+338659514+338526906
4290+339361335+340079403+339744252+339274768+339345610+339544908+339674431
4276+339700662+339697803+339509941+338926977+338715970+339171068+339413094
4263+338860469+338072920+338187988+339079372+339232516+338202578+337354216
4249+337478928+338080249+338639137+339096255+339698846+340048066+339519063
4236+338374329+337285212+336635695+336399137+336737375+337770943+338833353
4222+339030427+338381023+337698898+337364133+337325830+337456963+337587461
4209+337752246+337965272+338170538+338263550+338092866+337956808+338119029
4195+338035683+337672417+337448998+336952920+336543931+337167285+338135094
4182+338335300+338249345+338630673+338913294+338539114+337726060+337032203
4168+337028664+337344731+337181966+336768984+336828095+337247363+337548976
4155+337686191+337585146+337101957+336557319+336643977+337350359+337593883
4141+336957413+336595712+337036583+337264744+336889520+336510302+336502950
4128+336729228+336806129+336485206+335953479+335917763+336292011+336191738
4114+335696976+335408047+335417010+335445919+335313038+335167677+335273305
4101+335614107+336001925+336424483+336505514+336069954+335732851+335517782
4087+334942488+334280581+334108966+334352921+334596626+334547182+334277972
4074+334461976+335279500+335827723+335470698+334627918+334042867+334007786
4060+334306404+334569919+334683988+334684578+334524967+334250992+333973749
4047+333678421+333464532+333597707+333989088+334247406+334240259+334073818
4033+333916498+334038646+334132429+333666530+333240046+333269727+333186200
4020+332835732+332464501+332563685+333380665+333914161+333341522+332667453
4006+332847622+333007778+332529852+332138426+332358169+332948780+333228474
3993+332953069+332598857+332333980+332055172+332028033+332421478+332852342
3979+332969792+332799357+332535275+332391571+332213557+331758437+331412552
3966+331766197+332460349+332569381+332177319+331805657+331520767+331483009
3952+331725670+331854807+331746365+331891363+331726828+330591057+330038591
3939+330719694+331435788+331388999+330402197+329591276+330139408+330979510
3925+331059157+331391064+332258554+332059506+330604263+329667269+330112360
3912+331181282+332267540+333225728+332987333+330925823+328733293+327488604
3898+327750439+329580452+331212891+330734376+329710882+330302968+330023977
3885+329003411+329600398+329159550+328752354+330414065+330972862+329959489
3871+328772753+328031676+329115801+329324108+327708710+328024279+330345786
3858+332741177+332929447+327176507+323340987+326593407+330442474+332430759
3844+332244281+330768594+329249136+327914180+327644380+328401545+329268605
3831+330729906+332668678+333780169+334447249+333866963+330297749+329010922
3817+329616826+329214849+330979669+334001886+335177707+333178666+331535086
3804+331877090+330286993+329407408+331267872+332882612+334355553+335647985
3790+335927225+335641745+335099240+334635088+334891954+334695901+333998028
3777+334671304+336022415+336648901+335761669+334543688+334609402+335061073
3763+335888400+336349171+335284038+335118800+336920494+337631096+334342914
3750+331541212+333712344+335389281+334050196+334783830+337503253+338613405
3736+336213567+333294006+333861540+336601930+339370480+340658600+340794431
3723+341551709+343101234+345246611+348174273+351504184+354154059+357841019
3709+366744200+379992640+396265861+416694710+441769432+466047007+485428422
3696+500010842+509497237+513524272+511513228+506449061+503277445+499922255
3682+494183565+486808148+478514547+465230345+451232681+445218337+437595674
3669+428565149+425710712+424179000+420716481+416805761+413517738+409020628
3655+404993548+403985461+400723669+390855878+384627781+385880072+388009293
3642+388244058+386652486+384660139+382987877+381396305+380127586+376603345
3628+370372003+369556499+372338505+373868175+371846170+367897057+366563781
3615+366421166+365502551+364934541+363817332+361676584+360634937+360186375
3601+359009533+357570878+356012980+353697803+351703846+351371962+350422260
3588+346351907+343050632+342794447+342754646+341683365+340190977+339095007
3574+338455428+338019391+337228711+334002158+328599641+326015413+325603633
3561+324713315+323920796+323822134+323355259+321805871+319993036+318688214
3547+317236648+315389935+314054571+313397633+312735295+311441479+309826808
3534+308738712+307645646+305679508+303851175+303211936+302748329+301827764
3520+301017092+300209892+299084696+297743841+296399242+295195261+294178575
3507+293338405+291979170+289829254+288236570+287739857+287328621+286426957
3493+285225609+283666690+281948182+280842909+280489695+280038773+279025966
3480+278222670+277912411+277236662+275827075+274411611+273653901+273342961
3466+272949675+271904329+270116568+268469606+267663065+267490361+267376495
3453+266968959+266184428+264996807+263731537+262877026+262315619+261931318
3439+261764446+261215270+260239632+259677499+259566969+259515551+259418046
3426+259016999+258414339+258118285+258095957+258170793+258555253+259155394
3412+259619023+259864158+260107273+260477596+260696455+260696477+260746398
3399+261118968+262128574+263212314+263435256+263277415+263543244+264036441
3385+264497779+265047250+265714898+266296750+266725843+267413845+268680432
3372+270259932+271895366+273284690+273919095+274179977+274841862+275827166
3358+276899423+277863239+278559773+279468130+280765191+281768353+282087144
3345+282136838+282630330+283797778+284927376+285401331+285441812+285094748
3331+284442462+284135675+284376430+284873212+285201783+284819184+283704947
3318+282617759+282429625+283047284+283451394+283170452+282826928+282993800
3304+283310912+283339072+283681643+284895699+286258860+287134542+287836930
3291+288730788+289888592+291171312+292447928+293636319+294264008+294146308
3277+294203649+294961404+295491678+295088884+294437483+294447762+295099504
3264+295772847+295707814+294934424+294562013+294768732+294799842+294519104
3250+294248555+294188400+294125545+293912314+293634141+293288438+293157328
3237+293482608+293900787+294080707+293935255+293233729+292600209+293018683
3223+293784017+293802307+293375823+293147933+293101461+293065972+293115303
3210+293102936+292922290+292969829+293227489+293091613+292702207+292923584
3196+293833099+294525594+294583956+294589288+294995872+295524853+295733999
3183+295709947+295879496+296210858+296456061+296694298+296927792+297071473
3169+297175173+297127884+296903467+296732192+296710431+296869566+297170862
3156+297434807+297554981+297564988+297769891+298246137+298359390+297967464
3142+297905131+298409605+298767357+298580834+298121221+297799185+297731111
3129+297758250+298022763+298715984+299341676+299546465+299661942+299974765
3115+300518971+301074184+301448455+301575436+301401053+301261319+301296945
3102+301194811+301222676+301854358+302620849+302779848+302437821+302256562
3088+302713475+303478696+303854760+304036200+304527196+305193641+305816405
3075+306185526+306142230+306053893+306083097+305784478+304994751+304112193
3061+303752422+304163567+304651476+304515737+304048204+303547905+302987927
3047+302689423+302895959+303408671+303735494+303490269+302978284+302804559
3034+302936622+302860062+302595617+302512180+302683432+303087021+303587274
3020+304075978+304566406+304847643+304702418+304316143+304115552+304225854
3007+304399216+304570604+304915104+305499021+306378470+307598562+308960543
2993+310215828+311456456+312939631+314541391+316006050+317495284+319188468
2980+320619998+321247709+321342808+321128920+320468805+319814409+319392668
2966+318825974+318393658+318392773+318302847+317961955+317675295+317594718
2953+317819884+318300215+319071880+320143116+321162616+321828971+322156384
2939+322361991+322463512+322240320+321551092+320509763+319577784+319002059
2926+318553723+318043666+317519655+317201499+317273022+317395238+316866212
2912+315889303+315396152+315350293+315154557+314804339+314494398+314326822
2899+314385343+314607196+314767125+314606221+314184343+313925457+314110346
2885+314557525+314777540+314505131+314145654+314124120+314159882+313975787
2872+313670361+313241676+312800805+312625220+312701621+312793317+312734433
2858+312482309+312128710+311759022+311354685+311005510+310855974+310909276
2845+311098046+311403585+311759340+311972389+312078426+312340988+312825947
2831+313335209+313682614+313996549+314411710+314828097+315248862+315719277
2818+316205576+316678509+317077309+317385050+317658980+317941011+318127761
2804+318122995+318196878+318532960+318801444+318866160+319096976+319673337
2791+320192515+320288250+320289022+320587073+321028397+321428082+321802876
2777+322184113+322579260+322950060+323308379+323623630+323834274+324071058
2764+324414651+324768205+325088448+325429227+325834676+326223538+326596017
2750+327062415+327433827+327571291+327774878+328121647+328440121+328903183
2737+329544509+330036004+330469477+331178695+331948454+332387078+332639088
2723+333000698+333405058+333807285+334288432+334714939+334992749+335216055
2710+335436570+335665798+335835643+335894981+336007802+336164463+336151098
2696+336184817+336558839+337059910+337463022+337739062+337816893+337723133
2683+337615757+337612126+337733253+337883855+337950318+337949887+337956536
2669+338018188+338130737+338238136+338381182+338687765+339084682+339278466
2656+339307239+339515886+339848564+340003705+339968238+339944276+340005202
2642+340078427+340236495+340529645+340799264+340933892+340923907+340819505
2629+340813242+341106164+341601245+342015090+342329705+342627325+342777655
2615+342822584+343016300+343406751+343764208+343835436+343768360+343803985
2602+343804644+343701511+343604075+343533754+343530532+343590097+343575892
2588+343434184+343211106+342914734+342598099+342338169+342210712+342195985
2575+342039437+341732514+341642429+341803288+341807327+341492099+341156358
2561+341015376+341049504+341239499+341374059+341212269+340986626+341026200
2548+341212950+341135164+340672419+340356465+340513580+340684627+340595087
2534+340514555+340615282+340795951+340985810+341299427+341731720+342033878
2521+342055616+341908327+341857929+342052485+342323488+342420198+342325008
2507+342214342+342195440+342198254+342106717+341958520+341933673+341992217
2494+341975788+341962083+341963648+341919604+341852415+341691284+341519306
2480+341526613+341636008+341684567+341637959+341541249+341422664+341303988
2467+341260216+341308458+341378166+341420667+341402831+341328245+341307528
2453+341380480+341460626+341594210+341844836+342060450+342111301+342073474
2440+342031972+341962037+341921238+341992580+342042342+342001044+342070093
2426+342335492+342578312+342654509+342702411+342842462+343058143+343276843
2413+343386419+343405843+343512991+343772921+344041882+344215584+344314927
2399+344402538+344606284+344925778+345191358+345326258+345383826+345381103
2386+345188499+344782573+344217014+343235953+341643541+339666307+337548976
2372+335366249+333169385+330928659+328702546+326987919+326031977+325471637
2359+325438780+326486349+328500048+331364583+334955967+337674913+337829850
2345+335693005+333512184+332669132+332681362+333178031+334014344+334758234
2332+335369199+336182253+337056778+337697673+338282906+339173292+340441762
2318+341953051+343458895+344558677+345168848+345743824+346593343+347569412
2305+348450835+349125132+349555677+349731172+349773174+349923414+350260131
2291+350748403+351293359+351696811+351888644+351975711+352082950+352248643
2278+352372492+352356381+352284790+352366933+352691850+353053800+353214069
2264+353207352+353202496+353308715+353457797+353584642+353843595+354196219
2251+354335226+354288641+354385737+354695951+355025475+355177915+355157539
2237+355259899+355564690+355772452+355829271+355972362+356208852+356336763
2224+356361519+356469167+356739671+357102165+357418210+357636501+357787966
2210+357834461+357836798+357969497+358203921+358437347+358727071+359094081
2197+359411692+359628961+359841579+360094656+360383699+360648666+360820553
2183+360997114+361251870+361559769+361932997+362416527+362957738+363346146
2170+363594163+363879915+364197186+364590745+365035586+365441398+365966386
2156+366482682+366688833+366824641+367123690+367439168+367659093+367736221
2143+367721653+367785438+367866991+367698031+367359408+367123509+366786270
2129+366156721+365506159+364905156+364188313+363337524+362421247+361555617
2116+360744582+359883536+358967100+358036709+357085555+356131860+355299337
2102+354510494+353507400+352385018+351427919+350698641+350079530+349425270
2089+348663658+347809872+346929856+346100646+345360204+344620284+343827494
2075+343091386+342414911+341766483+341222821+340690845+340058709+339455799
2062+338877283+338237092+337734705+337447001+337151038+336681985+336058835
2048+335434777+334903164+334473730+334177857+333953735+333627093+333152730
2035+332698086+332364114+332067039+331727032+331349153+330930406+330490693
2021+330144605+329831396+329344235+328803682+328481442+328320991+328148196
2008+327918923+327582296+327150412+326747391+326377000+325979810+325585911
1994+325123801+324506324+323972691+323671917+323414416+323108241+322799344
1981+322534604+322347082+322237007+322101766+321854975+321545782+321143941
1967+320675637+320421108+320416071+320335494+320046474+319658678+319230470
1954+318863823+318665410+318505867+318233502+317891884+317375451+316786202
1940+316758224+317095099+317105492+316810323+316526091+316337458+316240611
1927+316211453+316014832+315642943+315496992+315393338+315254558+315548661
1913+315863957+315713536+315508452+315642943+315962665+316274376+316579484
1900+316829951+316848921+316692419+316733558+316987951+317036647+317118358
1886+317626418+318135407+318428035+318668836+318907980+319155066+319431107
1873+319594190+319096432+317905362+317658753+318868157+320096894+320686892
1859+320953742+321156830+321353292+321569858+321795024+321896591+321737547
1846+321149501+320500687+321049205+322238595+322942821+323305202+323632049
1832+323380833+322331516+322051777+322897076+323510332+324081179+324957406
1819+325597166+325818270+325931772+325925895+325765808+326019747+326723655
1805+327333735+327524479+327237910+327126041+327683568+328258817+328053437
1792+327600109+328595919+330342882+331408581+331821678+332099760+332350295
1778+332859353+333418627+333152027+332094155+332472625+334448974+336277330
1765+337519137+338050478+338325974+339095188+339997555+341052817+341890627
1751+341264119+339938989+340533730+342340257+343670651+344325796+344787497
1738+345558708+345881175+344986659+345518000+348040961+350760203+352863465
1724+354069942+354883472+355352344+354222201+352625387+354477297+357883451
1711+360495068+361828548+361860316+361744091+362767176+363287557+362475138
1697+363411180+366701722+370539602+373334519+374925501+375906585+375829706
1684+375170522+377911865+382250725+385683519+387838926+389637670+391420031
1670+392901913+395884374+400105511+403227434+405465709+408603153+412192154
1657+414744887+415338175+415412602+419402016+423762432+427784839+433894169
1643+440799059+446734800+451408131+455040064+460342218+469192483+477684951
1630+484779041+491215808+497501496+503869417+510864255+517321081+522309368
1616+527765051+534994972+541925502+547631017+552657925+557925179+563410633
1603+568876029+574269447+579322313+583885908+588400626+593261070+598387592
1589+603679671+608905763+614008323+619291643+624822480+629751089+633625230
1576+639289537+647696504+654878500+660861803+668024829+676229616+684223555
1562+690700122+694699247+700480461+711550349+722377213+732423630+741908754
1549+751753128+761125930+769107615+775560765+782687031+798675544+815595764
1535+827981978+840284415+854195035+866252406+876534859+886649849+895999960
1522+905397994+915820316+925828113+936844495+949154194+959941484+967603448
1508+971181876+974447253+984879922+995882054+1003629247+1007235358+1010350155
1495+1016726608+1022536958+1023803862+1022912999+1027433027+1033493525
1483+1035996110+1036116919+1036454838+1036574558+1033859492+1027973535
1472+1024452834+1026954784+1028710913+1024045298+1017708509+1017992514
1460+1020835469+1017766417+1011271424+1012834133+1016383243+1017423052
1449+1016063658+1015132041+1015494195+1015430841+1014899773+1012976272
1437+1008252203+1006875654+1010418048+1012837219+1014207051+1014970842
1425+1012859910+1011556700+1013421930+1012458455+1009469368+1011815926
1414+1015566626+1016422454+1015309306+1013626152+1010848457+1008656018
1402+1008918421+1007940878+1004519021+1002202233+1000822689+999774984+998358135
1389+994054583+988204206+986299131+988834845+992889972+996268624+997260872
1375+995475788+993650586+994129011+995036393+995202221+994525928+992503220
1362+991918056+993887575+994331055+992778512+992015265+991719007+990221741
1348+988925247+988552383+987467826+984957890+981961905+980999156+982493245
1335+983996321+984953261+985740106+986494549+988232162+991378455+994233845
1321+994777348+994076095+994951255+997046030+999252901+1002622840+1007026507
1308+1011338682+1015202566+1018140462+1020340797+1022530332+1025133575
1296+1028986386+1033559875+1037209735+1040115953+1042283613+1042818040
1285+1042820400+1043858938+1045573043+1046910563+1047684156+1048005829
1273+1047444354+1046198508+1045331879+1044748621+1043871373+1043645095
1261+1044403984+1044538589+1043644096+1042903087+1043263154+1045221327
1250+1047862692+1049225898+1049037287+1049083850+1050132917+1050846061
1238+1050165865+1048932544+1048827982+1049528510+1049517709+1049129959
1227+1048958775+1049396628+1051368598+1053718333+1054461067+1054067871
1215+1053309798+1051992156+1051017517+1051338191+1052405774+1053541704
1204+1054437377+1054706406+1054330001+1053559857+1052567609+1051615933
1192+1051114817+1051524533+1052220703+1051767058+1050242652+1049046818
1180+1049115799+1049546935+1048267597+1045538280+1043823539+1043248450
1169+1042000879+1040311643+1039191325+1038865478+1038771172+1037254573
1157+1034886866+1033659535+1032843010+1031159946+1028761742+1026081711
1146+1023835357+1022217010+1020701681+1019212583+1017237981+1014641273
1134+1012712598+1011756293+1011184017+1010473233+1008844538+1006652281
1123+1004965042+1003158992+1000052363+996751406+994794503+994193364+994700652
1109+995498480+995058812+993225895+991379091+989607531+988324198+990159022
1096+994610521+997915109+998826122+999563954+1002133524+1005030938+1006619968
1082+1008515151+1011977126+1015659389+1018731435+1021861935+1023719722
1070+1023293306+1023679059+1026562768+1029216658+1030391889+1031603154
1059+1033315988+1035836635+1038525924+1038858307+1037240686+1036636460
1047+1038069828+1039783933+1040141821+1040647748+1042242224+1043649633
1036+1044673739+1045112590+1044791916+1043999170+1042490377+1041172916
1024+1040915506+1041399648+1042166707+1043150151+1045132831+1047452341
1013+1047926772+1045989021+1043186366+1041691187+1042198021+1043354191
1001+1043853401+1043654625+1043254622+1043547159+1044338179+1044313128
989+1043749202+1043051489+1041935437+1040814393+1040146904+1040031541
978+1040023191+1040367555+1041344735+1041213035+1039048370+1036365616
966+1034400000+1032750792+1030717374+1028942184+1028910869+1030522864
955+1031231015+1029606950+1027847915+1027542762+1027248864+1026236557
943+1025720646+1026146880+1026045314+1025021571+1024980999+1025573424
932+1024964479+1024490230+1025699044+1027111354+1027256397+1026533723
920+1025826115+1025916972+1026792223+1028067205+1029294263+1029160293
908+1028302923+1028869571+1030032821+1029615300+1027831578+1026460929
897+1026272500+1026761453+1026603884+1024785036+1023353302+1024433864
885+1025720464+1025016397+1024322132+1024932802+1024810269+1023600638
874+1023137280+1023270342+1023990838+1026406197+1029870442+1033100239
862+1035103432+1034958298+1033603896+1033666434+1035890005+1038556331
851+1041375051+1044962555+1047227062+1046296171+1044238337+1043053032
839+1042624619+1043339578+1045283683+1047473853+1048365079+1046557757
827+1043022081+1039610208+1037191854+1037774296+1042182047+1047530490
816+1052475573+1056761789+1058258420+1058024881+1057961708+1057028639
804+1055067652+1053779146+1055808389+1059702861+1059028383+1054117701
793+1051065259+1050686858+1051407990+1053243358+1055517032+1055952706
781+1052329894+1047043715+1045014473+1046333385+1046781403+1044722208
770+1043494605+1044199944+1043610331+1041180087+1038714898+1037128499
758+1036883161+1036995982+1036946061+1037527414+1037797622+1036995528
746+1036448213+1036255336+1034547312+1032235789+1032652584+1034758433
735+1035206723+1034216835+1034155115+1036455655+1039499565+1040003948
723+1037459975+1034900390+1034897304+1036854206+1037921336+1035607452
712+1031812368+1029971645+1029838674+1030734256+1032771123+1033830084
700+1032806522+1033214694+1037382370+1042608281+1045003581+1042694054
689+1038449318+1035228688+1032474683+1031763718+1033530558+1034797462
677+1036338114+1039909734+1043044318+1041314874+1032254305+1024496856
665+1027790733+1033532282+1036531989+1038157416+1040426734+1042759587
654+1041679932+1038694022+1041772331+1048466827+1046071073+1037374020
642+1032113437+1025512612+1016165224+1017758611+1036626657+1058537978
631+1071257573+1073741823+1060898333+1038435976+1018810311+1008298493
619+1010003613+1014121731+1010648138+1006735150+1008361394+1013109606
608+1016386329+1015671733+1017866259+1024693181+1024991981
##END=
