##TITLE=Sample description
##JCAMP-DX=4.24
##DATA TYPE=INFRARED SPECTRUM
##DATE=24/8/2023
##SAMPLING PROCEDURE=Instrument type and / or accessory
##ORIGIN=Default
##XUNITS=1/CM
##YUNITS=ABSORBANCE
##RESOLUTION=4
##FIRSTX=4397.6552
##LASTX=599.8556
##DELTAX=-1.9287962
##MAXY=1.4566429
##MINY=0.55544919
##XFACTOR=1
##YFACTOR=1.3566044e-009
##NPOINTS=1970
##FIRSTY=0.6985805
##XYDATA=(X++(Y..Y))
4398+514947844+513280888+513667047+516015724+517712469+517824596+517342303
4384+515834134+513641388+512419642+512369993+512737260+513528031+515367307
4371+517485097+517548410+515980048+515307597+515182993+514728556+514653073
4357+514600788+514035895+513815025+514124691+513677152+512491742+511805583
4344+511537833+511178343+510962087+511000883+510434276+509088761+508671846
4330+509562837+510137089+510153829+510538274+511110110+511682385+512624738
4317+513107909+512207384+510929311+510541086+510181201+509047899+508459939
4303+508786608+508888673+508256820+507003264+505816315+505881473+507478351
4290+508793594+508762223+508890870+509659410+510301368+510764153+510472853
4276+509072680+507991531+508148956+508541178+508072067+506539820+504882662
4263+504723919+505988152+506882658+507067939+507298826+507076638+506131473
4249+505076730+504241890+504089166+504604323+504971458+505340174+506247290
4236+506683010+505975058+504865043+503509158+502407886+502702130+503862804
4222+505029410+506379539+506964995+505811614+504215396+503374536+503126338
4209+503231566+503448306+503244044+502440663+501830910+501899759+501865137
4195+501190753+500441458+500291150+500745236+501141193+501245938+501732931
4182+502315707+502020760+501193917+501045103+501902351+502229372+501044356
4168+499530036+498717428+498546822+498490846+498549106+499053192+499664790
4155+500136933+500371818+500228014+499773006+498969756+498204863+498082324
4141+498415803+498622041+498374854+497789530+497311938+497186192+497485049
4128+498100381+498515012+498463869+498141902+497797570+497425075+496561105
4114+495363700+494780177+494893929+495152584+495326090+495344763+495354473
4101+495385097+495241863+494792435+494099730+493490768+492989759+492850128
4087+493495294+494039976+493569327+492728204+492554962+493136815+493786901
4074+494039273+494073896+494143667+493904037+493240417+492684092+492343187
4060+492146790+492046351+491690289+491393936+491808390+492469241+492522449
4047+492044462+491616651+491325790+490855009+490714939+491677064+492589013
4033+491978908+490804526+490296662+490088974+489699212+489225575+489287921
4020+490278165+491068365+490451803+489058132+488038143+487577599+487489199
4006+487860903+488456200+488461077+487771184+487548030+488401323+489683482
3993+491007162+491563751+490033921+487713495+486994252+487586738+487833486
3979+487957431+489114459+490120125+489491216+488487966+488122985+487767010
3966+487663407+488212879+488116438+487164331+486611213+486245440+485961082
3952+486671274+488002730+488319865+488160726+488251411+486725184+484451023
3939+483904452+485019564+487344911+488843502+487172547+485141664+485367059
3925+485809984+485153131+485471891+486717539+485863806+482956519+481397954
3912+481939825+484053880+487411431+489453518+487651852+484443159+482208980
3898+481291100+482564252+484899397+484912446+482870447+483506517+485090565
3885+484471322+483522422+481251293+478809075+479694003+481490265+482765614
3871+483069040+481421328+480941232+480848570+478963644+477815667+478784339
3858+481501381+483214339+476475776+469702107+472754913+477315888+479833941
3844+480514564+480638026+480709467+479010612+476958771+476413605+475724986
3831+475554732+476532937+477126126+478135570+479083020+476537507+474724329
3817+474591069+472727936+473109438+476030522+477625334+475780039+474707545
3804+476335969+475220462+473770552+475261411+475758905+475574547+476148579
3790+476966416+477703673+477394754+476370855+476524765+476387595+474956139
3777+475350646+477448313+478599014+477250423+475339750+475665496+476452489
3763+477085924+478176563+478298399+478005518+479473441+481669790+480945055
3750+478858548+481163508+483619259+482693074+484577166+490119158+495143357
3736+495810360+491437126+488553696+490959227+495796607+498630433+497444715
3723+494204124+490969640+489068062+489668412+492658081+495517566+495599727
3709+495669894+498349195+502803799+507829009+513067883+518423584+523727440
3696+529862094+536835279+542108643+542223889+540187601+541682501+544774982
3682+546892684+547693078+547779326+544845369+540744146+541815717+542171077
3669+539139273+539065767+541168091+542853281+544643172+547227306+549975104
3655+554121932+560957068+567621246+568165446+564411367+564184654+566347611
3642+568100551+567943961+567021731+566776477+567123620+568387545+567488909
3628+560913087+557943849+559062959+558972625+556488360+553358884+552118201
3615+551376507+550129277+550169260+550007792+547825723+546428142+546759952
3601+546918563+546828625+547988772+548928533+547669704+546468169+546717026
3588+545029199+540531185+538269635+538398501+538153027+537087036+535974824
3574+535193674+535818146+538432068+540786326+538544634+534364546+532982782
3561+532779443+531532961+530518244+531046055+531956422+533193590+535945298
3547+538101928+536047231+531601019+529537183+530937004+533185462+533776498
3534+533583176+533924300+534726627+536658126+539450168+540019192+537533125
3520+535438709+534721531+533944995+533978386+535531810+536911377+537076008
3507+537681850+539618534+540359481+538116208+534777199+532456509+531749612
3493+532068812+532661473+533442052+534525573+535873066+537540814+538258123
3480+536924426+535476802+535035370+534717840+534836162+535501714+535243103
3466+533668941+532505147+533508923+535853075+536819725+536032820+535144070
3453+534504264+534108790+534267226+534588271+535046354+535811731+536223813
3439+535859929+535461819+536035588+536687125+535813093+534478957+534305363
3426+534944158+535837785+536405622+535622715+533863097+532745744+532925708
3412+533466612+533451015+533387834+533571357+533566041+533903738+534596136
3399+534449958+533824784+533920170+533828958+532666526+532098425+532905058
3385+533443238+533047808+532722677+532834716+533208265+533608572+533481683
3372+533097061+532893151+532749610+532728389+532717800+532933968+533230497
3358+532980497+532537396+531947547+531012531+530453130+530580019+530507128
3345+529566181+528376113+527907001+528486613+529412139+529444388+528576464
3331+528109549+528138899+527691140+527019525+526595888+526204676+525791759
3318+525499756+525808982+526882838+527454322+526485211+525332534+525361620
3304+525658236+525155117+524155295+522984296+521547567+520573404+520772745
3291+521416988+521449720+521054554+520819889+520634520+520377491+519813871
3277+519079646+518862247+518936369+518975736+518911500+518082680+516798719
3264+516348456+516413614+516223149+515734661+514220033+511988667+510796666
3250+511351190+512432163+512607734+512541346+513075176+513022716+511913579
3237+511313185+511602552+511622235+510783792+509560684+509408619+510667228
3223+511658835+511035242+509714287+509262530+509250316+508638146+507801065
3210+507357173+506504319+505039779+504497689+505645446+507136919+507177429
3196+506582175+506948958+507324045+506177299+504812715+505312538+506837051
3183+507415653+506411086+506373081+508900053+509786123+506903528+504629587
3169+506600760+509830279+508956379+504755685+503170846+505954935+507627208
3156+505075500+503053887+506852297+512406548+510648599+503960388+503240442
3142+510478608+514278249+508211126+502773703+507504801+515874380+514472537
3129+505109638+501595014+509125360+516096831+510698204+501504725+502368124
3115+512540248+516386857+507092455+499053807+503470318+513495694+512711249
3102+501431175+496437248+504339121+513811379+509752424+498813078+497522395
3088+507916882+515600918+508449570+497343265+495716599+502147122+505241229
3075+499029070+492553863+494374159+502172913+504223568+496838609+490926055
3061+492817395+499416635+500962590+494298060+488400093+488320480+491342267
3047+491778645+488609100+486133402+486173032+487427511+487916482+486910641
3034+485638763+485598209+486772065+487088057+485724044+485492146+493186727
3020+523778978+582418889+628991688+618622991+579248816+547462059+528035516
3007+515193845+505864206+500198444+497419451+494721434+490697189+487431466
2993+486940606+490274650+494347621+492453380+486582390+484536700+489321444
2980+496803460+497384610+490494289+485650845+487113848+492842088+495925386
2966+491699296+485864949+485697682+494308869+503443077+499631969+488927377
2953+484643466+490081065+499655695+500216458+490702988+483947510+486277074
2939+495193050+499838603+493420294+485203482+484142193+491680710+500581088
2926+498082016+487702159+482582706+486245528+493934001+494993490+486854490
2912+480142596+480869660+486844912+491068409+487979444+482218559+480231348
2899+483229980+488313406+488964811+483962580+479498221+479527088+483510647
2885+486677557+484534503+480334995+479205955+481472207+483982966+483352256
2872+480472385+478701914+479162985+481092243+482283673+480926382+478688337
2858+478099894+479162853+480073220+479138512+476938692+475299811+474816245
2845+475335268+475951919+475680742+475049241+475008511+475578106+476132059
2831+476232982+475943439+475789573+476256664+476912242+476912154+476145899
2818+475359258+475283203+475725557+475877622+475493220+475162509+475246340
2804+475424152+475431533+475368440+475341068+475325558+475317913+475461103
2791+475756533+475690540+475062114+474588828+474802361+475329029+475433071
2777+474999197+474771253+475208950+475779160+475986761+476165627+476314045
2764+475992077+475668659+475850074+476066198+475967385+475987815+476452841
2750+476797655+476376435+475667825+475742121+476447436+476641636+476300952
2737+476247920+476550907+476818481+477209957+478034340+478617204+478215711
2723+477555870+477520018+477752267+477746160+477629991+477710879+477989832
2710+478115359+478061801+478253145+478706615+478931439+478837063+478837941
2696+479067115+479378845+479536710+479388336+479329505+479682975+480097034
2683+480283765+480403492+480536181+480663201+480920846+481273789+481564254
2669+481819087+482121854+482411089+482432135+482279015+482445052+482845227
2656+483023346+483154409+483668380+484333405+484601506+484566753+484738721
2642+485221101+485778350+486362004+486928172+487120394+486944384+486898031
2629+487224920+487808530+488330366+488759495+489354353+489856153+490073903
2615+490369861+490777417+491096705+491352899+491663927+492227151+492848283
2602+493094811+493233827+493596656+493976796+494355310+494730661+494918358
2588+495153595+495752144+496428241+496708908+496737159+497023714+497589838
2575+498050953+498237112+498307894+498483729+498784651+499109650+499587198
2561+500348971+501018214+501287238+501506965+502079328+502844924+503321812
2548+503587541+503995141+504219350+504213067+504609288+505444963+506206121
2534+506592193+506612931+506522465+506647421+507143510+507745793+508013675
2521+508125142+508533753+509026151+509253391+509230720+509026634+508985114
2507+509445219+510077555+510472985+510678432+510802070+510988054+511334055
2494+511568105+511552508+511553079+511686778+511765161+511702156+511682121
2480+511734406+511613184+511339986+511318150+511790820+512476012+512816082
2467+512634272+512326716+512290731+512413710+512281768+511997323+512050749
2453+512368455+512566785+512591522+512547190+512377814+512097850+511937525
2440+511888491+511753123+511435373+511038757+510725181+510414812+510064945
2426+509833003+509882871+510069207+509993284+509598030+509131247+508684675
2413+508109237+507444871+506931691+506632570+506499530+506337184+505969259
2399+505484286+505307221+506093160+508380722+512944816+521074326+533877640
2386+551170971+571263331+592124230+612075728+630127099+646976187+664236083
2372+682309993+700742118+718735712+734167140+745209166+752690522+757180320
2359+756376982+748069617+733373249+715900524+699071822+689020876+691494860
2345+701402661+702898924+693947887+684814293+678590843+676042254+679207275
2332+685074530+686191971+682826116+681988376+684770840+685538501+680131482
2318+669884534+660343867+657575068+660659112+661551598+655309299+643098866
2305+628696126+616854497+608941200+602090027+594382398+585777713+576131555
2291+566071162+556755495+548385388+540882942+534726540+530084985+526362892
2278+523019972+520064398+517574552+515375260+513301801+511385153+509880675
2264+508839420+507881865+506883405+506080023+505533847+505075280+504644657
2251+504369350+504292153+504302434+504124667+503647954+503205820+503081918
2237+503281962+503745186+504428445+505206958+505748960+505844039+505814909
2224+506065216+506518379+507038809+507689818+508366135+508917012+509454401
2210+510094910+510831112+511682692+512496355+513178603+513943189+514759268
2197+515440549+516104300+516773543+517233340+517679956+518450210+519394188
2183+520381137+521342647+522134868+522961317+523912853+524644530+525144001
2170+525804940+526553357+527101686+527725499+528529452+529026375+529211612
2156+529515610+529888236+530242849+530657172+530819737+530441838+529837358
2143+529530636+529564863+529530548+528973256+527909550+526946678+526272382
2129+525445407+524225638+522782626+521449501+520303677+519133644+517838392
2116+516382024+514682247+512862040+511115953+509416484+507674264+505978442
2102+504559156+503387717+502216366+500936536+499585836+498344098+497157984
2089+495646256+493806717+492122625+490840642+489814633+488887482+487784980
2075+486444912+485248034+484271806+483492809+483105024+482665262+481519658
2062+480132095+479221508+478709646+478284296+477884824+477585879+477369798
2048+477245985+477181574+477263472+477792513+478444928+478758372+478902748
2035+479194004+479767509+480441585+481147954+482044482+483008320+483763459
2021+484445400+485308535+485664466+484811260+483478749+482493690+481797250
2008+481101118+480199406+478925551+477361055+475768352+474271298+473185316
1994+472710888+471843887+469855973+467644993+465761473+464187048+462840741
1981+461458889+460106695+458878842+457724231+456729066+455966282+455295545
1967+454273139+452778019+451440060+450582856+449954518+449400258+448661024
1954+447552151+446551054+446048375+445830581+445845783+446156152+445978911
1940+444966128+444089328+443808661+443859232+443816262+443519470+443270920
1927+443513582+444326586+444969994+444935899+444594599+444242227+444159714
1913+444327421+444545390+444786031+444874212+444876233+445069159+445336513
1900+445579483+445997452+446381547+446367575+446318278+446369069+446165290
1886+445832119+445596662+445888226+446729393+446961598+446319728+446102373
1873+447192178+448878027+449331760+448649293+448981981+450218138+451096915
1859+451087073+450727100+450763963+451302978+452530128+454563472+456381791
1846+456950814+456360393+455466634+454769843+454264264+454347524+455148006
1832+455304069+453456313+451394366+451021827+450632373+449206629+447941078
1819+447447230+446535940+444688799+442868329+440949044+438766711+436840528
1805+435991672+436603315+435913290+432464263+429808337+428516863+426709485
1792+424518672+422972102+422464063+422480056+421727860+420262881+418888367
1778+417435997+415882178+414093078+412188556+412435392+413974273+413785829
1765+412699539+412043521+411789963+412035964+411856658+411624497+413030733
1751+414734772+413876909+412266499+412269883+412172255+410705694+409440802
1738+409952269+411191370+411644796+411765402+411928671+411595060+411679286
1724+412481086+413317376+414143473+415064737+415782310+416007529+416047555
1711+416280112+416483099+416335121+416794742+418294300+418654712+417360866
1697+417378792+418486259+420269867+422656022+425016606+426665680+426979036
1684+427324115+430163301+432686231+433701870+434007669+434544048+435719705
1670+437175633+439072818+441500229+443522150+445004221+447103030+449906012
1657+452600251+453866418+452265586+453084257+456031703+458001559+459933805
1643+462971452+465710155+467274388+467158395+466308880+468457689+472014009
1630+474612159+476361365+478181220+480206348+482673918+485204625+486474701
1616+487372722+490496003+494324027+497053152+498929642+501215621+504129588
1603+507059019+509751589+512415995+515130445+517917390+521066813+524436314
1589+527565701+530637927+534390249+538664845+542341463+545077266+547376075
1576+550695313+555492448+559767835+563505833+568120586+573354627+578354793
1562+582769327+586097045+590308943+598405456+606979824+615124536+622726147
1549+629804120+636720979+643548953+647744639+649222184+657090183+667879792
1535+675872395+682446108+689162308+695764404+701827397+707089250+711786209
1522+717551531+725073353+733662615+742600296+750988768+759827942+768816237
1508+773693908+772143471+776022550+784030706+790773312+794992196+799087794
1495+805275040+812009825+818161219+823293722+828120778+833174283+838362322
1481+843628743+848520298+852703857+855485399+856987680+860043650+865276328
1468+870127110+873666734+877808202+883316275+886793861+885249400+886051419
1454+895271260+904049626+909182041+911811650+915762872+922198624+928652653
1441+934163890+938509312+941831626+946934779+952728617+955609982+957968589
1427+962983781+968204685+972226821+975018907+976246321+979267317+985149027
1414+989663430+991688733+992568784+992977395+993602174+995677478+997887403
1400+997220357+994964298+994414299+995670008+998566136+1000502951+998471848
1387+993817464+991892336+993623967+995962714+997884679+999285555+999659456
1373+1000244516+1001919381+1003025881+1002732385+1001825884+1000178611
1362+998799703+999878612+1001972720+1002613492+1002441788+1002686690+1002155409
1348+1000996975+999807346+998135206+996263680+994218517+992512370+991876167
1335+992620805+993964388+994482577+995214210+996588987+997294170+997850145
1321+998968684+1000086432+1001098293+1002584318+1005056106+1008532110
1310+1013122259+1020320311+1029268712+1034783727+1034785836+1033198757
1298+1033530391+1035531881+1037640488+1039062366+1040716405+1043836346
1287+1047301365+1050093363+1052056892+1052536592+1052689931+1054046783
1275+1055816287+1056521822+1056324019+1056480082+1056411365+1054453109
1263+1051361639+1049522363+1049777723+1051196613+1052259088+1052024027
1252+1051952235+1053891686+1055886146+1055294583+1053900474+1054363917
1240+1056110135+1057491328+1057937197+1057624895+1057029641+1056376919
1229+1055563827+1055338959+1056534739+1058048005+1058363734+1057809165
1217+1057546952+1057884649+1058271730+1058396862+1059145718+1061072428
1205+1062830157+1063419699+1063305025+1063275675+1063632792+1063745621
1194+1063585955+1063414427+1063259418+1064096060+1065391312+1065563807
1182+1065595354+1066461169+1066993506+1066327602+1064696059+1062763110
1171+1061054765+1059392378+1058111186+1058535438+1060020936+1060169706
1159+1059758459+1060755293+1061284027+1059570322+1056830960+1054142652
1148+1051977191+1050244154+1048479131+1046825795+1044911476+1042659371
1136+1040557793+1037331701+1032499110+1028339452+1025449299+1021925932
1124+1017642724+1013715931+1009897045+1006286244+1002672719+997436349+991820543
1111+988371253+985737954+982243145+978670745+975261788+971815310+968563823
1097+966158291+965283776+964466818+962182816+959485018+956679048+953477209
1084+951630903+951394964+950484421+948528537+946500070+944543220+943212379
1070+942614225+941234702+938304656+935743501+935392798+935690249+934002291
1057+930990171+929187978+928509156+926849494+924122346+922193879+921329206
1043+920477889+919586590+918368842+916922887+916677721+917435628+917889581
1030+917984573+917754257+916875524+915887564+915698988+916457598+917443537
1016+917859705+918180442+918908297+919455923+919679385+919409526+918481584
1003+918100653+919540808+921971823+922743878+921384302+920854251+922210750
989+923002137+922049239+920103900+917632025+915465773+914166302+913444335
976+912984934+912190911+910569649+908485294+906548040+904488553+901933813
962+899573273+898222309+897762029+897355703+897013173+897463260+898348935
949+899070901+899851568+900904026+902281001+904008853+905788024+907522379
935+909543728+911900577+914240819+916834926+920678680+924758988+926869177
922+927971284+929989030+932231117+933536827+934232607+935405716+937169333
908+937544727+935562306+933685948+933584102+933756334+932967320+932160204
895+932322242+932702997+932021452+930792720+930622421+930950188+930496147
881+930325234+931648869+933533487+933950622+933020835+932970747+934267669
868+936448860+940115988+944481269+947447783+949940221+954745309+961363397
854+967283245+971197561+972583411+971908456+971395891+973407574+976931645
841+978917757+979743063+981175837+982647802+983170121+983209488+984850082
827+988626261+992515269+995576599+998193114+1001222106+1004636159+1006992306
814+1009056098+1012427093+1015966629+1018687098+1020210206+1019544742
802+1018562582+1019824794+1022244473+1024095963+1025842269+1027799998
791+1028933212+1030150345+1033257896+1037377747+1040306212+1040788461
779+1040005158+1040405948+1043071848+1046989591+1050841868+1054765323
768+1056592384+1052986855+1047756901+1047196972+1049658127+1050355665
756+1049414454+1049292838+1051504169+1054779470+1056654862+1056400644
745+1054026396+1051625698+1050893713+1050861464+1050786156+1049524120
733+1047652507+1046759363+1044783356+1041032836+1038766409+1039523964
721+1041152256+1040125896+1036796114+1035637944+1037118609+1037855426
710+1038300592+1040444525+1042344785+1041073082+1036670015+1032436808
698+1032287335+1036683724+1040989954+1040183365+1036015975+1032516684
687+1029952542+1029848148+1033944362+1038818693+1040817020+1041510076
675+1042623431+1041326773+1034746996+1027872142+1033643484+1043382041
664+1041522554+1036954022+1040512539+1047376409+1047106023+1041602431
652+1038728359+1036243566+1030574597+1026429350+1026139193+1026024957
640+1027039015+1034010267+1042400936+1044554886+1039416583+1030994983
629+1024280145+1017074975+1008393094+1002683088+1002476673+1014037283
617+1034483377+1045934057+1045892669+1041519039+1031825297+1031220905
606+1052606891+1073741823+1073013441+1062989120
##END=
