##TITLE=Sample description
##JCAMP-DX=4.24
##DATA TYPE=INFRARED SPECTRUM
##DATE=24/8/2023
##SAMPLING PROCEDURE=Instrument type and / or accessory
##ORIGIN=Default
##XUNITS=1/CM
##YUNITS=ABSORBANCE
##RESOLUTION=4
##FIRSTX=4397.6552
##LASTX=599.8556
##DELTAX=-1.9287962
##MAXY=1.4803934
##MINY=0.53203189
##XFACTOR=1
##YFACTOR=1.3787238e-009
##NPOINTS=1970
##FIRSTY=0.67084169
##XYDATA=(X++(Y..Y))
4398+486567137+486322186+486281981+486506397+486764188+486890640+486742485
4384+485786718+484652576+484582886+484919402+484890134+484718504+484278319
4371+484072060+484762082+485462480+485376232+484603681+483522671+483315375
4357+483969601+483517829+481999573+481690725+482456273+482342228+481965204
4344+482201725+481751898+480350455+479263133+479323052+480191837+480820081
4330+480789170+480444051+480213669+479970447+479267283+479023326+480588359
4317+482606460+482838269+481625964+480345094+479716720+479841963+479767734
4303+478869551+478248008+478633116+479108666+478804574+477996140+477651972
4290+478065181+478627194+478606140+478266771+478546869+478472165+477612804
4276+477874140+479367062+480383138+479660173+477590929+476298602+476640824
4263+477391112+477576273+477684569+478043133+477849757+477262584+477051267
4249+476653751+475537118+474331255+474094388+475114830+476127447+476102200
4236+475419873+474747403+474406002+474264937+474389790+474777060+474882503
4222+474900660+475519912+476429767+476419781+475067059+473607512+473341766
4209+473881904+473918608+473552737+473645556+473594499+472814814+472170359
4195+472117227+472213850+472349468+472421665+472248262+472128727+472021728
4182+471492528+470911277+470923166+471218828+471166734+470596507+469636892
4168+468804248+468488916+468509408+468944967+469811072+470128566+469407374
4155+468706458+468860795+469369719+469485148+469069864+468079208+466959247
4141+467029714+468332849+469499674+469875315+469406510+468562496+468278636
4128+468637157+468786091+468397653+468197836+468133378+467485723+466787141
4114+466497921+466120378+465556636+465268626+465530567+465882949+466063744
4101+466611880+467473013+467783157+467007709+465747288+464824982+463844269
4087+462750074+462453720+462863038+463437026+464137553+464598923+464530444
4074+464184330+463667408+463039510+462351131+461716273+461742385+462155637
4060+461996977+461848130+462368899+462721368+462482383+462096453+461691890
4047+461309289+461204539+461461681+461551517+461002257+460665828+461248419
4033+461966455+461992264+461250321+460484038+460474441+460766687+460463157
4020+459954752+460539894+461845665+462135880+461473483+460969877+460546638
4006+460424767+461035243+461045662+459843473+459079309+459586244+460446340
3993+460751383+460077660+458351978+456788242+456765329+457518340+457750538
3979+458474453+460538164+461631020+460508853+459352620+458873958+458236419
3966+458457507+460045538+460620175+459381931+458387774+457927139+457557422
3952+458504197+460761370+461529598+460610923+459967203+458660220+456934236
3939+456227137+456489900+458099418+459426676+458398798+457715434+458822815
3925+459044421+457621880+457148795+457856672+457296172+455118891+453785278
3912+454057509+455480828+458072528+460370987+459919302+457487343+454885699
3898+453427708+454734388+457238371+457011145+454505606+454289879+454536171
3885+453507212+453919599+453664705+452290281+453440548+455620509+456544804
3871+454991963+452067508+452587499+454344481+453251020+451645955+452125611
3858+454282789+455115087+449117633+443948758+446456545+450324274+452882210
3844+453755924+453892969+453616415+451449769+449317709+448931693+448416284
3831+448281876+449300805+449916253+450525129+450347316+446811089+445469391
3817+446275837+445763367+447664570+451076895+452370519+450213255+448578316
3804+449891308+449748384+448637630+448590292+447867111+447829153+448405951
3790+448708790+449838522+450818283+450306506+450191163+450100550+448692491
3777+448181449+449149235+450164835+449782710+448790887+449005792+449314553
3763+449957150+451027827+450895149+450894025+452998633+455615667+455100302
3750+453380154+456561275+460071607+458934050+459290842+463577184+468278766
3736+469342008+465130068+462378626+465013904+469965496+472831070+471451458
3723+467600936+463728019+461916782+462804070+465117877+466306707+465707601
3709+467484469+471870330+476650379+480967674+485304338+490534947+496056939
3696+501305274+506174768+509823442+510595993+510553237+512496072+514584727
3682+515787089+516126199+515297100+511422584+508092702+510215035+510780809
3669+508097457+508575428+510947251+512884596+514990025+517877387+520685506
3655+523842764+528689908+533403509+534224393+532773493+533887791+536383301
3642+537562317+536713678+535765130+535820985+537133544+539778549+539428545
3628+532518598+529040215+530123602+531037392+529846184+526404894+523672344
3615+522146307+521104378+521959589+522712686+521003000+520334550+521520095
3601+521248210+519495292+518664940+517753312+516380012+517015562+518595467
3588+516283519+511385967+509521900+509434010+508753456+507862882+507517633
3574+507592900+509041336+512909238+516301244+513664323+508586495+506102701
3561+504394615+502805848+503285807+505088787+505392144+505348826+507821898
3547+510482553+508885529+504694211+502551299+503356015+504882788+504498198
3534+502779692+502397351+504246503+507745810+511162718+510966922+506924753
3520+503836493+503301327+502931522+502340761+503027281+504182520+504166048
3507+504657204+506529788+507221712+505959950+504726851+504062206+503272448
3493+502860493+503305780+503389952+502723016+503025595+504972320+506069153
3480+504284028+502101992+502021018+502700751+502727339+502629289+502551991
3466+502411401+502481869+503082704+503686176+503231464+502404138+502089671
3453+501895560+501711868+501593629+501976230+503054949+503492930+503224331
3439+503222299+502692926+501582865+501013935+500697824+500091845+499446914
3426+499130284+499211517+499677209+500151418+499868120+499382325+499422099
3412+498933061+497425397+496641692+497686041+499146928+499650016+499861160
3399+500464762+500679451+500339822+500136114+499972093+500011780+500463422
3385+500567567+499887359+498811277+497854515+497275469+496879423+496513596
3372+496613418+497310184+497985940+497941022+497116549+496387100+496177469
3358+496312395+496735418+496882406+496505123+496119928+495747529+495036886
3345+494047830+493029419+492756065+494100702+495823747+495849427+494583428
3331+493519495+492983464+493034348+493677939+494289755+494171559+493226254
3318+492348692+492322234+492591222+492042136+490812841+490360507+490852830
3304+491210919+491216107+491211913+491111140+490547095+489566167+488590383
3291+488246345+488670665+489276341+489499979+488900485+487770493+487070139
3277+487015148+486521874+484999338+483428599+482809088+483402616+484643930
3264+485773229+486215274+485813132+485280863+484703373+483444551+481925949
3250+481671185+482671049+483281697+483352208+483566897+483715787+483206820
3237+481991316+481151020+481445039+481751812+481239948+480859076+480729727
3223+480451530+480251713+479960331+479640330+479434201+478958392+478413586
3210+478329846+477998907+477090002+476729493+477195099+477318742+476361158
3196+475619431+476418959+477458942+476626947+475078256+475559166+477147414
3183+476615404+473691987+472539861+475349751+477948931+476893428+475160872
3169+476775535+479480675+478795495+475887209+475815228+479324349+480487759
3156+476855686+474038014+477039421+481871477+480593028+475372318+475795255
3142+483539661+487475609+480823410+473430910+475870910+484074394+484680374
3129+476765289+472994269+479812046+487273112+483009899+473789345+473690474
3115+483082139+486911262+478160766+470473512+475001433+485253238+484680979
3102+473532505+468799925+476796372+486046411+482057028+470903106+468504436
3088+478267116+486672969+480367358+469227963+467331515+474104158+477726676
3075+471756285+465751092+468027676+475492892+476810941+468770960+462220658
3061+464289427+471823381+473798769+467306960+461825303+461722541+464214247
3047+464622484+462246770+460433976+460719651+462067660+462055383+460129192
3034+458556680+458932278+460403843+460810957+459766737+459567395+466444356
3020+495527004+552048974+597064727+587563382+549941340+519392574+500828125
3007+488096590+478068985+471667919+468913452+467304712+464582581+461724530
2993+460714852+463085076+466461001+465030462+460230787+458449293+462338853
2980+468229568+467787783+461160053+456880585+458826317+465091116+468179376
2966+463593309+458031328+458515999+466948871+475168610+471214678+461263463
2953+457255275+461985045+470810288+471757712+463367812+457189995+459251890
2939+467457406+471662645+465557371+457807690+456651630+463291811+471189387
2926+469001298+459581316+454479234+457575579+465060465+466567394+459265292
2912+453027685+453389448+458504283+462213265+459294560+453947786+452331654
2899+455683628+461081760+461995982+457270795+453091884+453230442+456749117
2885+458932926+456378665+452704917+451938807+453803090+455734944+455169170
2872+453072689+451953376+452311032+453635480+454399385+453410502+451661302
2858+450514364+450687810+451509429+451012048+449171240+447642608+447207481
2845+447799323+448385373+448126415+447789423+448131560+448799058+449071418
2831+448778220+448437597+448532275+449171672+449869822+449916426+449337423
2818+448626779+448201076+448220141+448361942+448185859+447784106+447575167
2804+447626224+447924825+448249842+448088112+447800275+447854271+447834903
2791+447773168+447984269+448072851+447879216+447771007+447829240+447872817
2777+447730109+447427271+447296754+447599290+448015180+448149241+448300293
2764+448630886+448768623+448550302+448132467+447818821+447689428+447588266
2750+447673389+448234754+448953698+449253467+449218752+449112574+448969953
2737+448998097+449258741+449340881+449083869+449152953+449846390+450510473
2723+450808297+450836786+450665675+450544410+450604891+450713360+450722265
2710+450582022+450492100+450642287+450841974+450870204+450922428+451263830
2696+451704923+451932884+451917321+451901844+452246963+452786495+453033997
2683+453076580+453193609+453358192+453508076+453699161+453960453+454170862
2669+454301725+454547108+454973633+455259438+455091137+454761019+454863651
2656+455487745+456131379+456524528+456926108+457310006+457361755+457243559
2642+457498367+458240915+458915331+459199580+459333771+459633626+460221621
2629+460764137+460961490+461006364+461229397+461791626+462366824+462657428
2615+462937829+463351687+463778816+464236943+464647169+464880751+465142951
2602+465665882+466354132+466995821+467415860+467615678+467721206+467842774
2588+468118376+468435049+468613077+468885956+469412692+469982919+470428681
2575+470734676+471048019+471524131+472048229+472466107+472750615+472990724
2561+473397016+473974117+474578324+475209508+475729931+475988673+476257272
2548+476700311+477111099+477557943+478198421+478792815+479190720+479488846
2534+479618455+479664885+479972393+480454859+480761156+480939444+481225163
2521+481521170+481634438+481850899+482506336+483214947+483368939+483202540
2507+483390771+483870816+484201971+484383804+484538487+484612803+484575191
2494+484566631+484756332+485001586+485085023+485159079+485457292+485953895
2480+486423737+486690088+486702323+486431995+486153107+486141737+486140872
2467+486060720+486131577+486273767+486396631+486493600+486413578+486213674
2453+486033095+485805091+485612623+485664069+485768647+485594898+485369056
2440+485373163+485387386+485223494+484929908+484713489+484769475+484835144
2426+484549771+484013222+483471268+483038086+482806883+482709871+482492372
2413+482121530+481839875+481689428+481418409+480956780+480427407+479835262
2399+479386214+479468440+480281889+482347372+486795531+494940047+507766605
2386+525165050+545724428+567329928+588025876+606995968+624670838+641924716
2372+659704768+678476124+697144719+713860535+727063987+735907647+739817786
2359+737324179+727763217+712814802+695095793+677458060+666633607+668870505
2345+679386196+682003014+673423024+663899977+657709320+655759914+658819425
2332+663511367+663531600+659364405+658174148+662011355+664214186+658924521
2318+647970460+637771485+634897784+638626955+639972370+633348099+620639304
2305+605897622+593514838+585098222+578119450+570328569+561345660+551224458
2291+541000797+531903713+523831524+516401066+509948338+504876000+501048693
2278+497839557+494808882+492176889+490094848+488253089+486442327+484730479
2264+483332321+482491161+482118417+481723106+481054873+480382014+479977840
2251+479715985+479306710+478857403+478526031+478171661+477922387+478031114
2237+478434164+478927265+479381977+479772792+480101396+480387547+480608332
2224+480817920+481210248+481774508+482360861+482935238+483468891+483942365
2210+484430797+485058781+485800163+486508472+487292955+488166323+488842857
2197+489424670+490210018+491127093+491910798+492575097+493430307+494395197
2183+495139864+495682768+496191346+496921704+497901465+498570692+498815341
2170+499233651+499940750+500821683+501887216+502641048+502861357+503051491
2156+503378755+503771429+504306292+504623224+504406892+503973019+503531882
2143+503167870+503051101+502945270+502406343+501383220+500264685+499365422
2129+498591833+497766798+496734467+495283523+493516079+491786204+490320993
2116+489123733+487911818+486495935+484972361+483437461+481860669+480178306
2102+478567318+477075520+475485024+473855619+472419892+471294051+470241574
2089+468897369+467341502+465836734+464499274+463355318+462297394+461176395
2075+460065468+459140655+458362526+457604717+456986849+456482594+455547837
2062+454197536+453087129+452344148+451688798+450977679+450458465+450393488
2048+450571689+450806740+451215107+451697963+451880703+451883341+452088864
2035+452488066+453070874+453877362+454758987+455517056+456117761+456648820
2021+457327429+458245066+458601555+457795023+456653186+455927282+455449830
2008+454724099+453552562+452213458+450833674+449326010+447848910+446793061
1994+446243629+445350547+443641812+441799967+439919602+438033098+436496425
1981+435160045+433949211+432829292+431609465+430375285+429452935+428928837
1967+428198350+426819603+425336235+424222239+423471304+422961947+422377454
1954+421591544+420947737+420582342+420264935+420077871+420153267+419877102
1940+419033651+418314534+417961633+417827572+417688106+417511029+417422447
1927+417495119+417922163+418446694+418633930+418601636+418467747+418436404
1913+418664106+419024054+419284655+419257548+419161617+419218856+419380672
1900+419762495+420395105+420750903+420521256+420267831+420100135+419754065
1886+419658825+419873860+420315991+421043236+421322297+420880079+420809611
1873+421922051+423426083+423647430+422958056+423362273+424625937+425524509
1859+425513096+425030543+424875644+425405709+426790422+428919801+430714568
1846+431278007+430815081+429994673+429227309+428671781+428781071+429480906
1832+429267125+427115784+425297154+425305281+424912694+423406975+422284117
1819+421872767+420788514+418766133+416995706+415230684+413250756+411582875
1805+410743487+411127990+410489068+407392810+404973086+403854162+402231933
1792+400090146+398422352+397733540+397654556+396968035+395583841+394243225
1778+392929930+391584904+389823124+387745276+387947558+389647084+389647387
1765+388646658+387978468+387672647+387876787+387755868+387537418+388603383
1751+389836310+389066482+387863083+388037652+388136567+387036621+385887219
1738+386078173+386981630+387385242+387605940+387717305+387238514+387297482
1724+388224284+389028524+389387175+389539653+389887409+390327249+390558971
1711+390916455+391258202+391250809+391735783+393129402+393409198+391987867
1697+391838718+392880906+394606285+397004523+399336271+400636984+400396746
1684+400413174+403350901+405968021+406849257+406851246+407261732+408550038
1670+410057053+411807421+413919248+415693220+417334341+419854017+422845567
1657+425259758+425749444+423833413+424940405+427464448+428919153+431036169
1643+434401458+437362963+439107493+439090719+438401389+440779914+444424739
1630+447001914+448681597+450337157+452133739+454412139+456756769+457942876
1616+459033916+462302020+466026781+468688906+470692914+472992238+475676800
1603+478434207+481048085+483556694+486151464+488984657+492236160+495812420
1589+499365984+502773856+506439476+510473647+514333681+517571566+520008021
1576+522838361+527291836+531731348+535854057+540585729+545623655+550436949
1562+554817665+558301842+562509113+570238172+578813233+587343592+595243806
1549+602337228+609449327+616574914+620108418+620162933+628277014+640127831
1535+648571944+654979451+661465122+668382245+675268372+681155369+685336009
1522+690243764+697976195+706900655+715767444+723976635+732319498+740588608
1508+745471894+745625540+750218394+757735013+764077024+768200728+772423173
1495+779074464+786320365+792915369+798315620+803119878+808362506+814009956
1481+819691387+824807692+829011634+831523225+832399446+835696646+842604993
1468+848861665+852557029+856139039+861864825+867040357+868212197+869456666
1454+877078511+885330155+891435862+895328535+898565037+903188327+909218205
1441+915244365+919223243+920720272+924361336+931179416+936712561+940526639
1427+944721243+948787881+952069258+954333218+955793673+958788769+963804084
1414+968645176+972211363+974443159+975528103+975488935+975998983+978447803
1400+979725560+977944931+975719879+975555166+978487835+980704759+977480535
1387+971436477+970705947+975322925+979991349+982155963+982382757+982135125
1373+983290450+985887555+987417699+987321725+986732822+985882453+986374776
1360+988175465+989173687+988964013+986975698+984239128+983507993+984572272
1346+984547889+983829810+983571630+981279482+977419924+975925057+976923192
1333+978119760+978048687+977635997+977908184+978374222+978515676+978655661
1319+980182001+983534710+986839777+989181382+991445342+995684388+1004012294
1306+1012816699+1016269100+1015410431+1014296608+1015176461+1017809707
1294+1020511259+1022760088+1024840833+1026443952+1026713719+1026463666
1283+1027505984+1029681665+1031623203+1032816140+1034153384+1036218133
1271+1037540938+1036117489+1032440974+1029132967+1028191293+1028908767
1260+1028457774+1027246507+1027770562+1028828616+1028887411+1029090254
1248+1030493903+1032706072+1034388565+1034505118+1033260130+1031751687
1236+1031080817+1031979865+1034006656+1034986892+1034065970+1033483724
1225+1034814398+1036575659+1036809370+1035992290+1035909199+1037301002
1213+1039737370+1041355967+1040674721+1039275050+1039009607+1039973934
1202+1041145688+1040828021+1039610269+1039788902+1041422630+1042910667
1190+1043105124+1042603808+1042825674+1043329150+1043093365+1042123676
1178+1040896500+1040525139+1041634898+1043059903+1042928652+1041522582
1167+1040602092+1040043019+1039154001+1038006890+1036305201+1033978209
1155+1031786013+1030502549+1029640854+1028031941+1026212663+1025822366
1144+1025734433+1023848837+1021500661+1019649477+1016994356+1013970036
1132+1011422302+1008098472+1003597874+999518180+996521096+993903413+990581226
1119+985499420+979494011+975447087+973374211+969238056+962340171+956500599
1105+953720624+952303574+949821552+946225795+942663326+939706793+937630458
1092+936690600+936273673+935036380+933186666+930678187+927039889+923879043
1078+922257852+921687971+921045202+919069165+916324554+914571852+914091461
1065+913247231+911296182+909308905+907601597+905968734+904734035+903520520
1051+902325940+901925009+901363774+899558157+897554019+896190144+895177397
1038+894420495+894235982+894683777+895127075+895051938+894531860+893711581
1024+893040711+893116453+893760519+893993539+893748069+894471855+896242022
1011+897434440+897504735+896960361+896360131+896177001+896698549+897954518
997+899449991+900348779+900507526+900575140+900322840+899382722+898385712
984+897149024+895510281+894371125+893800120+893125358+891787163+889432502
970+886534937+883741042+881133735+879092332+877915650+876957116+876036971
957+875970394+876540880+876660546+876687523+877221002+877828754+879000508
943+881049433+882688954+883595351+884683062+886511419+889496139+893076852
930+895902134+898301150+900972613+903118983+904669101+906172528+907521878
916+909055827+910495876+911259349+912358473+913866742+914460228+913885073
903+912820707+912238202+911883443+910433277+908385821+907224875+906724943
889+906327211+906651277+907303644+907208707+906290032+904441010+902791805
876+903032433+904846092+907757231+910939002+912944004+914788443+918002378
862+922172859+926896446+931838268+935961799+938637758+940262753+941759263
849+943625491+945320090+946539830+948517596+951575810+954007078+955271434
835+956768030+959397385+961212860+959815091+958120147+960304042+965369074
822+971007359+976780181+981949834+984747188+985090015+985750337+987850276
808+989663762+989815505+989315573+991531806+996279084+999056984+999205614
795+999990962+1003929375+1010293262+1014994801+1016260973+1015472426+1014919924
781+1017209564+1020670438+1022625897+1024116009+1025721809+1027763299
770+1029678811+1029140576+1027875615+1029190206+1030604663+1029556725
758+1029284711+1029507527+1026953309+1025781210+1029334254+1032693361
746+1031867635+1028766276+1027132115+1027971330+1028531441+1027397731
735+1025283872+1022038291+1019196495+1017703357+1015904311+1013703036
723+1012212924+1013356923+1017152498+1018421263+1014595426+1010004387
712+1009400267+1011853236+1012542437+1010805904+1009890342+1010161318
700+1009877891+1008854077+1007924421+1008016245+1010193829+1013706063
689+1015030597+1011925001+1007853175+1008081007+1011969270+1014888019
677+1014452070+1010165987+1005446982+1003959724+1002707559+1003450367
665+1011345350+1017716240+1017658309+1015125015+1012738104+1010267582
654+1009280861+1009874865+1010310987+1010620526+1010710880+1008690661
642+1005904115+1005253391+1007129908+1021461666+1056285447+1073741823
631+1040894252+1005459087+996726533+991973721+978173367+973945129+980257397
617+975540554+965340281+969716199+986224935+997313620+993666071+988066262
604+987171278+984279161+989348602
##END=
