##TITLE=Sample description
##JCAMP-DX=4.24
##DATA TYPE=INFRARED SPECTRUM
##DATE=24/8/2023
##SAMPLING PROCEDURE=Instrument type and / or accessory
##ORIGIN=Default
##XUNITS=1/CM
##YUNITS=ABSORBANCE
##RESOLUTION=4
##FIRSTX=4397.6552
##LASTX=599.8556
##DELTAX=-1.9287962
##MAXY=1.5498117
##MINY=0.5537647
##XFACTOR=1
##YFACTOR=1.4433746e-009
##NPOINTS=1970
##FIRSTY=0.79889619
##XYDATA=(X++(Y..Y))
4398+553491914+552763505+551114376+550984998+553260164+556100045+557631482
4384+557747192+557079240+555897863+554396034+553171173+552556450+552119628
4371+551588322+551149147+550703900+550357721+550277980+550630229+552279028
4357+554215078+553869353+551733765+550394309+550976821+552068174+551500074
4344+550063409+550117506+551514652+552403658+551791206+550122710+548217136
4330+546865003+547153864+548551670+549345573+549869858+550490114+549566503
4317+547147009+545504858+545788599+547435994+548525323+548022759+547930588
4303+549145166+549876589+549980117+550303666+549813738+548592924+548510829
4290+549183777+549097801+548370961+547856876+547918158+548357251+549230276
4276+550267987+550512992+548972676+546265147+545140386+545787608+545945893
4263+545205426+543944101+543066162+543904086+546089476+547791877+547177278
4249+544815144+543829672+544934074+545717364+545515389+545173546+545102724
4236+545413017+545201627+544248117+543576820+543483782+543441867+543285234
4222+543723708+544665737+545197745+544875806+543502902+541978484+541242932
4209+540927642+541089643+541695116+541876361+541808719+542237778+543045308
4195+543533130+543206938+542633552+542389331+542055087+541226083+540397699
4182+540800493+542509005+543932414+543803325+542383922+541093195+540639359
4168+540270137+539224457+538371006+539094211+540203321+540107351+540057177
4155+540695686+540577457+539803170+539891831+540460468+539986975+538690673
4141+537765121+537690583+538385294+539175563+539568117+539909588+540005888
4128+539063900+537463128+536544637+536688014+537158327+537565169+538231015
4114+538967517+538697982+537355430+536290877+536195031+536830236+538084003
4101+538989899+538297005+537336145+537725601+538390704+537939139+536322138
4087+534656779+534565888+536062555+536998225+536369338+535811191+536172236
4074+536641227+536479886+535787941+535663890+536413483+537042328+536913157
4060+536409808+536046078+535077703+533227919+532158164+532912340+534537312
4047+535222649+534731524+534790824+535409759+535158848+534391746+533941090
4033+533514715+532941123+532448676+532254382+532806253+533890297+534641954
4020+534699231+534106643+533618325+533843592+534084013+533663915+532843914
4006+532404284+532864851+533641286+533581366+533015744+533116835+533442985
3993+533250177+532808689+532494514+532054760+531198997+530987523+531628386
3979+532303399+533099408+532892353+531126895+529555938+529045569+529418796
3966+530422520+531655723+532311576+531967255+531676825+532336270+533445422
3952+533952033+533223212+531824662+531265771+531264409+530697258+530582086
3939+531139077+531090927+530261221+529206373+529168298+530546365+531320116
3925+530252921+529215458+529602065+530143901+530039671+530070560+530539139
3912+530721705+530829569+531334941+530923144+528828025+527418243+527517724
3898+528162220+529579311+530045370+526975557+524287644+525649812+526210272
3885+524575596+524319441+524064318+524604214+526703008+526886814+525549877
3871+523935601+522157258+522927747+523698442+523066830+524526455+527074377
3858+528076780+525440568+516953055+514459931+520864880+526602908+528588471
3844+526661217+522736054+519056970+516903748+518395005+521158944+522221514
3831+522885378+523901780+524229871+524139187+522000088+517959381+519243790
3817+522076980+522648260+525272703+528435430+528586943+525491485+523746344
3804+523739407+520764284+519395220+521922660+523740439+524983057+526629420
3790+528019008+528793997+528169818+526558846+525656295+524494451+523341196
3777+524684285+527146561+528230688+526642097+524291154+524157729+525486902
3763+527307407+527949260+526056984+524477726+524425405+522988740+518167096
3750+515848982+519232103+520586714+517932456+519278106+523612960+524916737
3736+520572467+516473533+518152354+522582889+526230920+527142184+525960311
3723+524648854+524074477+524872097+526177896+526311198+523674243+519885561
3709+520308218+523379890+525827629+525816934+523770048+523548911+525226163
3696+526442765+526312230+523870602+518872214+516835404+519837617+523154665
3682+524104416+523209753+521683188+517952237+515150472+516266231+514706836
3669+512432949+514857977+517462846+517597014+516956276+516316693+513791814
3655+511552409+512460287+511460279+504094140+499574035+501739811+504337618
3642+504151334+501874144+499758089+497959511+496108902+494275306+489194741
3628+481653675+480623026+482667682+482677593+478784351+473255484+471304816
3615+470825542+469024652+466674039+463280760+460257321+459981551+459916635
3601+458037036+455944890+454224898+452041242+450561300+450729248+450177253
3588+446470749+443459286+443412416+442846876+440682505+438739559+437761149
3574+437125779+436641343+435474750+431305490+425899104+424918051+426085387
3561+426077583+425467898+425063617+424431137+423223786+421943052+421081590
3547+420411284+419809404+419245351+418457684+417542084+416778285+415966130
3534+414987348+413996466+413029618+412546752+412407545+411112482+409040117
3520+408410239+409094214+409470208+408883153+407731633+406735259+405864340
3507+404993958+404166730+403395168+403056133+402834749+402273793+401559797
3493+400648780+399239164+397776896+397317981+397838715+398124190+397693149
3480+397419526+397309226+396274613+394696305+393772817+393614739+393795158
3466+393698981+392524996+390566110+389304207+389208567+389701758+390341505
3453+390611453+390197921+388997631+387515169+386737537+386480721+386261649
3439+385964529+385571563+385522917+385818798+386045757+385961886+385447759
3426+384909557+384851124+384973565+384528360+383966909+384186104+384692839
3412+384982196+385264202+385436692+385258007+384611240+383778189+383659713
3399+384661703+385993725+386630871+386385577+385930419+385829948+385860135
3385+385714775+385637925+386128224+387324467+388612510+389494207+390377845
3372+391607744+392998323+394162893+395049050+396542785+398696749+399983554
3358+400245531+400869504+402160850+403672466+405262006+406601916+407500338
3345+408157718+408649091+409087235+409777652+410765849+411729971+412424642
3331+412877775+413294528+413848505+414393232+414624196+414326457+413522106
3318+412812240+412916180+413376953+413154082+412852048+413832936+415342653
3304+415774106+415611279+416017625+416713741+416972993+416576145+416032698
3291+416049588+416429298+416988891+418017145+419141989+419880350+420512416
3277+421301900+422011561+422699293+423638680+424492544+424992671+425455468
3264+426122966+426876028+427513256+428167746+428810219+428721104+427835525
3250+427407829+428128887+429196909+429749234+429924161+430386792+431305366
3237+432190821+432820946+433161880+432733111+431590882+430938085+431588363
3223+433064671+434366961+434787967+434483290+433955618+433486008+433353615
3210+433554640+433968874+434275946+434046344+433899580+434427211+435141662
3196+435789255+436247097+436278233+436500030+437587502+439199920+440566630
3183+441065850+440559032+439635090+439105932+439308031+440338969+441974058
3169+442995374+442940204+442983233+443411466+443601342+443648501+443889501
3156+444205741+444334376+444535277+445074347+445586120+445667967+445465661
3142+445479413+445541810+445220739+444916805+444885751+444844745+444896777
3129+445505099+446620444+447388703+447490496+447473482+447396053+447038973
3115+446683048+446786452+447312348+447553347+447093111+446391296+446049660
3102+446289751+447112767+448124503+448454535+447862278+447277123+447386803
3088+447765647+448079285+448489884+448808478+449130416+449731222+450136206
3075+449961485+449512068+449250008+449184761+449137478+449174933+449216517
3061+449198554+449240055+449315213+449396606+449458632+449302494+449037295
3047+449308440+450238948+451051062+451221447+451027896+450918298+450843512
3034+450487092+449960411+449710409+450088055+451041854+451781412+451729297
3020+451459721+451534342+451754818+451877713+452057636+452540916+453084941
3007+453296166+453284025+453236949+453300089+453738315+454466146+455291433
2993+455997088+456424660+457043181+457857773+458496034+459292456+460103125
2980+460484694+460839008+461479911+461938124+461695101+460906319+460351846
2966+460628690+461130140+460860977+460014670+459423940+459535520+460243653
2953+460909953+461008855+461249235+462443497+463681366+464034936+463748595
2939+462990949+461907648+461168420+461264143+461655086+462079974+462973440
2926+463563550+463026752+461785042+460406109+459653129+459690006+459759795
2912+459942568+460534785+460995269+461128364+461139555+461100201+461335956
2899+462100828+462822588+462818582+462690443+463132922+463352283+462910299
2885+462607109+462740906+463172979+463792161+463974026+463612113+463542572
2872+463944541+464239637+464183600+463878055+463675708+464008962+464632439
2858+464908911+464778789+464686412+464566779+463715145+462569489+462447585
2845+463077669+463479638+463898579+464730969+465586898+466297508+466862015
2831+467006549+467161530+467707166+468189784+468574574+468958249+469133961
2818+469177734+469184300+469383054+470023875+470736137+471187702+471531031
2804+471884520+472214139+472524928+472976740+473370532+473207251+472856199
2791+473044134+473652208+474263916+474901887+475584788+475914573+475963054
2777+476281028+476678950+476732097+476675770+476838887+477132620+477510968
2764+478114747+478617435+478720509+478829900+479243225+479789769+480239434
2750+480348990+480184305+480338832+481005256+481717394+482178291+482312666
2737+482203151+482215540+482657400+483395182+483944988+484071104+483974184
2723+483984467+484387014+485158576+485845276+486215984+486542052+486892608
2710+487105445+487171352+487228876+487440721+487787107+488226076+488829442
2696+489572346+490218411+490603408+490833299+490900197+490780977+490726674
2683+490984976+491522559+491997621+492261085+492490646+492597312+492518644
2669+492663921+493165453+493651086+493967285+494334318+494794926+494921083
2656+494755241+494927566+495334202+495574127+495785725+496140204+496555924
2642+496850236+497105648+497415198+497598301+497771452+498109042+498428255
2629+498708939+499041945+499301280+499545129+499966341+500460481+500879092
2615+501351098+502029126+502606146+502761664+502935971+503672185+504688009
2602+505294844+505462833+505605715+505839736+506327392+507090737+507816089
2588+508397941+508648438+508450344+508421975+508981031+509563791+509776503
2575+509962084+510322634+510796498+511371040+511886240+512138349+512166595
2561+512211730+512431463+512695464+513007863+513576211+514161531+514480125
2548+514792359+515239009+515659519+516037041+516257806+516297574+516555174
2534+517114478+517640746+517987007+518288298+518634270+518790326+518768604
2521+518967772+519554372+520387051+521086388+521416750+521637391+522051873
2507+522601018+523040772+523222348+523278014+523559359+524127418+524645633
2494+524791240+524679619+524778728+525105787+525262131+525153979+525050616
2480+525200395+525521094+525813795+526064087+526156547+525910096+525695319
2467+525821600+525794965+525393822+525086874+525093811+525219762+525358597
2453+525435117+525220051+524796733+524550199+524542725+524347481+523794453
2440+523486886+523637325+523598631+523106680+522593626+522387315+522407549
2426+522413785+522127154+521529776+520909520+520454445+520151709+519788640
2413+519386259+519214800+519142616+518941136+518525953+517897644+517419196
2399+517321161+517224076+516741664+516037124+515481991+515091709+514574732
2386+513799164+512799982+511300177+509009483+506212757+503162972+499745576
2372+496163495+492768027+489422567+486028958+483214515+481351682+480305217
2359+480306291+481196205+482799456+485677121+489470305+492166436+491891616
2345+488849471+485774331+484348155+483852033+483778692+483945938+484141017
2332+484405721+484953049+485840321+486595695+487113456+488227274+490010448
2318+491477506+492371880+493314364+494429049+495276677+495945909+496798163
2305+497667140+498105738+498168466+498382995+498843934+499355748+499891638
2291+500327923+500677075+501077186+501368153+501430178+501483325+501662712
2278+501728537+501604775+501635870+501926342+502253359+502452981+502477634
2264+502500140+502860360+503548051+504084395+504399148+504844601+505320447
2251+505570201+505753924+506251079+507016322+507568524+507913381+508482761
2237+509247221+509882591+510431943+511015693+511463376+511747075+512119890
2224+512628111+513035283+513369776+513909340+514681976+515404273+515860091
2210+516257641+516892640+517737831+518552836+519202205+519802061+520484962
2197+521270358+521994761+522522227+523018968+523701456+524648152+525675043
2183+526554799+527365592+528178821+528925730+529626305+530392251+531321644
2170+532356092+533239193+533822448+534270296+534821300+535559372+536365746
2156+537107245+537805508+538428448+538893640+539215000+539467067+539824643
2143+540242098+540440770+540488879+540450185+540132376+539711164+539386087
2129+538885918+538067031+537113191+536102281+535058376+534092561+533183527
2116+532166712+530958038+529651165+528362461+526997815+525440238+523845082
2102+522467923+521365751+520248464+518831786+517346145+516002973+514514648
2089+512822984+511321196+510154355+509097897+507871921+506459992+505204820
2075+504107768+502862424+501680387+500631609+499320110+497835956+496478000
2062+495153824+493777698+492463845+491356511+490452803+489468446+488289712
2048+487204512+486164819+484875703+483466706+482224748+481262526+480434141
2035+479437024+478250072+477193448+476334134+475369764+474210851+472994745
2021+471886997+470965120+470097381+469299142+468594355+467775964+466856606
2008+466010340+465173903+464151802+462972531+461986233+461416605+461040405
1994+460381249+459174062+457921038+457164011+456666981+456147155+455576041
1981+454984650+454355846+453596259+452784104+452063789+451310315+450337892
1967+449390288+448860510+448645403+448404692+447940945+447250942+446525011
1954+445952244+445494940+444996753+444346971+443422079+442152041+441096449
1940+440928832+441040494+440822042+440372460+439730234+439096103+438664980
1927+438221798+437323088+436109624+435365235+434852759+434405572+434612916
1913+434873283+434409124+433604071+433181867+433101094+432933104+432640320
1900+432371529+432007098+431350584+430670574+430148807+429534457+429298784
1886+429712398+429963804+429790488+429549736+429397026+429338717+429238245
1873+428756618+427390279+425502751+425209596+426642668+427764910+427850887
1859+427456971+427097330+426897419+426803018+426634037+426174503+425405047
1846+424199801+423167252+423768430+424826334+424895214+424565801+424429238
1832+423530114+421448623+420341247+420846619+421404313+422030763+422646022
1819+422681247+422319872+421770561+420750112+419438407+418927460+419309235
1805+419561963+418992417+417559428+416409724+416305908+416146756+414772571
1792+413198103+413831656+415354587+415737643+415150258+414299739+413406769
1778+413020327+412623892+410674958+407571076+407234767+409527195+411304712
1765+411849150+411159270+410228390+410338401+410649066+410896508+410665088
1751+408489361+405657822+405488346+406852579+407492657+406948549+406179093
1738+406300502+405686977+402916844+402522019+405015101+407173237+408174649
1724+408049359+407469325+406278945+402834708+399227106+400630156+403916976
1711+405812432+405730378+403809814+401861211+401520979+400109339+396747114
1697+396039312+398397523+401588579+403365146+403199098+402142433+399401991
1684+395334153+396358938+399681272+401347745+400653488+399299414+398648929
1670+397518800+397706652+399833982+400499787+399219012+398937088+399706999
1657+399411365+396133341+390260814+390275143+391619389+390781383+392277472
1643+396241287+398869158+399184447+397166014+395642051+399745527+405236486
1630+408636661+410409016+412139208+414443736+418297912+422739185+425553379
1616+428327600+433548983+438798323+442701517+445965005+449569675+453329822
1603+456854007+460360725+463748760+466673874+469537788+472916573+476690843
1589+480485760+483993758+487170898+490241371+493379817+495891482+496842183
1576+498780917+504003456+508322040+510783118+514550244+519946636+524836913
1562+527844783+527077846+525858023+533517358+542740837+550402775+556523404
1549+562115743+566832455+569277676+568975890+568679968+577251930+588835562
1535+596439355+602465501+609449988+615871950+620645031+624245736+626875176
1522+630296206+637021564+644827994+652749927+660836793+667308846+670429989
1508+669842439+672655477+683411922+692320813+697550868+700464584+705156891
1495+713001023+719068300+721282804+723369292+730339532+738943994+745715273
1481+750582590+754420496+757407057+758803088+759353637+763971943+772584416
1468+779406819+783304933+788142517+794270911+797732038+798397719+803669895
1454+814303775+823607945+830982136+837834107+845886285+854048309+860283822
1441+865019572+869568831+875739924+884637748+892967596+898760176+903858333
1427+909693860+915270713+921105001+925702576+926515681+928838544+936093227
1414+943262098+948600098+952776461+955293825+955903509+956383774+958148076
1400+959473078+959586228+959973000+960705909+962370855+964302816+963825937
1387+960324753+958063008+960844497+966491882+969722581+969261147+968332333
1373+970050714+974009698+976778881+977343471+977107675+974801000+971384967
1360+971528096+973292398+972900836+971982840+973012498+973578658+971757368
1346+969624051+969088285+969186072+967494450+965699672+966866100+968892215
1333+970120751+970958138+971361263+971605318+972677593+974611041+976075374
1319+976945797+978785091+981499434+984243922+987795486+991927002+995265565
1306+998136500+1001706730+1005690243+1008954227+1011455651+1013797344
1294+1016676786+1020346042+1023319306+1024691963+1025661743+1026899612
1283+1028267396+1029850659+1031144938+1031668480+1031857365+1031900643
1271+1031551697+1030671858+1028948604+1027000290+1026558512+1027039190
1260+1026397543+1025596248+1026108476+1027179677+1027894086+1028118815
1248+1027945788+1027855847+1028446287+1029157889+1029305313+1029407147
1236+1029992715+1030715466+1030473145+1029231312+1028826617+1029429282
1225+1028513681+1025931814+1024695432+1025699900+1027746827+1030312754
1213+1032587880+1033435590+1032960116+1032084820+1031691771+1032189462
1202+1033194013+1034447987+1035758453+1036640026+1036737731+1035775962
1190+1034871347+1035284300+1036160917+1036789515+1037287372+1037199165
1178+1036615001+1036394897+1036257136+1035466165+1034916689+1035234828
1167+1034963353+1033257690+1031238843+1030242304+1030934084+1031699121
1155+1030179618+1028011778+1027702724+1028047127+1026989966+1024490524
1144+1021903124+1020388328+1019593310+1018421596+1016346753+1012998775
1132+1008977517+1006260284+1005260854+1003837239+1000339276+995687273+991905364
1119+989735376+987985940+985051494+980805342+976937290+974640939+972180397
1105+967872798+962719553+958625202+957212406+957405586+956288134+953752683
1092+951250185+949074251+946962160+944394829+941214262+939021562+938903788
1078+937965310+934228329+930717813+928692937+926131387+922753015+918990102
1065+915066136+912086677+910019680+907430215+904062167+900874662+898488618
1051+897136195+895447959+891808353+888334094+887099941+886483319+885232566
1038+883752706+882067113+880275721+879234336+879065768+878431224+876678237
1024+874408067+872123031+870317351+869307349+869012913+869193622+868930653
1011+867759517+866940383+867350198+868078235+868145794+867957652+868015053
997+868025046+868873087+871211560+872710333+871558854+868959395+866776027
984+865598037+864487853+862945059+861777144+861428033+861366668+860795471
970+859399606+856988537+853573660+850282752+848420910+847803627+846921972
957+845734318+845600686+846554196+848705270+851575461+853070848+853376268
943+854292116+856471519+859513251+862434236+865089030+867981025+871296298
930+874742064+877576080+879823868+882357502+885509906+888924039+892219159
916+894961500+896766519+897797747+898077481+897382481+896460025+895829033
903+894738175+893144258+891838416+890895066+889785708+888723922+888389017
889+888098215+886913699+885299299+884302760+884355536+884784099+884656083
876+883951502+883677466+884037396+884363877+885288067+887912634+892237412
862+896650067+900056024+904208352+909495395+913313066+914430022+913861220
849+913899295+916698293+921393325+925648562+928983904+931558090+933993689
835+937807066+942001021+943873682+943851052+944215277+945635671+948403532
822+953322220+959170466+963067094+964558269+965660194+967442418+969446811
808+971545440+973657945+974902916+976459503+980225307+984380940+987052088
795+987902276+986081152+985349729+990378510+997385833+1001236128+1002530407
781+1002848215+1003824189+1006658536+1010937807+1015854843+1019655666
770+1021398495+1022258429+1022644045+1021989183+1020551775+1018850407
758+1016993108+1015304954+1014550076+1014778108+1014689406+1013824764
746+1012828721+1011423771+1009538556+1008318857+1008416644+1008682586
735+1007781687+1005847000+1004027280+1003564194+1004569323+1005724766
723+1005950569+1005981541+1005918194+1004658768+1004118460+1004838155
712+1003654218+1001319875+999804749+997350071+994902992+995099310+995275641
698+994822219+997908054+1002670067+1003458148+999787075+997224699+999282363
685+1000032534+996241622+992744980+992079052+994525470+997397726+994528939
671+985026634+976538873+983025462+1001496867+1014565025+1015510688+1008291189
658+1003964263+1002805764+995652172+984095341+980740921+990013294+1003969219
644+1013436010+1013136867+1003999777+994948665+1003157105+1041767090+1073741823
631+1047772093+1006584370+988934081+984027204+984606495+988382541+991211106
617+994605335+1002562617+1009189280+1006037454+990395193+968247264+961134472
604+975299682+986954466+982510096
##END=
