##TITLE=Sample description
##JCAMP-DX=4.24
##DATA TYPE=INFRARED SPECTRUM
##DATE=24/8/2023
##SAMPLING PROCEDURE=Instrument type and / or accessory
##ORIGIN=Default
##XUNITS=1/CM
##YUNITS=ABSORBANCE
##RESOLUTION=4
##FIRSTX=4397.6552
##LASTX=599.8556
##DELTAX=-1.9287962
##MAXY=1.3865016
##MINY=0.35674503
##XFACTOR=1
##YFACTOR=1.2912802e-009
##NPOINTS=1970
##FIRSTY=0.61203241
##XYDATA=(X++(Y..Y))
4398+473973361+471343294+468532190+467934518+468281591+468285329+468829594
4384+469444344+469440328+469642506+470123487+470437693+470541090+470260303
4371+469639506+468888170+467744757+466520381+466327158+466867545+466988621
4357+467063722+467787639+468321380+468187333+468399666+468872892+468565701
4344+467975600+468054625+468245125+467651608+466772318+466653643+467254961
4330+467596309+467361542+467289857+467518438+467279194+466820647+467056706
4317+467297335+467047705+467644776+469080239+469789662+469445314+468421684
4303+467241713+466906550+467662271+468749138+468759709+466735668+464394605
4290+463981109+464631033+464511849+463805196+463799334+465229996+466907242
4276+467194307+466638364+466047709+465237105+463989556+462353808+461137001
4263+461028342+461715701+462532768+463557136+464613446+464506218+463384592
4249+462495286+462464267+463113775+463243344+462066466+460711320+460541407
4236+461007247+461071317+460779959+460487816+460226647+459997835+460204952
4222+460489617+460040394+459197617+458527798+458449374+459114668+459551382
4209+458725453+457209164+456718675+457597503+458200436+457533895+456449289
4195+456253389+457236445+458662907+459735881+459524425+458197528+457246600
4182+456831535+456744894+457318608+458019538+458202744+457913094+457796911
4168+457925465+457424498+456609924+456678286+457094043+457003755+457310946
4155+457799912+457394910+456820780+456488109+456138498+455968540+455579647
4141+454590637+453584733+453122032+453129648+453311054+453240938+452914176
4128+452867971+453105507+453222982+453249708+453331272+453103429+452572274
4114+452424333+452488495+452301595+452214954+452333215+452513236+452778837
4101+452635004+452165241+452375404+452988216+453374708+453703962+453252247
4087+451639901+450419448+450893643+451941229+451902548+451368023+451040291
4074+450508074+450101595+449954993+449812222+450155186+450743902+450664462
4060+450409247+450747180+450907352+450347255+449731628+449293391+448996125
4047+448998802+448893467+448571228+448426334+448444105+448782130+449618122
4033+450376012+450213624+449016712+447842049+447677629+448148639+448346432
4020+447923197+447243178+447019351+447409351+447950708+448109819+447454495
4006+446380875+446137385+446896383+447390426+447006334+446329777+446124921
3993+446287541+445875615+445060626+444709630+444793317+445170900+445602582
3979+445640341+445373032+445144174+445134111+445045301+444138316+442886013
3966+442867826+443848066+444384807+444293226+444012716+443946154+444113667
3952+443997437+443313725+442537464+442755797+443429216+443180232+442930372
3939+443653504+444393023+444264146+443115102+441905634+442292219+443438863
3925+443132781+441989506+441646357+441619123+441704103+442237197+442968823
3912+443657382+444420349+445029422+444019040+440859110+438166128+437510711
3898+439161692+442405586+444487511+443185818+441035715+441263143+441002342
3885+439270628+438738411+437870108+437713304+439674107+440446168+439552477
3871+438349426+437823164+439103024+439115487+437838073+438756413+440494082
3858+441396358+439964957+433059520+429820472+434292343+438689852+440563321
3844+440358050+439102655+436784902+433556148+432639470+434395509+436284211
3831+437585720+438308945+438694606+440050814+440211956+436358251+435115226
3817+436627868+437410915+439810923+442297481+442284418+439742608+438199455
3804+438078379+436021703+435969958+438491736+439403337+440254330+442139616
3790+443405859+443322080+441967765+440627298+440705307+440643730+440153518
3777+441296885+442785708+442741119+441366447+440865064+441632371+441501232
3763+441091707+440566229+438997873+438454947+439436063+439395997+436006101
3750+433648328+436693691+438678543+436142825+436046629+439053541+440431397
3736+437519620+433688256+434073133+437614708+440992049+441775927+440540610
3723+439700049+439521920+439794537+440682227+441385188+439500640+435115087
3709+434476427+437662391+440860956+441989506+441538991+442126784+443759024
3696+445474398+446576498+445450764+441824948+440586585+443529474+446609502
3682+447544737+446974807+445434516+440579615+436732049+438309314+438072240
3669+436203848+437912759+440121253+440474787+440162612+440166166+439642257
3655+440040474+442549834+442470902+435974067+432006487+433553609+434221581
3642+431760180+427903890+424807014+421912638+418721228+416064250+410298809
3628+401038691+399390618+402284901+403386679+400352025+394504652+391186580
3615+389423108+386376015+383112411+379520221+376262203+375396738+374947700
3601+372901733+370505833+368343291+365418219+362925822+362268675+361064147
3588+356710675+353038861+352899067+353640432+353205680+351278574+348731986
3574+346767745+346150248+345897526+342786432+337027639+334822399+335677732
3561+336154765+335861030+335401907+334446639+332577924+330918957+330249578
3547+329337469+327562596+326125540+325837437+326009265+325508529+324603759
3534+324302246+323961337+322602775+321001623+320145805+319612942+319129977
3520+319004262+318795021+318157538+317462055+316476045+314928023+313934997
3507+313979563+313428029+311731627+310461252+310133706+310048126+309672735
3493+309022512+308244150+307298483+306638428+306712860+306859185+306333014
3480+305527465+304739594+303699762+302581183+301740206+301304670+301361284
3466+301547675+300949981+299763686+299356007+299760432+299701486+298946966
3453+298588008+298724685+298083948+296607079+295552315+295160746+295130281
3439+295271228+295110617+294792117+294715977+294567344+294114521+293602452
3426+293353723+293322242+293086806+292608065+292309229+292292450+292326354
3412+292423381+292632991+292777977+292705507+292492182+292704238+293530282
3399+294048559+293928037+293715312+293342852+293071389+293676861+294925195
3385+295972342+296455123+296703552+297013443+297389619+298111135+299255841
3372+300409363+301442894+302673225+304290510+306025893+307595426+309058493
3358+310375996+311510800+312832273+314439611+315999127+317310537+318292508
3345+319106459+320120856+321450407+322689601+323368397+323681357+323895052
3331+323914093+323870010+323861055+323808203+324073665+324828994+325309097
3318+324991636+324436616+324373101+324557738+324309747+324071288+324442479
3304+324828186+324887155+325248536+326024013+326358437+325963037+325689173
3291+326185063+327114389+328044454+328953839+329777460+330626676+331713891
3277+332912856+334119739+335245726+336065378+336616174+337145276+337546377
3264+337769789+338291158+339116995+339870823+340595640+341152299+341326966
3250+341470568+341944024+342620235+343215760+343629971+343952532+344428412
3237+344987286+345178802+345166639+345349937+345450080+345599682+346384460
3223+347200258+347184263+346953074+347265273+347757816+347937561+347727882
3210+347438324+347726890+348684165+349441455+349388487+349027291+349059879
3196+349426292+349776180+349891693+349764986+349969103+350712545+351405258
3183+351922497+352350717+352513798+352574105+352944742+353838663+354846206
3169+355313985+355307454+355503469+356048727+356245412+355937967+355775556
3156+356027170+356569981+357361083+358225763+358688233+358675239+358623679
3142+358553494+358361125+358322697+358498057+358697557+359040937+359551551
3129+359616059+359001494+358403845+358345500+358600115+358763081+358970221
3115+359447624+359775493+359727049+359761069+360026646+360062628+359712186
3102+359418451+359460571+359737389+360133528+360425509+360447320+360391005
3088+360483555+360761549+361210564+361840062+362483062+362838489+362828311
3075+362700472+362867823+363207094+363232828+363103559+363045467+362855245
3061+362527306+362341653+362448281+362711666+362942440+362864384+362471638
3047+362395890+362941747+363608450+363803081+363406572+362828888+362480385
3034+362289908+362098509+362046856+362243818+362634026+362996262+363045860
3020+362996769+363256393+363483381+363177945+362768142+362871285+363322700
3007+363690129+363898146+364021830+364122734+364394151+364931215+365691044
2993+366560732+367168697+367478980+367999196+368878208+369848431+370766333
2980+371564843+372199327+372663828+372745415+372260626+371609595+371324099
2966+371376490+371424011+371196376+370778450+370555939+370630671+370824840
2953+371065053+371397377+371790586+372072989+372254210+372432547+372520942
2939+372680122+373067191+373252706+373096295+373011731+373048543+372932729
2926+372568163+372221760+371965299+371458838+370899664+370621854+370447972
2912+370511603+371009893+371510375+371799910+372094591+372261180+372385903
2899+372984889+373725516+373728055+373187160+373027794+373423703+373902052
2885+374181617+374375140+374665759+374908442+374890832+374730867+374755977
2872+374937568+374899925+374800475+374993813+375284248+375451899+375554395
2858+375726962+376004057+376005811+375275616+374133865+373537463+373950427
2845+374908903+375825074+376486076+376871252+377191529+377712045+378296999
2831+378625146+378835263+379260644+379781045+380216304+380538520+380693061
2818+380927966+381560787+382434053+383045803+383216431+383323590+383531122
2804+383632880+383793261+384341496+384962362+385147091+385179703+385540738
2791+386020265+386374122+386795926+387226570+387358124+387392282+387657929
2777+388109367+388721948+389280014+389519720+389655059+389778766+389890749
2764+390242760+390796303+391238278+391493539+391817763+392357596+392855425
2750+393022521+393002119+393199958+393722159+394464862+395288991+395889340
2737+396235443+396608133+396938911+397027583+397100699+397430277+398045212
2723+398896898+399765294+400449283+401042846+401671536+402255221+402565919
2710+402494049+402466354+402999032+403772294+404258075+404584652+404946541
2696+405220589+405317570+405358144+405575509+405996620+406325413+406396591
2683+406416209+406642297+406991539+407024312+406714813+406655776+407020481
2669+407378954+407586671+407876921+408257228+408467899+408470161+408629411
2656+409113899+409564968+409756437+409892376+410212768+410582966+410703858
2642+410776143+411123123+411624506+412105625+412514966+412841220+413213818
2629+413763668+414389773+414892126+415281895+415725763+416209467+416583127
2615+416907950+417389300+418076659+418783820+419284049+419767983+420546276
2602+421314506+421775776+422191718+422690516+423140846+423547095+423934141
2588+424279366+424775533+425572013+426394203+426946222+427213439+427356025
2575+427604870+428094990+428743298+429313320+429693950+430029020+430505800
2561+431045172+431429587+431715036+432054123+432357990+432568477+432940382
2548+433518897+433881248+433918130+434092243+434617767+435063574+435256612
2534+435630318+436245299+436806458+437345368+437952179+438358704+438373891
2521+438475211+439071312+439800215+440236559+440343048+440438783+440884636
2507+441456873+441809531+442101950+442429681+442583531+442694128+443058556
2494+443419707+443552600+443730359+444017332+444160011+444105635+444127884
2480+444357065+444619988+444834860+444944073+444853139+444611957+444309521
2467+444056060+443950355+443798906+443474821+443341513+443407152+443264012
2453+443024029+442889521+442705899+442387492+442042312+441759079+441499017
2440+441198335+440850201+440563367+440254561+439709050+439203236+438941374
2426+438664141+438305483+437902881+437427486+436982187+436612912+436245391
2413+435830188+435289847+434600041+433922053+433349954+432816583+432295444
2399+431750441+431183050+430747629+430365891+429728800+428909472+428198248
2386+427482271+426320994+424470697+422042623+419144324+415926926+412752178
2372+409546320+405910395+402203707+399032329+396300896+393946816+392564159
2359+392562267+393595959+395451934+398620126+402668439+405185739+404227425
2345+400564404+397302508+396116398+396249890+396657016+396838837+397020936
2332+397487976+398196522+399007773+399727258+400344778+401268334+402644113
2318+404034756+405160028+406089862+406913576+407758615+408720437+409743374
2305+410661760+411254816+411616751+412111764+412702142+413086741+413336002
2291+413704353+414228862+414834288+415450146+415914093+415997965+415848363
2278+415877812+416116502+416458866+416921752+417461308+417990571+418394835
2264+418721643+419125768+419578360+420007319+420521257+421234604+422014604
2251+422662451+423242905+423934187+424703848+425451629+426077042+426608475
2237+427268969+427897336+428333080+428956831+429889065+430808328+431656599
2224+432526379+433296963+434098659+435092839+435948125+436599757+437459982
2210+438602887+439736422+440850663+442039035+443046370+443830017+444773376
2197+445972365+447147305+448199645+449189117+450207900+451469527+453003171
2183+454681386+456377465+457926988+459365498+460786467+462071082+463217034
2170+464569225+466232439+467815243+469242443+470726143+472155652+473588576
2156+475228802+476810083+478102129+479203353+480113569+480753383+481144907
2143+481467699+481804339+481976698+481912352+481656352+481229425+480622660
2129+479664115+478322771+476862705+475402361+473804556+471891667+469681742
2116+467443429+465391231+463450461+461337056+458954818+456479801+453940575
2102+451306077+448659346+446044604+443520981+441073658+438671711+436394578
2089+434199702+431954188+429618571+427318636+425145731+422937837+420693247
2075+418659420+416864191+415118583+413272117+411317038+409361267+407435638
2062+405503777+403622137+401913272+400394722+398834906+397095114+395348814
2048+393667968+392004523+390384330+388761830+387120334+385638342+384330856
2035+382897239+381283647+379785868+378452417+377086262+375644083+374167007
2021+372732190+371394792+369999788+368559178+367308398+366197135+365077817
2008+363935304+362767288+361586925+360358994+359076526+357907102+356955181
1994+355944937+354607840+353284844+352242381+351281228+350389291+349555861
1981+348693605+347846812+346939411+345890440+344868195+343976258+343007651
1967+341954133+341157515+340590147+339966581+339218061+338298359+337282623
1954+336467564+335898881+335332945+334554813+333498295+332187116+330970402
1940+330432553+330268988+329910814+329405808+328875114+328317001+327706590
1927+326923959+325803302+324677476+324075558+323519799+322873961+322777511
1913+322828771+322308578+321452207+321007577+320980828+320902311+320659351
1900+320209759+319508160+318774319+318366178+318128850+317596633+317188053
1886+317252815+317243421+317080502+316987952+316841950+316538222+316274214
1873+316051079+315059738+313194947+312582574+313599557+314451889+314648874
1859+314548108+314263882+313888699+313546981+313263794+312880648+312114680
1846+310698604+309450732+309914749+310858523+310891134+310535984+310347677
1832+309608089+307897539+306810417+306909037+307055916+307379124+307825069
1819+307825554+307444370+306912522+306089962+305044500+304489226+304592530
1805+304723023+304167887+302662631+301292414+300996694+300862625+299728674
1792+298359634+298800548+299938561+300075654+299418830+298706176+298078662
1778+297706987+297211074+295598498+293069704+292525278+294094073+295442572
1765+295896664+295338528+294568591+294635683+294963738+295374417+295283853
1751+293401867+290929203+290654071+291641327+292126046+291718067+291018406
1738+290898715+290185876+287913037+287786468+289931538+291731176+292581177
1724+292518908+292197916+291386481+288330825+284921634+286207010+289204090
1711+290917433+290956576+289493486+288015187+287711274+286259540+283230841
1697+282626361+284461726+287031901+288612397+288571407+287609954+285147584
1684+281799324+282905463+285745625+287125812+286580347+285377965+284578693
1670+283177226+282869528+284592772+285289063+284326986+284194948+284876975
1657+284545759+281571966+276290714+276272366+277465054+276720665+277968375
1643+281258590+283394406+283760565+282407012+281764543+285872147+290856156
1630+294165527+296513261+299074619+302201130+306447813+310664146+313441184
1616+316892264+322812477+328359353+332387771+335893573+339896280+343989183
1603+347854543+351856558+355924812+359569346+362998639+366830049+370970819
1589+375159271+379324206+383434349+387551624+391544084+394611834+396339624
1576+399519772+405545043+410595245+414479184+419416295+425062690+430090597
1562+433547608+434324470+436116099+444566767+453546744+461251338+467649808
1549+473672679+478696292+481609039+482561445+484607227+495040115+506529452
1535+514072997+521040980+529033055+535877655+541373663+546466931+551109822
1522+556891695+564884878+573004768+581856468+590933564+597888762+601644840
1508+603057823+609732003+622212750+631392828+637592120+642183405+648065721
1495+656495109+663797102+668627400+673621333+682013517+691442625+699660465
1481+706996661+713550642+718838933+722748491+726675451+734263631+744322398
1468+752949210+760443779+769190282+777656967+783414053+787935268+797287982
1454+810047163+820950553+829767726+837527850+846751502+857208717+866721880
1441+874905470+882222187+890453137+900233840+909324830+917227494+925198474
1427+933409021+939983127+945764861+952123403+957305435+962061694+969255720
1414+976538187+981184679+983533820+985137673+987294422+990184920+992408138
1400+992576158+991203472+990897251+993428352+998489632+1001633360+998851521
1387+993013934+991903524+995754229+999759475+1002200012+1003699914+1004329158
1373+1004967726+1006484153+1007670263+1007991625+1007740795+1006481660
1362+1006317979+1008682445+1010437885+1009799686+1008131303+1007341701
1350+1006879738+1005989971+1005131500+1004432462+1003676926+1002249218
1339+1000926568+1001104005+1002274605+1003415480+1003917324+1004055433
1327+1004466528+1005654854+1007745134+1010488660+1013728031+1017043010
1315+1020039213+1022818375+1025400805+1027889902+1030711068+1033751769
1304+1036989939+1040632742+1044382635+1048416038+1052535483+1055761005
1292+1057961882+1059740956+1061244089+1062274273+1063393268+1064812114
1281+1065692649+1065439327+1064654249+1064701885+1065462129+1065554263
1269+1064598303+1063050211+1060960855+1058370023+1056289806+1055859047
1258+1057176066+1059046258+1059814349+1059372327+1059573397+1061566835
1246+1063446536+1063555379+1063278054+1063051319+1062317109+1062453371
1234+1063615109+1064346920+1064645478+1064575501+1063927054+1063065444
1223+1062125824+1061517444+1061861147+1063179273+1064907294+1066404334
1211+1067419378+1068197440+1069050280+1069521844+1069571142+1070217650
1200+1071096985+1070531902+1069248303+1069796861+1072131785+1073741823
1188+1072995057+1071430163+1071305718+1071559317+1070751067+1069754117
1177+1069654506+1070434598+1071019530+1070730941+1069886687+1069036063
1165+1068501630+1068078256+1067004682+1064508016+1061112996+1058401042
1153+1056882492+1055594831+1053884443+1051920178+1049814112+1047372837
1142+1044642327+1042377011+1040966567+1039649825+1037532127+1034680218
1130+1031090314+1026206471+1020808782+1015877487+1011177358+1006459504
1119+1001713677+996977452+991795881+985888408+980350395+976150726+972163482
1105+966594357+959984524+954105116+949681758+946470084+943374269+939536027
1092+935166676+930126445+924397886+919244380+914665927+909326676+903885505
1078+899883398+896828111+892707190+886339508+879239278+874300967+871869201
1065+869356655+865346516+861060345+857630336+855040058+853165989+851412580
1051+848920991+845964947+843588295+841868305+839826770+837916235+836930733
1038+835468313+833393081+832424104+832172628+831481069+830675680+830366043
1024+830915801+831820340+831763102+830907954+830587608+831298278+832552704
1011+833315072+833449672+834048820+835036261+835206312+834920770+835419938
997+836508375+837261972+837397035+837235477+836889466+836285702+835636056
984+834692374+833192565+831514119+829579858+827079960+824337633+821353063
970+817791408+814431192+812165138+810559347+808841388+807095642+806280191
957+806844073+808036739+809376929+811159510+813116020+814793451+817140469
943+821044718+825699057+830234766+834458346+838187467+841963024+846542954
930+851601834+856504417+860787820+864203888+866832386+868687991+869917399
916+870429399+870376038+870514239+870658349+870414628+869756395+867964305
903+865034479+862356037+860866937+860112786+859006992+856904342+854058895
889+851769669+850680955+849717240+848708197+848008790+846773105+845516832
876+845737566+846987838+847730911+847563722+847896900+850297371+854272336
862+858232623+861927586+866366546+871839013+877249811+881894918+886211832
849+890368573+893616159+895875290+898955595+903513184+908146382+912531612
835+917233125+921816102+924361143+924353850+924795780+927700680+931520088
822+935033737+939364868+944109587+947298182+949073932+950256996+952302224
808+956890740+961310312+962381671+963505004+968208826+974158488+978954906
795+983393219+988693788+993676689+995932866+997400733+1001802395+1008340128
781+1014655834+1020643439+1025766572+1028306813+1030423126+1035882023
770+1041902586+1043502007+1041949853+1041105598+1042252197+1044568103
758+1046317634+1046514458+1046542984+1047566337+1048023776+1046640750
746+1044574381+1044243880+1045993596+1046801292+1045418173+1042568019
735+1039146504+1038110319+1039688784+1040068675+1038400476+1036606909
723+1034805033+1032714015+1031157337+1030556527+1031410290+1033354706
712+1034296542+1033902341+1032910469+1030650323+1028361189+1027768318
700+1027480745+1027193265+1026718101+1025202782+1025063381+1025586735
689+1024334525+1023715897+1023985191+1022648970+1020557859+1020529887
677+1022522586+1025528113+1028712554+1024704538+1011021801+1007802741
665+1022554620+1033967702+1035257671+1032399023+1031672198+1030988024
654+1027238409+1026014355+1028141747+1025056918+1019805185+1019811740
642+1017367141+1011150216+1015256090+1026239428+1029559116+1029749108
631+1031727682+1026774600+1011765243+1000379488+1003702037+1008805506
619+1005952859+1005944827+1012443786+1018248415+1019616394+1020532656
608+1029363400+1049115814+1065781275+1058405381+1039270488
##END=
