##TITLE=Sample description
##JCAMP-DX=4.24
##DATA TYPE=INFRARED SPECTRUM
##DATE=24/8/2023
##SAMPLING PROCEDURE=Instrument type and / or accessory
##ORIGIN=Default
##XUNITS=1/CM
##YUNITS=ABSORBANCE
##RESOLUTION=4
##FIRSTX=4397.6552
##LASTX=599.8556
##DELTAX=-1.9287962
##MAXY=1.4212711
##MINY=0.35326114
##XFACTOR=1
##YFACTOR=1.3236618e-009
##NPOINTS=1970
##FIRSTY=0.49234989
##XYDATA=(X++(Y..Y))
4398+371960477+372400849+373420962+373851697+373110637+372502167+372713831
4384+373025620+372928039+372634218+372517297+372520224+372579214+372631449
4371+372242951+371616650+371265280+371022748+370906795+371129334+371405886
4357+371458414+371505178+371665057+371548474+371298017+371447719+371638444
4344+371433670+371065977+370569227+369961838+369672745+369667792+369740538
4330+370151595+370574045+370749302+371423020+372261188+372042522+371320667
4317+371151646+370962362+370314266+369830666+369647213+369651986+369886120
4303+369800968+369247053+369042886+369489968+370014749+370230060+370308165
4290+370520662+370619548+370160331+369744590+370386540+371635495+372048331
4276+371359415+370700692+370518748+370491032+370681082+370820608+370639744
4263+370514673+370417070+370090467+369884522+369972983+369755218+368877626
4249+367970314+367935731+368909327+369851875+369701497+368943009+368588645
4236+368683748+368766199+368542669+368514705+369001233+369378631+369653607
4222+369582730+368702143+368183869+368362594+368181438+367977451+368228922
4209+368212666+367869244+367776910+368026174+368568089+368953817+368750528
4195+368592653+368878166+368930288+368456752+367925531+367619304+367405276
4182+367273315+367650240+368319387+368455829+368187472+367839299+367430245
4168+367270568+367110126+366769428+366887610+367431438+367786839+367786884
4155+367483313+367204194+367103732+366979426+366966120+366891753+366647059
4141+366816372+367138383+366782262+365926239+365473754+365890035+366595342
4128+367015495+367188028+366822924+366090442+366133018+366749457+366666242
4114+366098615+365891138+365992614+366124327+366303997+366498347+366478106
4101+366247889+366227221+366669619+366774044+365787839+364872287+365091606
4087+365484021+365291630+365200061+365634602+365993132+365758682+365017194
4074+364144826+363739082+363784585+363615204+363451609+363796855+364140232
4060+364262647+364440876+364351379+364227343+364754263+365185877+364735463
4047+364214802+364308352+364649636+364690163+364383102+364234773+364300179
4033+364253371+364325554+364483002+364338905+364228469+364327648+363834703
4020+362610087+361877739+362298546+363140519+363565671+363408831+363142162
4006+363403270+363935638+363976570+363643393+363463858+363536941+363808743
3993+363950408+363544664+363127978+363400883+363659964+363274326+362950334
3979+363116338+363462709+363698149+363480181+362800249+362235323+362212628
3966+362597591+362680851+362005737+361448445+361762102+362312483+362378046
3952+362055000+361513491+360932580+360954104+361228833+361226716+361652138
3939+362331215+362580502+362247031+361182159+360577495+361492799+362189168
3925+361540711+361206093+361601277+361191278+360238643+360330865+361664769
3912+363219299+364269356+364413745+362589328+358906202+356326562+356157159
3898+357866006+360587244+362047053+360364502+358753460+359972425+360256318
3885+358884137+358901587+359055544+359951936+362025281+362325654+361007172
3871+359043747+357227434+357902751+358309891+357563854+358840976+361344988
3858+363299453+362654892+356056179+352749325+357102701+361481654+363123407
3844+362179936+360311299+357993262+355146097+355291139+357977411+359689343
3831+360781459+362176784+362919038+363044154+361142870+356538969+356094207
3817+358145058+358994281+361445810+364527244+365339497+362693415+360789992
3804+361475080+360203385+359433190+361402154+363112443+364601116+365777572
3790+366081098+366096701+365649147+365046441+365255741+364774572+363881850
3777+365152712+367097157+367353739+365358410+363349594+363107804+363561911
3763+364882216+365795539+364505111+363675206+364893744+364938256+360652402
3750+357381415+359869892+361531683+359934622+361408728+365017532+366266082
3736+363812436+361246552+362560959+366327998+369366270+369787774+369007402
3723+369565145+371650985+374866563+378370447+380882407+381009437+381309382
3709+387997705+399610746+413553016+430681390+452277248+474493936+493202237
3696+507569546+517251336+522248643+521980803+519433540+518640244+516670717
3682+511332217+503766437+495266778+482135411+468446166+462519077+455049392
3669+446546851+444195738+442920891+439532240+435536627+431980554+427015939
3655+422413096+420782781+416825624+406255615+399721791+401310498+403947822
3642+404507546+403139171+401022936+398904359+397531931+396973558+393195936
3628+386092481+385148064+387739908+388626461+385768264+381195906+379561763
3615+379205530+378129986+376824540+374007884+370768935+369916335+369528716
3601+367449766+365053241+363367020+361105113+359019993+358495167+356529603
3588+350868980+347478887+348505461+349301053+347901788+345463497+343354669
3574+341875250+341019790+340120449+336565051+330862257+329066434+330061847
3561+330119013+329333417+328598233+327319671+325157820+323229383+322044190
3547+320645892+318894829+317763109+317386162+317093579+316334889+315445229
3534+314942761+313974073+311775005+309462573+308136617+307045402+305857597
3520+305392076+305357335+304805784+303593618+302071488+300411408+298978054
3507+298094698+296858216+295200883+294497423+294290824+293455538+292380850
3493+291745745+291268606+290406549+289411339+288831328+288096932+286702372
3480+285728911+285532602+284911750+283487019+282374798+281907565+281206064
3466+280306610+279473958+278411630+277321473+276704966+276689273+276698955
3453+276388675+275894311+274917226+273740296+273054285+272292735+271161421
3439+270382761+270104384+269947972+269478218+268748528+268377232+268261257
3426+268092281+268025614+267806002+267208025+266881714+267220408+267537150
3412+267302948+267091915+267514387+268134114+268435096+268552782+268763162
3399+269265203+269669281+269530295+269247889+269311562+269774269+270414844
3385+271090274+271754941+272347222+273006845+273795593+274628132+275474991
3372+276328447+277257778+278157818+278809111+279465019+280414367+281282345
3358+281818316+282662788+284360603+286199251+287368345+288123477+288684350
3345+289141676+290099669+291621462+292803525+293131749+293177793+293379167
3331+293397990+293362551+293969962+294891639+295266267+295110102+294677453
3318+294273330+294138983+293914800+293305295+292589879+292469221+293053217
3304+293575589+293618435+293553524+294115500+295397912+296696198+297469275
3291+297687423+298061534+299301821+300806367+301676146+302180889+302983078
3277+304066097+304779261+304826115+304720294+304908250+305467029+306054199
3264+306305512+306555609+307044974+307481518+307837752+308187996+308079473
3250+307624624+307560681+307613794+307326570+306982270+306886220+307223023
3237+307794027+308234760+308490080+308430596+308016611+307573695+307355074
3223+307621765+308313202+308619587+308182525+307530151+307168604+307142599
3210+307326480+307752352+308302080+308794597+309082632+309086234+309014546
3196+309011191+309254894+309962227+310780807+311161537+311230073+311421608
3183+311627891+311624604+311508562+311385990+311485259+312054664+312844132
3169+313372133+313634051+313935325+314293314+314539876+314809562+315335086
3156+315751592+315530539+315045722+315068890+315385790+315290168+315120202
3142+315465673+315862208+315981403+316218374+316421842+316291458+316295736
3129+316624793+317004284+317372000+317592558+317646099+317767522+318154579
3115+318793466+319123807+318890528+318809767+319348395+319981068+320064396
3102+319863201+320098236+320746174+321322875+321664451+321707050+321594857
3088+321794566+322276185+322646558+322978520+323501725+323968439+324055212
3075+324006895+324060706+324140207+324171840+323923499+323453768+323139052
3061+322922435+322689584+322596282+322587208+322514822+322480532+322467113
3047+322418323+322461304+322494919+322440995+322504555+322811818+323052347
3034+322796733+322527228+322765370+322986513+322987143+323085511+323288372
3020+323726245+324534648+325157032+325076608+324721816+324566394+324573554
3007+324740908+324999809+325290231+325627979+325965120+326635866+327868295
2993+329178379+330286164+331443596+332792068+334290017+335829687+337227849
2980+338233192+338639656+338587354+338346060+337968572+337627266+337522707
2966+337410762+337117075+336819741+336534363+336322992+336354760+336522633
2953+336732338+337067790+337641068+338424277+339136518+339488023+339528033
2939+339687124+339967189+339795849+339301779+339079353+339052470+338783685
2926+338112533+337494810+337327839+337027015+336225186+335468703+335087973
2912+335254787+336047272+336764309+336840027+336642548+336456731+336139494
2899+335825049+335836149+336169124+336385246+336330894+336374799+336339675
2885+335967546+335737082+335766442+335749128+335771508+335955861+336135892
2872+336094757+335743567+335364436+335386951+335607598+335596116+335427635
2858+335163601+334760086+334370036+334115615+334061692+334189960+334393384
2845+334630963+334906930+335253099+335614736+335950660+336458712+337190857
2831+337790501+338001061+338120639+338542391+339152774+339594227+339736815
2818+339884874+340424852+341174874+341655435+341880158+342239048+342633219
2804+342641910+342419799+342435199+342785308+343203391+343461593+343700838
2791+344144272+344654464+345077927+345533226+346014170+346476269+346935374
2777+347175362+347188083+347414719+347994302+348502737+348733764+348954299
2764+349320979+349743564+350078453+350376575+350856529+351380814+351661892
2750+351825847+352138581+352634633+353127330+353452717+353785738+354318827
2737+354882356+355340718+355783724+356229207+356607572+356955160+357414940
2723+358028227+358667633+359264777+359812253+360152523+360290428+360526251
2710+360902612+361237816+361503179+361723556+361911872+362030707+362100391
2696+362326127+362710211+363029452+363222136+363304248+363357451+363491213
2683+363636571+363772426+363896529+363971054+364193345+364508511+364555590
2669+364441416+364424237+364512969+364757258+365096514+365397203+365689831
2656+365957670+366069930+365975885+365915004+366139502+366368683+366310887
2642+366315007+366720188+367339712+367874197+368122313+367993054+367788797
2629+367960137+368437119+368839170+369113268+369432892+369770820+369949027
2615+370106723+370506230+370880092+370936110+370906030+371017930+371269130
2602+371567342+371764776+371738254+371541247+371375806+371295923+371248731
2588+371125056+370868632+370664848+370572694+370512669+370443435+370301545
2575+370180167+370175394+370165194+369978117+369690960+369590025+369634875
2561+369510434+369265695+369178022+369245454+369372079+369534142+369637329
2548+369630236+369540379+369392703+369210916+369069747+369124728+369390946
2534+369578362+369479138+369350532+369457276+369688100+369880401+369962626
2521+369955579+370025961+370209391+370305486+370344347+370539147+370706907
2507+370626595+370465523+370307805+370131264+370115368+370285357+370364993
2494+370223418+369959204+369672137+369480489+369498456+369579803+369485217
2480+369294447+369156925+369063375+369026428+369040162+369015395+368926866
2467+368898790+368952533+368966020+368988400+369072831+369087781+369019853
2453+368974958+368911106+368794252+368697933+368655807+368739541+368946342
2440+369140241+369278506+369278664+369048830+368780135+368707209+368813750
2426+368989998+369140016+369249034+369393873+369469299+369369602+369220800
2413+369086205+369064230+369299828+369663626+369995521+370262167+370377016
2399+370349457+370349075+370404282+370381204+370320661+370383117+370459038
2386+370268944+369729258+368784076+367263679+365152645+362589530+359824163
2372+357069379+354362371+351929326+349709229+347490077+346015566+345802101
2359+346219485+347130985+349301774+352914698+357028807+359816013+359761774
2345+357389250+355232465+354441917+354405239+354818661+355362647+355785187
2332+356342097+357350141+358753122+360202011+361322631+362175996+363177016
2318+364540933+366050838+367345318+368430972+369473554+370398630+371215927
2305+372098224+372938622+373520748+373926515+374326089+374777224+375197895
2291+375522832+375878863+376269319+376624134+376996465+377263111+377299721
2278+377259531+377299135+377389150+377445551+377526335+377706275+377885562
2264+377996967+378144531+378380849+378613744+378846820+379168380+379472289
2251+379600624+379655246+379859457+380185926+380367847+380369604+380480828
2237+380769201+381004618+381139393+381301772+381567945+381904635+382122896
2224+382193774+382351469+382584140+382788847+383084379+383394321+383594030
2210+383759516+383890643+384010694+384176720+384321897+384460229+384761526
2197+385224841+385662443+386001205+386224779+386389905+386648198+387044057
2183+387473194+387833345+388199845+388566210+388842155+389158041+389609693
2170+390135780+390635614+391130810+391725028+392252916+392567721+392820746
2156+393142576+393526638+393846036+394043628+394290709+394593986+394763570
2143+394841742+394970123+395091614+395056175+394856197+394587097+394176963
2129+393595083+393097411+392730505+392205229+391448183+390583244+389656569
2116+388728769+387886931+387150914+386419670+385562837+384558395+383462092
2102+382380198+381420606+380569853+379698700+378785264+377915237+377041946
2089+376100028+375082235+374039428+373198490+372583446+371859475+370907853
2075+369986582+369276705+368702841+368148430+367541672+366857440+366178070
2062+365557128+364883049+364106910+363437718+363007860+362609524+362098680
2048+361570229+361022280+360448438+359997237+359712782+359447622+358992367
2035+358343078+357820594+357508692+357115782+356692927+356444248+356177625
2021+355766928+355241336+354609113+354144785+353941970+353697254+353350589
2008+353011738+352651339+352303009+351985839+351600854+351162576+350730602
1994+350170517+349438733+348899137+348733224+348703954+348631276+348397592
1981+348026296+347762532+347660584+347512390+347264972+346874381+346111413
1967+345286709+345091526+345293666+345257056+344975123+344583856+344107167
1954+343807560+343740915+343532876+343067895+342525890+341811870+341201554
1940+341415470+341946015+341958916+341658520+341486280+341410246+341261805
1927+340963458+340288726+339491761+339243577+339116998+338976459+339490613
1913+340043965+339896942+339506463+339520940+339883343+340249325+340457161
1900+340485193+340323467+340037121+339943165+339977658+339745325+339805261
1886+340496833+341132973+341514063+341775373+341988073+342223828+342377268
1873+342149506+341015963+339419533+339513038+341234606+342607237+343112993
1859+343260624+343442523+343770973+344087962+344192342+343983110+343424871
1846+342302563+341327954+342265954+343977098+344819274+345126514+345428329
1832+344904989+343185514+342401134+343201995+344059796+345035936+346145546
1819+346764395+346974595+347080731+346813140+346217324+346248282+347051011
1805+347752648+347688908+346862155+346365743+346857314+347275757+346551965
1792+345873001+347497440+349810659+350877243+350970005+350799070+350664430
1778+351032889+351359222+350414468+348477183+348682272+351278821+353821784
1765+355221388+355242597+355134772+355984175+356870436+357768201+358256710
1751+356953359+355010152+355209793+356696957+357872851+358461867+358946054
1738+359763215+359613287+357917498+358685374+361867900+364828788+366867797
1724+367832297+368207960+367818022+365277423+362834967+365059702+368830389
1711+371489800+372478053+371665305+370731831+371130032+370436185+368374639
1697+369192386+372829243+376986221+379666819+380578273+380540763+379002444
1684+377181652+380325609+385041163+388133741+389202711+389597220+390389480
1670+391103522+393643896+397721913+400216807+401354853+403704389+406611308
1657+408139360+407009374+404804745+408194522+411912118+414252333+419485688
1643+426350124+431687408+434999148+436657607+440246372+448779354+457002393
1630+463128560+468340165+473572800+479084891+485788704+492380303+497384679
1616+502732186+509911202+516739118+522330642+527565033+533278994+538786312
1603+543825813+549104873+554529651+559281319+563439265+567685424+572039476
1589+576324812+580608572+584957445+589514042+594435564+598808078+601709143
1576+606061079+613695304+620548122+626705180+634475982+642817720+650618872
1562+656827985+659734183+664252325+677320740+691191006+703690420+715029183
1549+726801631+737541718+745351156+750510211+757615108+776792803+796163408
1535+809703603+823447695+838587179+850811324+861176807+872287267+882741819
1522+892377272+903567346+915675674+928815281+942547935+953913176+960822146
1508+962965219+967917451+981447560+992897907+999896037+1003392986+1006971980
1495+1013085178+1018599926+1020907989+1021281829+1025370744+1031890384
1483+1035924002+1036769757+1036877289+1035761713+1031650284+1026448315
1472+1024832994+1028511775+1031064712+1027391696+1022198372+1021659452
1460+1021020745+1014557032+1008967354+1013152093+1018549042+1020118792
1449+1017804694+1016109400+1016926787+1017433556+1017013605+1016091568
1437+1013564929+1012932346+1015578585+1016533404+1016521876+1018989797
1425+1021948185+1023043678+1021514545+1017259199+1015076680+1017125550
1414+1018828139+1019849602+1020986702+1020472008+1017182738+1013607527
1402+1012187818+1009568146+1004995067+1002551823+1002511477+1004068528
1391+1005146098+1001543959+993946388+990535357+993126030+996970791+999185732
1377+999205005+997478371+995970132+995948337+996702862+998435621+999828402
1364+997735943+994078327+993267695+993892082+994058964+994307530+994665880
1350+994569785+994363908+993985294+992748677+989939519+985736678+983354855
1337+984983594+988001963+990203215+991638595+992376639+992559821+993168989
1323+994733335+996381077+997595449+999482931+1002101342+1005013620+1008542180
1310+1011780836+1014252358+1016660479+1019526105+1023435080+1028241324
1298+1032416246+1034606240+1035623201+1037163771+1039707342+1042819283
1287+1045369969+1046827774+1048300619+1050376417+1052073512+1052945025
1275+1053217187+1052541915+1051562420+1050976758+1049895405+1049008582
1263+1049838847+1050802312+1049942417+1048466600+1048053674+1048982645
1252+1050929387+1052940342+1054230905+1054584571+1053820680+1052908821
1240+1053398748+1054997678+1056140812+1056113434+1055600991+1055545154
1229+1055756435+1055751662+1055367105+1054707864+1054736233+1055439693
1217+1056059217+1056872281+1057854478+1058621071+1058693749+1057946790
1205+1057403006+1057056725+1056104968+1055801825+1057683184+1060186588
1194+1060795665+1060052848+1059506363+1058245880+1056268067+1055857483
1182+1056234114+1055194369+1053990984+1054028720+1054707684+1055088188
1171+1054501626+1053423875+1052008759+1049424210+1046976914+1046573804
1159+1047079942+1046138273+1043281472+1040150348+1038380214+1037614612
1148+1036387362+1034435576+1032248013+1030157355+1028753857+1027388543
1136+1024993031+1022609948+1021214915+1019738017+1017274059+1014414557
1124+1011827126+1009548152+1007220095+1004581241+1002082970+1000030317
1113+997767104+995434364+994578251+994724509+994399842+994809886+996489419
1099+997909669+998547115+998802616+998809281+998415988+999017140+1001878623
1086+1004895011+1007004852+1008975009+1009816352+1010334018+1012609029
1074+1016312216+1020332234+1023268468+1023966525+1023467591+1024102246
1063+1026024761+1027730682+1029695526+1032223787+1034097940+1035114180
1051+1035696059+1036348095+1037900103+1040125401+1041234133+1040951524
1040+1041101024+1041740902+1040905413+1038753424+1038672820+1041278533
1028+1043080368+1042735077+1041431635+1040556970+1040975030+1041742523
1016+1041977040+1042422207+1043461773+1044418122+1044736215+1044126417
1005+1043334247+1042922312+1041538627+1039632142+1039380603+1040714395
993+1042284055+1042750657+1041410021+1039136270+1037550760+1037187367
982+1036862699+1036488229+1037535449+1038981456+1038637426+1037192050
970+1035437767+1033067021+1031431978+1031540320+1032379051+1032831694
959+1032464518+1031377041+1029719302+1027607660+1025695501+1024864245
947+1024958718+1024687997+1024295965+1025143702+1025886879+1024953495
935+1023692111+1023161116+1023269459+1023858633+1024459605+1024885860
924+1025282485+1026257837+1027859829+1028900114+1029003233+1028427388
912+1027449424+1026454799+1024884419+1023012427+1022622376+1023809190
901+1024917561+1025204673+1024974389+1024614688+1024632610+1025651552
889+1027462573+1028412979+1028077774+1027261018+1024983305+1022032752
878+1020923300+1021080275+1022420101+1025773043+1028129559+1027998341
866+1028928934+1031584359+1033476345+1034951711+1036804340+1037962605
854+1038530075+1040614428+1043774552+1044550061+1043160972+1042414913
843+1042698422+1043283634+1043427100+1042531901+1041831232+1042646457
831+1043713761+1044807903+1046586863+1047583829+1048472093+1050925514
820+1053827075+1056054985+1057275481+1056757725+1055702219+1057521615
808+1061256143+1062197633+1061316483+1061266050+1060030874+1057884288
797+1057005210+1059409098+1067587287+1073741823+1068501759+1059592100
785+1055883060+1055566138+1054426606+1052273716+1051943465+1053084978
773+1052386201+1048254238+1043637120+1042700944+1044586895+1047066884
762+1049056494+1048900600+1047455944+1047008615+1047813843+1048811891
750+1048814592+1046833538+1043867404+1041919221+1041584557+1043370902
739+1045624479+1045913122+1045939690+1047111373+1048226319+1048373297
727+1047136050+1044701812+1042246230+1040172503+1038360671+1037897852
716+1040940807+1048356366+1052333966+1045459219+1037453495+1037473038
704+1040629559+1042138518+1042216870+1040607314+1038602663+1037645593
692+1037717011+1039226780+1039648803+1036975635+1035340321+1037619926
681+1039269019+1037236630+1036955371+1039987609+1040822288+1036056931
669+1028710087+1028321928+1034777895+1042085742+1047344990+1045583412
658+1042708239+1046258953+1050414512+1049413223+1051222083+1059022019
646+1061847388+1055392952+1041345087+1026499109+1025647769+1019698751+972663805
633+932793061+956425496+1015364152+1045564499+1043421156+1035903108+1031597238
619+1031040216+1036133752+1042477595+1042395370+1036820281+1024199961
608+1007873212+1000150548+1003632096+1012823643+1029107883
##END=
