##TITLE=Sample description
##JCAMP-DX=4.24
##DATA TYPE=INFRARED SPECTRUM
##DATE=24/8/2023
##SAMPLING PROCEDURE=Instrument type and / or accessory
##ORIGIN=Default
##XUNITS=1/CM
##YUNITS=ABSORBANCE
##RESOLUTION=4
##FIRSTX=4397.6552
##LASTX=599.8556
##DELTAX=-1.9287962
##MAXY=1.5139892
##MINY=0.5761475
##XFACTOR=1
##YFACTOR=1.4100123e-009
##NPOINTS=1970
##FIRSTY=0.82449341
##XYDATA=(X++(Y..Y))
4398+584741984+584380767+583957789+583695066+584567864+585671259+585448399
4384+584515151+583760123+583155838+582974912+583647213+584647759+584807211
4371+583644973+582180613+582024121+583086850+583771325+583425494+582624516
4357+581935772+581503536+582048216+584337141+586722236+587158234+585887102
4344+583694178+581450484+580331787+580338762+580245678+579607026+579109268
4330+579165575+579676606+580431211+580802152+579632601+577782125+577581077
4317+578647357+579140592+578828664+578941742+579432821+578962794+578183037
4303+577888694+577903658+578512677+578995344+578554696+577699525+576706376
4290+575921546+576166769+577128340+577980552+578551610+579222981+579939372
4276+579303425+577415539+576018731+575985758+577170063+577853946+577466266
4263+577720365+578640171+578502828+577015980+575963608+576202489+576890473
4249+577705697+577887933+576909707+576296292+576320260+575603320+574357720
4236+573625393+573348297+573014556+573003354+573461714+573451949+572527028
4222+571557637+571994269+573761383+574946787+574438080+573898177+574994132
4209+575606110+573958542+571824334+571078521+571935383+572813255+572398182
4195+571589257+571500315+571704280+571044407+570039211+570507294+571683862
4182+571297746+570362426+570631913+571225756+571598810+572127976+572345891
4168+572059030+572192273+572833799+573047655+572785609+572220511+571761728
4155+572339930+573342167+573152533+572072600+571987843+572886217+572919824
4141+571953434+571247104+570842387+569901784+568496817+567950911+568525858
4128+568741575+568711181+569050290+568530170+567545307+567516435+567708732
4114+567429861+567090583+566847220+566995216+567792559+568701500+568897433
4101+568075784+567362225+567738069+567958816+567447362+567616029+568492674
4087+568425799+566984310+565653235+565412959+565253888+564539315+564204982
4074+564971466+566758321+568209111+568250665+567673519+566592994+565244207
4060+565118024+566104282+566691404+566305288+565632057+565098664+564346341
4047+563130290+561838276+561588953+562758166+564426321+565674752+565774938
4033+564708278+563729629+563377203+563038728+562882278+563095246+563224938
4020+563350910+564035258+565173486+565574736+564877748+563986560+563377880
4006+563057751+562858605+562697674+562578255+562201311+561902910+562580115
3993+563510488+563352094+562635745+562030277+561672525+562173031+562964878
3979+562911023+562616892+562758039+562285898+560792033+560068794+561153716
3966+562265819+561646190+560175405+559715693+560798036+562381519+563139632
3952+562776343+561319255+559793939+559690371+559494988+558007591+557279067
3939+558083723+559300197+559629288+558341965+557397092+558839005+560745491
3925+560510752+559037178+558349109+557945746+557453695+557573199+558147555
3912+558900934+560080715+560648941+558593655+554802284+552873435+552785043
3898+554037110+557333979+560446245+559563470+556821849+557385340+558080975
3885+556885680+557366571+557753914+557355707+557954074+557227411+555381881
3871+553530475+552069033+553108174+553404799+552012177+552897150+554982998
3858+556313777+554960848+546622400+543203194+550131814+556531099+558689994
3844+557406308+555115142+552423825+548648940+548294274+551552464+553348450
3831+553918198+555237013+556040105+556054266+553841389+548344325+547500779
3817+549905657+551317894+554737776+558350462+558380264+554441742+552016869
3804+552222271+549823902+548475961+551019451+553612273+555486843+557076963
3790+558230366+558141848+555969425+554004476+554515803+554966977+554534446
3777+555531525+556931757+557126591+555723146+554593669+555311920+556228598
3763+557248082+557076709+553937432+551943949+553318479+553905220+549172230
3750+545261650+548563042+550470332+547489957+547882245+551163642+552281875
3736+549151770+544995376+545511945+549990244+554205904+555555705+554581579
3723+553176106+552160341+552271053+553615697+554832170+552935406+548186860
3709+547607347+550405233+552259639+552347059+552521517+554056936+555083226
3696+555215074+555197658+553428641+549200680+548228372+551842580+555255825
3682+556264825+555503076+553490951+547719285+542913501+543879807+543160880
3669+541668705+544094720+546488608+546683230+546233958+545934543+543903860
3655+541525740+541357496+538715088+530119962+526454224+530052622+533395907
3642+533980323+532671104+530439880+527300053+524136638+521312122+514683678
3628+506247243+506830137+510683650+510928661+506219808+500443703+498666528
3615+497981123+496162352+494355628+491478060+488878178+489119935+489389294
3601+487469069+485279780+483671526+481134715+478723031+478138107+476521060
3588+471488823+468189883+468428384+469052241+469245552+468662320+467089109
3574+465246539+463683262+461933057+458295303+453597103+452141917+452761250
3561+452813203+452570601+452793800+452729165+451219490+449134783+447919916
3547+446660536+445058030+444609350+445046997+445081153+444087201+442561294
3534+441721383+441160935+439591994+437738855+437182423+437221610+436755641
3520+436631952+436919193+436350164+435112469+434098396+432878836+431421072
3507+430658646+430097860+429323218+429065567+428844567+427792280+426022375
3493+424348218+423591288+423517523+423234466+422888002+423095390+423496386
3480+423525470+423009831+422180953+421400350+420636445+420174746+419945671
3466+419105591+417642289+416584253+416542234+416513235+415862366+415590597
3453+415873611+415907978+415356788+414573564+414077878+413529562+413058732
3439+413252002+413167288+412206435+411538446+411559921+411361917+410818209
3426+410376504+409779068+408931252+408611673+409039216+409387414+409395868
3412+409811406+410809923+411412475+411242962+410800623+410144090+409510511
3399+409446299+409951497+410472505+410530122+410513551+410859044+411360691
3385+412004162+413045416+414308559+415181907+415479209+415606238+416043630
3372+417145588+418700072+420085805+421377734+422653305+423249684+423654189
3358+424947218+426873953+428860800+430488457+431442250+432055581+432847893
3345+434014950+435244951+435972671+436083129+436325857+437585617+439159505
3331+439721390+439691503+439738341+439252842+438422400+438411578+439067224
3318+439499290+439723799+439978871+440172944+440316459+440546209+440633840
3304+440345373+440311005+440941795+441695089+441994928+441618703+441002625
3291+441010234+442017247+443632562+445132895+445927024+446096917+446684969
3277+448246343+449898223+450608569+450475495+450460658+450994347+451619134
3264+452054413+452723374+453746409+454344522+454201937+453906157+453899562
3250+454168119+454577781+455062307+455387763+455394019+455417988+455821689
3237+456622836+457578489+458039766+457543192+457071854+458063861+459888424
3223+460361833+459333809+458775644+459070368+459516595+460386900+461600837
3210+462453768+462388584+461600542+461208549+461437666+461643068+462021998
3196+462668132+463126154+463546468+463988131+464198605+464254954+464231873
3183+464460440+465030695+465393942+465594525+465827362+466004060+466551953
3169+467466433+468163378+468742341+469327519+469576926+469617338+470013135
3156+470853384+471543989+471823367+471895019+471740344+471772936+472529655
3142+473391674+473416404+472642945+471754252+471396796+471795594+472529021
3129+473156386+473674731+474040049+474168599+474139220+473994352+474034004
3115+474695694+475477650+475259947+473995747+473035360+473339130+474013629
3102+473924476+473656173+474057296+474731288+474984753+474737290+474543302
3088+474892980+475470379+475882281+476132746+476209132+476311642+476634223
3075+477070898+477468258+477557876+477205493+476822167+476931229+477116087
3061+476564262+475967460+476390311+477002289+476944376+476977053+477443571
3047+477828124+477908357+477767378+477743705+478055422+478425391+478474976
3034+478212718+478095793+478431182+478956248+479249280+479271981+479191917
3020+479158986+479297809+479408225+479402602+479550345+479747630+479769992
3007+480028150+480691531+481064332+481099333+481498765+482221328+482922416
2993+483869741+485166110+486075221+486262022+486358615+486820103+487664199
2980+488641664+489297901+489639167+489963354+489781033+488882575+488495698
2966+488984536+489226292+488701607+487776348+487427938+488193450+488917365
2953+488906501+488917111+489026005+489336200+490518602+491902263+492346969
2939+491442382+489522918+488515058+489255122+489776383+489916939+490453418
2926+489292786+486639177+485234380+484568927+484160745+485435892+487491220
2912+488272161+487528124+486486278+486622818+487562491+488190660+489233140
2899+490529931+490418670+489499583+489345881+489968300+490928307+491743530
2885+491989345+491821988+491389626+491019996+491216436+491536226+491519909
2872+491432955+491244462+491126691+491445045+491824313+491761961+491342027
2858+491329345+491988246+492267962+491737359+491238121+491171035+491155267
2845+490853104+490541429+490940946+492043369+493120090+494027045+494753327
2831+494806379+494341805+494321219+495145996+496319986+497340527+497826998
2818+497772424+497981123+498811692+499573779+499736528+499566170+499615629
2804+499989486+500372348+500590558+500668931+500626828+500515228+500522203
2791+500889213+501547732+502226247+502887895+503465421+503697243+503588941
2777+503435154+503422853+503692044+504221971+504728606+505258322+505780428
2764+505861930+505681680+505879008+506493564+506930534+507074641+507537566
2750+508196720+508480157+508776825+509390113+509743807+509630728+509532318
2737+509762491+510111830+510251372+510283668+510610899+511216620+511753565
2723+512364232+513203044+513830325+513965639+513883884+514049634+514515561
2710+514971596+515443145+515959291+516104370+515866334+515942551+516649135
2696+517584243+518287656+518638729+518810735+518998002+519316018+519605288
2683+519671021+519760385+520119786+520644090+521114287+521425834+521640282
2669+521775512+521527796+520922497+520829075+521505433+522253613+522708422
2656+522908159+523062750+523259021+523359460+523633427+524345253+525129745
2642+525657009+525896397+525847277+525906247+526501696+527249749+527617054
2629+527715126+527731021+527715845+527946610+528603185+529517580+530277892
2615+530553297+530473571+530460763+530825912+531446852+532164130+532957457
2602+533541493+533934415+534429975+534888166+535166868+535407144+535600625
2588+535843818+536509482+537314561+537750051+538017551+538177130+538162165
2575+538336877+538882952+539484320+539696908+539690482+540135653+540999829
2561+541774513+542350855+542625119+542588300+542586482+542803128+543219300
2548+543728176+544226441+544713800+545137792+545384959+545409731+545459993
2534+545807514+546279739+546664757+547067698+547554126+548017474+548293006
2521+548311437+548456389+548951357+549339883+549603494+550173876+550805637
2507+550991889+550833579+550783782+550978151+551296166+551745099+552281706
2494+552796541+553253084+553597604+553922468+554183288+554122163+553999446
2480+554193857+554495724+554573843+554318264+553883154+553741880+554022526
2467+554160969+553955905+553821183+553854367+553884549+553922425+554038801
2453+554061798+553784786+553421751+553167440+552943819+552745180+552496450
2440+552205742+552085350+552020800+551848836+551802505+551771689+551306354
2426+550643945+550302806+550165167+549874840+549441041+548997392+548564480
2413+548302517+548144672+547808522+547509571+547320318+546877894+546211385
2399+545589262+545071002+544649250+544346790+544089267+543704207+543048181
2386+542086695+540815014+539213227+537369050+535160358+532200823+528583698
2372+524678360+520334107+515816791+512328301+510063259+508232567+506930492
2359+506662823+507639358+509904611+513550143+517917265+520707203+519988952
2345+516393936+513136930+511918934+511643910+511641289+511977778+512367572
2332+512538986+512819887+513562317+514708915+516077654+517447069+518523367
2318+519267447+520068720+521296481+522663740+523614363+524298373+525007070
2305+525647624+526255248+526852262+527395716+527816876+527981274+528137301
2291+528586192+529068816+529321521+529524598+529713851+529707130+529583990
2278+529524386+529641734+529953155+530289306+530478729+530595612+530872031
2264+531206829+531336774+531536596+532207882+533060813+533640791+534126459
2251+534701786+535118593+535398436+535847116+536441635+536905871+537150670
2237+537295623+537468052+537801666+538429919+539299040+540058591+540471043
2224+540779843+541260058+541848448+542360282+542859646+543583519+544267318
2210+544566438+544948708+545773908+546615678+547228713+547835365+548453345
2197+549078639+550009816+551137814+551971046+552492814+553016612+553611469
2183+554152810+554793153+555775437+556825188+557504168+557934924+558705551
2170+559892053+560927051+561704653+562445942+563111394+563744593+564280100
2156+564540160+564837039+565524431+566236553+566501770+566677961+567176522
2143+567680241+568009543+568167050+567947614+567503288+567056638+566511746
2129+565895203+565315479+564658903+563746030+562684020+561738513+560886132
2116+559866140+558587780+557216547+555874566+554560443+553345787+552132907
2102+550618328+549034634+547902789+547004204+545764396+544180787+542611380
2089+541183629+539906114+538809441+537691715+536430433+535189779+533996894
2075+532806248+531611122+530374992+529146344+527868448+526479123+525184361
2062+524081557+523040937+521924522+520548597+518971455+517568222+516481017
2048+515488926+514343639+513068787+511851975+510782271+509824885+508781982
2035+507646164+506681719+505872244+504913801+503749999+502740407+501906203
2021+500880927+499734414+498704235+497837312+497078818+496249560+495318383
2008+494559635+494011150+493229068+492171877+491238755+490486179+489850191
1994+489136632+488123404+487211165+486626918+485968483+485093317+484273443
1981+483696932+483100172+482330179+481679099+481168110+480512972+479557911
1967+478545571+477967749+477752414+477451561+476929031+476216910+475335741
1954+474475201+473812370+473258390+472644847+471871854+470919879+470173601
1940+469995804+469805578+469286134+468841344+468529838+468217360+467840290
1927+467191451+466029551+464714625+464082314+463770258+463387355+463502124
1913+463627420+462951272+461982600+461619099+461676463+461590608+461401608
1900+461222499+460776906+460065418+459586683+459242459+458562760+458112474
1886+458330854+458601736+458624351+458516007+458368688+458145616+457769391
1873+457205477+455882139+453783820+453187483+454592914+455889072+456141438
1859+455805372+455568139+455586063+455522570+455212840+454674035+453760105
1846+452133082+450646318+451240584+452707353+453277946+453263320+453211663
1832+452256264+450015233+448744355+449134656+449546305+450060634+450769711
1819+451082062+450968054+450538566+449611827+448435724+448030881+448279527
1805+448125233+447133099+445418910+444241961+444439373+444519268+442992050
1792+441204814+441986262+443797593+444370765+443754729+442763187+441828501
1778+441409328+440904299+438854720+435552652+434921229+437202714+439270512
1765+440034840+439369556+438467928+438578428+438769415+438937278+438670074
1751+436374470+433314707+433017025+434543694+435432387+434886988+433863911
1738+433771545+433111377+430468336+430156196+432588002+434929007+436399369
1724+436694895+436317191+434907279+430491247+425921386+427575760+431426567
1711+433691566+433770615+431641776+429279550+428545659+426584303+423036082
1697+422697437+425299348+428821317+431010691+430888439+429452741+426487118
1684+422960076+424589889+427965301+429604414+428852810+427039450+425796514
1670+424233617+424269760+426536239+427383632+426581344+427045030+428106448
1657+427540928+423359170+416238633+416490408+418266780+417345156+419213344
1643+423778217+426485089+426571029+424314569+422662140+426900035+432549196
1630+436170844+438357512+440213779+442174924+445901111+450488304+453247552
1616+456019313+461778635+467538803+471523064+474737375+478372592+482075403
1603+485524791+489107422+492783728+495980327+498858022+502166812+505836059
1589+509540138+513278204+516955145+520383946+523425278+525583328+526273975
1576+528106062+533443336+537941038+540541469+544486923+549873995+554577902
1562+557487978+556570328+555201082+563329097+572940833+580793232+587299509
1549+593212449+597504157+598913520+597913566+598182418+607971402+619932470
1535+627390891+633358024+640672930+647403335+652148541+655168061+656934964
1522+660231748+667684166+675955781+683978285+691826922+697757109+700234189
1508+698625343+701350477+714442502+725501392+731846314+734611354+738336231
1495+745534126+751650439+754404488+756307846+762327694+770783955+777881157
1481+783289069+787925340+791239245+792317191+792691810+797298236+805444049
1468+812031446+816286504+821455492+827862808+831793806+832788138+837735026
1454+847961910+857259815+864292087+869973502+876636144+884048952+891312708
1441+899105630+905937700+910490525+916354303+923899339+930369050+937097552
1427+944440104+950095647+955028924+960577519+964786415+967550778+972090161
1414+977530707+981667909+984545478+986735021+987838247+989156132+991753857
1400+991731791+988226392+987246602+990114617+994282509+997136574+995732622
1387+992125009+992427257+995957174+999248167+1001759825+1002938634+1002547530
1373+1003418426+1005785598+1006677208+1006835729+1007729622+1007474550
1362+1006593508+1007598662+1008482409+1008160970+1008618696+1009706450
1350+1009220063+1008040155+1008355169+1008832932+1007194115+1003756352
1339+1000801594+1000097166+1001204957+1002724651+1003659125+1004348081
1327+1005598331+1006993490+1008074903+1009511574+1011478003+1013136350
1315+1014326657+1016739990+1021205227+1025459186+1028143316+1030543460
1304+1034091469+1038824375+1043249030+1046165743+1047746901+1049112638
1292+1051262360+1053872006+1056091647+1057793028+1059450868+1061576156
1281+1064338237+1066823179+1068322836+1069656954+1070288588+1068712588
1269+1065938333+1064058732+1063912638+1064688591+1064805347+1064374591
1258+1064288440+1063735517+1062618003+1062637025+1063778973+1063786497
1246+1061993639+1061156645+1062807383+1064695185+1065336965+1065077751
1234+1064603031+1064808814+1065009354+1064220466+1063510035+1064136006
1223+1065369938+1065558557+1064667201+1064256820+1065462937+1067491422
1211+1068648165+1069207429+1070224842+1071242846+1071867802+1072106472
1200+1071660160+1071339227+1072020236+1072505185+1072330600+1072260597
1188+1071258149+1069580018+1068982286+1068788763+1068679869+1069650697
1177+1070812682+1070906780+1071270661+1072819523+1073741823+1073337783
1165+1071627525+1068227892+1065345420+1065248278+1066230266+1065332569
1153+1063359207+1063109546+1064350834+1064290046+1061531348+1057449607
1142+1053794732+1051326192+1050047197+1049552441+1049419029+1047968324
1130+1043329347+1037382885+1033942501+1032994753+1031661988+1029105183
1119+1026397042+1023806334+1020863074+1017439261+1012931244+1007094606
1107+1001663021+998396715+997199983+996528866+994848452+991615626+987683107
1094+984901581+983874699+983400402+982319327+980621329+978798626+977157949
1080+975655586+973953529+971603267+967601252+962181335+958064085+956623863
1067+955764887+953686944+951244866+948753920+945665581+942794438+940623411
1053+938587317+936298603+933570510+930420876+927753993+926726265+926051598
1040+923908555+922194999+922342953+922058967+920472567+918634139+916692567
1026+914988819+913404110+911489422+909804021+908571949+907549294+906987071
1013+906926283+906403373+904887653+903228375+902493258+903288402+904802178
999+905453258+905128098+904587011+904498831+904999167+905035353+904304124
986+903984206+904256864+904122606+902847163+900702429+899050845+898532247
972+898280219+897263482+895092962+892224524+889476563+887352965+885721926
959+884128847+882689048+881749501+881456807+882312147+884528491+886841131
945+888067285+889403770+892162722+895473499+898560823+901675878+904732428
932+907575418+910588090+914412899+918947631+922399429+923564542+924585759
918+927230322+929658619+930284505+930084472+930231749+930777570+931304961
905+931117948+930306402+930476760+931301495+930715515+929217041+928279946
891+927704957+926545762+924002061+920528451+918282602+918733733+921197708
878+923932734+924842437+924105713+924578911+926568082+928188384+929280112
864+930534504+932757019+936197995+940011644+943655612+946415748+948232363
851+950526657+953528253+957023084+961986120+968163137+973062088+975193802
837+976305314+978182463+979764382+979560882+979361948+981914104+985988405
824+989403087+992249543+994628298+997823755+1003286705+1008031109+1009069996
810+1009203915+1010913412+1013314655+1015936899+1017798661+1018820216
799+1021096756+1025132843+1027468817+1024803794+1023522348+1029641112
787+1035581488+1036651234+1038803069+1043796542+1048120927+1049018624
775+1047680871+1047622197+1048761270+1049196929+1049455045+1050609251
764+1052385285+1054452745+1055902605+1056042104+1056445890+1056821185
752+1055256682+1052934996+1051816805+1052220845+1053686177+1055475738
741+1055137643+1050430777+1044608849+1042960985+1045580608+1047871858
729+1047280720+1046051100+1045617977+1044479580+1042768392+1041666096
718+1040144289+1037596952+1035311451+1035008358+1036484004+1037187164
706+1036648444+1036713290+1037096362+1036357187+1035529662+1034482996
694+1032639327+1032752617+1032288973+1028919099+1028261848+1031617856
683+1036745839+1042654849+1047580432+1050028935+1049540942+1047589394
671+1042426493+1034391434+1035591718+1042961324+1043222144+1041144962
660+1039307210+1033119034+1027502550+1028933387+1034446811+1037149541
648+1037423128+1044961739+1058716934+1066363340+1059579122+1041480690
637+1028930344+1026978119+1020276163+1010948921+1009612436+1010615476
625+1021437302+1049877938+1063030835+1054554199+1047862135+1023435097
613+1000783924+1020994541+1056949608+1070871948+1070273455+1062426339
602+1058509461+1063038951
##END=
