##TITLE=Sample description
##JCAMP-DX=4.24
##DATA TYPE=INFRARED SPECTRUM
##DATE=24/8/2023
##SAMPLING PROCEDURE=Instrument type and / or accessory
##ORIGIN=Default
##XUNITS=1/CM
##YUNITS=ABSORBANCE
##RESOLUTION=4
##FIRSTX=4397.6552
##LASTX=599.8556
##DELTAX=-1.9287962
##MAXY=1.4351159
##MINY=0.53097183
##XFACTOR=1
##YFACTOR=1.3365559e-009
##NPOINTS=1970
##FIRSTY=0.6684221
##XYDATA=(X++(Y..Y))
4398+500107866+499035563+498122377+497611310+496767648+495957790+496288780
4384+497350425+497955767+497701259+497498037+497890211+498315164+498452162
4371+498418135+498216652+497392345+496444775+496470596+496829815+497083074
4357+497976103+498254960+496294087+494189170+493926590+494094983+494157819
4344+495072209+495997614+495626355+494692254+493928731+492843048+492445255
4330+493685238+494751833+494383696+493486431+492871054+492762776+493372934
4317+494498129+495081396+494496657+493528796+493070174+493430195+494127315
4303+494302978+493800786+492462781+491045485+490918610+491055430+490466900
4290+490439697+491079199+491011191+490721765+491214770+491495901+491045485
4276+490375301+489697580+489888628+491090348+491761826+491554411+491524933
4263+491670984+491745950+492024360+492421173+492713587+492303574+491204825
4249+490516178+490392693+489863520+488700420+488047762+487983901+487656122
4236+487687785+488371571+488846828+488400960+487355681+487379049+488852224
4222+490350818+490901976+490192949+488640929+487218237+486673858+487027591
4209+487091898+486583640+486628593+486592114+485909175+486358878+487942338
4195+488102169+486060711+483804838+483032931+483302155+483711900+484113306
4182+484438097+484557301+484183634+483722603+484186577+485068858+485206168
4168+484680028+483912715+482943427+482121885+481962991+482120637+482163538
4155+482455996+482991947+483246321+482940395+482014766+481078123+481127089
4141+481859217+481942298+481271757+481065056+481703934+482521106+483247213
4128+483694374+483490750+482795414+481943056+481086953+480369497+480059914
4114+480444195+481351673+481623484+480184826+478322019+477774072+478100959
4101+478600698+478764855+478008824+477160614+477321247+478393506+479221827
4087+478694126+477597250+477349610+477708160+477594485+476722728+475783588
4074+475467404+475840046+476347857+476567714+476775753+476808486+476333988
4060+475936417+475739304+475177978+474375880+473730803+473607228+474367496
4047+475443144+476096872+476164390+475628751+475098776+474632528+473687723
4033+473021865+473108648+473175497+472714422+471885299+471532859+472288043
4020+473493598+473987540+473749087+473728751+473992535+473849204+473413326
4006+473336889+473491101+473095136+471920708+470852373+470991824+472221863
3993+473567761+474035882+473201006+471977568+471159370+470898664+471187332
3979+472206923+474370573+475754957+474798870+473657131+473233516+472592765
3966+472355873+473304691+474142644+473413237+471865276+470497035+469914526
3952+471016709+473129965+474188578+474375345+474060098+471938323+469876664
3939+469987128+471344532+473204529+473814732+471609876+469785644+470611690
3925+471832542+471787233+471924900+472253793+470945355+468603412+467217066
3912+466681516+467337430+470253319+473398699+473410427+471145278+468306316
3898+466377953+467593141+469936957+468976321+466250365+467137329+469060786
3885+469230383+469616047+468191036+465691982+466328452+467791503+467910975
3871+466570606+464697542+465401664+466003126+463586307+462167049+463708321
3858+466314404+467284182+462822784+459373440+461761941+464459134+465639270
3844+465503833+464985452+463986107+461000782+458887481+459713393+460933933
3831+462000261+463413097+464292257+465157770+465083697+461672482+460373543
3817+461110354+459996888+460711177+463409083+464737411+462718697+461156287
3804+462426150+461595956+460214649+461117043+461211184+461458557+462876120
3790+463874038+464092245+463762594+463384377+463885321+463379695+461142061
3777+460895402+462879197+464713463+464967257+464196688+463802953+463653646
3763+464476705+465584283+464755026+464014559+465996615+468149651+465997864
3750+463117472+466349456+470221300+470247567+472372418+478130971+483592518
3736+484091856+478515074+475571044+478826129+483832264+486277045+485276139
3723+482498541+479010845+476756532+477303231+479838808+481443094+480419221
3709+480952452+484646626+489507245+494314127+499445932+505387507+511210456
3696+516719631+522139123+526174008+526721465+526786575+529366213+531633726
3682+532220829+532016313+531711947+528538160+524288770+524562454+523545137
3669+520560971+521732366+525090288+527657841+529837857+532945152+536084333
3655+539450996+544581330+549533861+550178358+548091948+548751563+550955036
3642+552065781+551430293+550759038+551433905+553413642+555500319+553643176
3628+546884965+544509798+545695999+546013788+543805632+540558887+540407261
3615+541281292+540215990+539332906+538421593+535767881+534344387+535077852
3601+535846771+536143199+536735073+536564316+534994592+534530128+535223368
3588+532514224+526959517+524040684+523121611+522320360+521427421+520663050
3574+520406268+521711763+525569692+529182702+525770507+519647383+518182950
3561+518088853+516379767+516220025+518432017+519373387+518897506+520140166
3547+522132345+521133535+518233432+516873798+517473120+518725768+518558401
3534+517312620+517385935+519388951+522562381+524955609+523844151+519535403
3520+516055066+515497352+516487822+517309677+517559635+517541128+517249918
3507+518104862+521021020+522600600+520654532+518061917+517033495+517000851
3493+516819748+516515249+516623795+517432716+518521163+519218640+519042175
3480+517883757+516802311+516649437+516946400+516938640+516765341+517192524
3466+518185893+518721532+518391791+517867524+517365154+516598643+515749273
3453+515315758+515873427+516898147+517271636+517545365+517987442+517650655
3439+516890878+516184839+515235397+514466968+514246309+514193909+513752590
3426+512972789+512914458+513723647+514387811+515105266+516038699+516377359
3412+516255791+516160624+516194516+516192465+515844128+515632343+515517643
3399+514793097+514096735+514074972+513873399+513024520+512392733+512642112
3385+513621077+514352090+514046565+513216683+512522596+512206501+512063751
3372+511954759+512092604+511854508+510847180+509890156+509682697+510261505
3358+510962148+510910104+510395113+510336381+510504506+510130081+509578388
3345+510018770+511061328+511077383+510238672+509759179+509712264+509429795
3331+508869762+508627473+508591262+508263573+507716116+507163620+506711687
3318+506403397+506081193+505952757+506443221+506987110+506646443+505751363
3304+505506399+505773750+505513177+505058703+505044298+504975353+504364214
3291+503665354+503353631+503435330+503555738+502981346+502024322+501674469
3277+501672997+501136689+500421954+500418609+500891725+501239794+500841376
3264+499553854+498370418+497727615+497146310+496812779+497014842+497017161
3250+496582353+496451955+496931850+497311270+496841633+495772362+494903548
3237+494947653+495377065+495428261+495284262+494884684+494374153+494045482
3223+493783482+493558899+493574685+493471937+492641119+491879960+492220983
3210+493008231+492692404+491401403+490887839+491759016+492164837+490799406
3196+489964842+491063858+492212287+491596643+490126011+490186616+491281619
3183+491111219+489369980+488727044+490990320+493120077+491599051+488648912
3169+489448379+492614941+492309951+488965140+488689316+492780258+494380842
3156+490690458+488144758+491751256+496978809+495697129+489884079+489384161
3142+496873385+501330056+495014101+487881108+490807522+498952481+498858875
3129+490803955+487821305+495339962+502213586+496684923+487216721+487807213
3115+498091918+502560719+493686353+485538451+489905708+500368038+500030582
3102+488475881+483021826+491098286+500912774+496360713+484151525+482047187
3088+493054031+501822125+494701307+482935534+481130969+488390926+492409088
3075+486220944+479815842+482426697+490808682+492632066+484407459+477573659
3061+479367298+486445349+488011639+481150680+475488765+475988460+479150028
3047+478988056+475391145+472969376+473250953+474723994+474864649+473223215
3034+472062612+472618006+473956814+474212258+473117166+473174516+480569598
3020+510613008+569307951+616645618+607058389+568117602+536574573+517144628
3007+503939172+493818579+487052743+483662087+481460754+478222660+475042630
2993+474303144+477606080+481835358+480403078+474823888+472148949+475824125
2980+482647669+483533518+477507390+473132730+474456375+479854060+482606462
2966+478136546+472568728+473064320+481630396+489751585+485399312+475062876
2953+470950127+475945961+485035412+485996895+477723456+471763820+473873331
2939+481952689+485766959+479136917+471151923+469957204+476766566+485353825
2926+483673726+474054880+468985954+472601060+480232678+481231042+473140579
2912+466272707+466813029+472919785+477511403+474924897+469540903+467501274
2899+470218847+475273636+476137767+471149470+466487079+466309365+469894948
2885+472534077+470344741+466595089+465857164+468311846+471008102+470591845
2872+467644293+465408799+465375130+466843265+467495923+466026896+464292747
2858+464183845+465319786+466211745+465447285+463217099+461354827+461091177
2845+462041423+462798345+462487513+461673240+461311346+461971541+463301028
2831+463972952+463543896+462914919+462737918+463071093+463506570+463310973
2818+462489743+461891715+461912496+462162188+462315285+462255794+461966992
2804+461812111+461990316+462102162+461899118+461705929+461783838+461860721
2791+461736745+461623427+461517601+461329720+461258277+461315717+461386758
2777+461512205+461614017+461590828+461448835+461264699+461299885+461442368
2764+461268534+461105047+461443483+461979791+462225335+462188588+462251736
2750+462553515+462864704+462964643+462845037+462761777+462764408+462604488
2737+462487870+462677982+462772658+462761866+463219686+463933796+464250114
2723+464112759+463857136+463797512+464010278+464363788+464727199+464863884
2710+464591672+464242934+464258409+464527677+464662624+464616646+464681979
2696+465027060+465515428+465802624+465716911+465580404+465768776+466249740
2683+466716747+466845717+466692932+466767586+467184288+467530886+467717920
2669+467994101+468430069+468724490+468762039+468976009+469422858+469622647
2656+469540502+469606191+470030787+470576371+470820220+470846888+471208069
2642+471856981+472412019+472905559+473333232+473637419+473918863+474228446
2629+474538386+474776126+475012617+475405862+475975527+476778741+477583827
2615+477750347+477423639+477548239+478307169+479019541+479422998+479813344
2602+480266570+480765730+481207183+481339320+481503120+482006918+482447612
2588+482669922+482798491+482872743+483259076+484125481+484921826+485357214
2575+485767450+486247656+486555055+486666410+486893536+487459634+488091243
2561+488501791+488832691+489194362+489615970+490131496+490571879+490891139
2548+491257181+491605607+491639723+491534477+491935660+492874800+493689831
2534+493947238+493928552+494062116+494306322+494731542+495467104+496167702
2521+496585074+496735316+496658433+496635645+496917267+497398321+497900468
2507+498206573+498227712+498291528+498629430+499062677+499432197+499704231
2494+499804883+499824505+499839400+499760867+499742449+499867897+499959809
2480+500043782+500277598+500563144+500633516+500511770+500350199+500241787
2467+500335483+500440060+500286071+500131547+500227026+500433772+500628833
2453+500832903+501057844+501172366+501023238+500684845+500268099+499850727
2440+499668465+499760020+499769251+499577222+499345324+499056701+498682543
2426+498239886+497880757+497884280+498108061+498057356+497565510+496935016
2413+496342473+495772584+495414526+495273023+495062086+494775246+494528543
2399+494233587+493980729+494354575+496392331+501215088+509848638+523131957
2386+540862360+561623220+583441577+604525800+624118921+642336888+660093246
2372+678824511+698477479+717184974+733405322+745661647+753243674+757295372
2359+755989521+746393151+730965313+713348093+695761957+684813758+686923446
2345+697021072+698947607+690640810+682385968+676292946+672619108+674584351
2332+680305177+681879271+678315807+677054106+680255274+681380469+675636498
2318+665159229+655364140+652487895+656220957+657542907+650842983+638069481
2305+622954170+610092101+601506626+594502113+586646893+577623756+567412277
2291+556802514+547157712+538775594+531336362+525094971+520228688+516285715
2278+512801319+509606215+506725378+504293574+502381578+500859482+499527186
2264+498314539+497295126+496378149+495433211+494688240+494149078+493522241
2251+492933221+492728081+492876584+492969968+492889695+492906508+493060229
2237+493193258+493256005+493330658+493553235+493932566+494381645+494873089
2224+495311331+495698779+496251944+496863083+497348374+497905195+498501574
2210+498902712+499357990+500092793+500855870+501694046+502695309+503434973
2197+503970924+504774985+505698562+506499411+507407692+508434642+509266664
2183+509919768+510622685+511445119+512323208+513097702+513678159+514244124
2170+514944588+515587614+516058812+516541426+517151005+517753225+518188836
2156+518501140+518748958+518942726+519031873+518943440+518809073+518686301
2143+518530618+518377565+518114228+517591967+516844543+515940455+514838852
2129+513573270+512277765+510974679+509661737+508297599+506787187+505325385
2116+504147211+502908878+501235558+499327040+497508249+495888400+494370183
2102+492917925+491555347+490147104+488675446+487304173+486091527+484780458
2089+483218449+481675705+480221796+478802493+477626817+476672380+475536171
2075+474078337+472699260+471779027+471257882+470869364+470258002+469114078
2062+467808940+466905297+466300312+465822603+465481089+465134491+464771348
2048+464509705+464363476+464550064+465130700+465496341+465523187+465777918
2035+466388433+467167029+467977021+468752184+469530111+470303133+470932289
2021+471605372+472538225+472864175+471990500+470904729+470271648+469753045
2008+468966600+467758993+466228111+464694198+463310215+461896888+460662613
1994+460039700+459265385+457392365+454997978+452880886+451352814+450160191
1981+448738258+447222316+445981128+444922516+443876969+443047133+442561709
1967+441782622+440323227+438852863+437714423+436765338+436086547+435506044
1954+434677635+433785542+433224796+432990847+433060461+433431943+433293340
1940+432293772+431389192+431047634+430991443+430771854+430344181+429989021
1927+430004317+430699921+431633711+431997166+431851070+431609807+431514239
1913+431584165+431850312+432180677+432203510+432160029+432437147+432742003
1900+432976487+433408352+433670575+433455490+433231441+432940766+432482188
1886+432499937+432819020+433195407+433904836+434280911+433877989+433743087
1873+434770973+436283883+436540397+435802472+436236611+437621397+438622793
1859+438613696+438053485+437913320+438584040+440099089+442257387+444079166
1846+444751090+444204168+443145243+442377127+442012289+442296409+443051637
1832+442861124+440827872+439044713+438825169+438125462+436472076+435376003
1819+435064859+434076083+432046533+430053774+427969326+425898704+424359305
1805+423688541+424197288+423505475+420267827+417837005+416768358+415089196
1792+412656635+410708204+409970769+409913419+409213490+407790129+406397316
1778+405088521+403852730+402184539+399904583+399736458+401270015+401230815
1765+400327038+399949268+399915019+400119000+399786672+399424600+400645229
1751+402138382+401335124+399995068+400159671+400115253+398631332+397268710
1738+397765774+399029750+399415904+399658014+399966661+399553080+399576939
1724+400415383+401133017+401610280+402107254+402630139+402865559+402784930
1711+402876842+403129789+403244578+403934340+405462679+405887676+404620712
1697+404347118+405080182+406676440+409168448+411701841+413208239+413054072
1684+412857226+415420319+417814796+418691280+418819716+419281192+420576563
1670+422170860+424098821+426443306+428279891+429547880+431722813+434890222
1657+437733733+438728842+437254463+438562277+441279671+442734115+444666090
1643+447942804+450827477+452709995+453252636+452897208+454823296+458070354
1630+460493238+462187072+464103795+466425983+469273641+471880037+472897978
1616+473464656+476437138+480282446+483172337+485178920+487257348+489799258
1603+492502114+495105031+497893868+501001787+504146720+507379418+510752459
1589+514194087+517845048+521810765+525842618+529598289+532908807+535597838
1576+538840347+543664710+548122184+552019848+556741195+561959293+566918959
1562+571357034+574968974+579960615+588065928+596389894+604832350+612821849
1549+619949089+627032045+634280764+638498626+639565087+647900960+659652195
1535+668368558+675348320+682062114+688775461+695527652+701331604+705397394
1522+710346223+718234489+727429230+736407281+744448020+752798699+761189469
1508+765506868+765126734+771000969+779589209+785998770+789867804+794722403
1495+802237849+809513548+815536376+820277166+825076199+830891300+837094115
1481+843244398+848949615+853764880+856916191+858288222+861000622+866936309
1468+873015149+877658364+882290877+887112920+890117868+890067832+892653401
1454+901873384+910729287+916947176+921298914+925698993+930723412+935668808
1441+940860550+945344915+947460892+950663488+956807170+962685418+968375027
1427+973658993+975834282+976972275+980106283+982944799+986247735+993145173
1414+999896963+1002909491+1003019018+1003013042+1003862055+1005194040
1402+1006070078+1004254141+1000588553+1000010236+1003137464+1007033969
1391+1009224153+1007521579+1002315387+999632867+1002087236+1006783252
1379+1011111889+1013015501+1012019858+1011006197+1011336473+1011835410
1368+1013277100+1014571356+1012832391+1010953128+1012036180+1012918639
1356+1012134290+1011350565+1011476860+1011355649+1010453835+1009806216
1344+1010397466+1010543205+1007539149+1003528747+1002121574+1003334845
1333+1005361898+1006105130+1005859764+1005234711+1004327724+1004803203
1321+1007137164+1009628904+1011755405+1014463167+1017420575+1019963155
1310+1023815599+1030986855+1038183263+1040579479+1040653419+1042457761
1298+1044687011+1045697906+1046765260+1048768588+1051544046+1054528033
1287+1056607977+1058426411+1060718987+1062624828+1063721169+1063589255
1275+1063138482+1063904368+1064582401+1063657576+1061586373+1059085803
1263+1057219919+1056238189+1055251375+1055432166+1057383050+1058475823
1252+1058126014+1058495802+1059426246+1059851511+1061020275+1062887586
1240+1063786457+1064174261+1064277456+1063875559+1064175956+1064881014
1229+1064704772+1064190584+1064411511+1065049764+1065346950+1065866044
1217+1067116686+1068367149+1069341030+1070068564+1070242755+1070015941
1205+1069427992+1068479530+1068418434+1070343452+1072379068+1072210674
1194+1070931491+1070300997+1070767111+1071756779+1071834465+1071452904
1182+1072300133+1073741823+1073717028+1072005266+1070343809+1069579974
1171+1069393385+1070060359+1071059035+1070685590+1069166037+1067537045
1159+1065290046+1062692792+1060915832+1059902261+1059324212+1058871833
1148+1057336224+1054428139+1051466717+1049236307+1047475402+1046226454
1136+1045233486+1042348769+1037539301+1034302188+1032624498+1029423151
1124+1024691993+1019992855+1016092069+1013265505+1010248160+1005629115
1113+1000345060+995317162+989556201+983667874+980227851+978692331+976117911
1099+972844140+971133806+969951039+966913180+963255441+961116809+959617769
1086+957907524+956371737+953960626+950456831+947762984+945769645+943297438
1072+941379555+940942606+940445364+938347493+935570430+933148705+930730994
1059+928031438+925943645+925668311+926504838+927069152+926804967+925786579
1045+924895914+924465387+924111119+923480892+922311950+920896839+920100984
1032+919727629+918347214+916840236+916868509+917480719+917902862+918386547
1018+919116846+920495567+921685559+921537412+921346453+922283052+923076677
1005+923032170+922947617+923618871+925068856+926078859+925757503+925027739
991+925017125+924980111+924126995+923533783+923607366+923219026+921795978
978+919653333+917488568+916053657+914933234+912995640+910292695+907403518
964+904799753+903327471+903103065+902901760+901756632+900336348+900510717
951+903526279+907115787+907566827+905974137+905714946+906651991+907593228
937+909097530+911810733+915831749+919810309+921701881+922688873+924690863
924+927282765+930296275+933414763+935152747+935089153+934533669+934993272
910+936477774+936936307+935554821+934069517+933143799+933091355+934060598
897+934512709+933752798+932366318+931329557+931052975+931120136+931611313
883+932104720+931519981+929841488+928770388+929869672+932265978+933951606
870+934693500+936419354+940847350+947344587+953401842+957587773+960543576
856+963273992+966075673+968191917+969225378+969660721+970543894+972824786
843+975593555+978015904+980463673+982679901+983343752+981975734+980615922
829+980562318+982763562+988165172+992771818+995004725+999383042+1005157560
816+1008566634+1010319959+1011745059+1013135374+1014912781+1017647924
804+1021491717+1024077286+1023217749+1021187842+1021464067+1022745391
793+1021148776+1019228217+1022729604+1030311944+1037333358+1041107046
781+1041228703+1041421357+1043979634+1047525081+1050837025+1052239114
770+1051734915+1050876983+1050517899+1052314213+1055623393+1057460111
758+1057199405+1056425134+1057285118+1058252666+1055529207+1052827510
746+1055411563+1058543876+1057330784+1055719452+1055873753+1055684400
735+1054913608+1052327057+1047611151+1044608522+1044236951+1043985074
723+1043209466+1042409865+1041997444+1041458817+1040403683+1039826169
712+1038048495+1033227165+1028511169+1027884600+1031785207+1036599313
700+1039414015+1040868816+1041877125+1041992895+1040479050+1038904911
689+1038219029+1036695640+1035382742+1035952943+1035804618+1033506423
677+1031622344+1031685134+1035272323+1039663127+1033881740+1021626039
665+1024567571+1034950164+1037510849+1033431234+1032158295+1033438905
654+1032869239+1029742902+1026919459+1024044196+1016392198+1007418562
642+1003673951+1003998697+1006964846+1015640672+1031200022+1044503098
631+1042047659+1025389916+1017736313+1023687787+1018679244+994876379+975894040
617+971710964+970430354+970060209+975928736+983012138+985574875+985070676
604+986691284+992148906+997690010
##END=
