##TITLE=Sample description
##JCAMP-DX=4.24
##DATA TYPE=INFRARED SPECTRUM
##DATE=24/8/2023
##SAMPLING PROCEDURE=Instrument type and / or accessory
##ORIGIN=Default
##XUNITS=1/CM
##YUNITS=ABSORBANCE
##RESOLUTION=4
##FIRSTX=4397.6552
##LASTX=599.8556
##DELTAX=-1.9287962
##MAXY=1.526441
##MINY=0.58867097
##XFACTOR=1
##YFACTOR=1.4216089e-009
##NPOINTS=1970
##FIRSTY=0.8348763
##XYDATA=(X++(Y..Y))
4398+587275638+587387543+586793471+585057878+583763447+583991785+585082909
4384+585743436+585717944+585258208+584493281+583771623+583035836+582262439
4371+581835574+581189931+580165053+580736107+582971896+584052035+583129586
4357+582057120+582746996+584262260+584168468+582966739+582121059+581670170
4344+581182846+580842729+581481370+581898592+580909016+580123167+579954283
4330+579659826+579787537+580135368+580145976+580189455+580156710+579900071
4317+579715380+579320883+578838087+579492073+581317475+582242440+581026078
4303+579226336+578993093+580271717+580964906+579778690+578658553+579680580
4290+580885998+580096585+578321748+577061279+577200269+578429796+579156611
4276+579045628+578969362+578788235+578283594+577599042+576138537+574542269
4263+574271626+575249671+576783383+577691283+577149495+576084576+575377299
4249+575311934+576228723+577354269+577222994+576382094+576475131+577157377
4236+577279009+576682799+575280488+573796000+573926437+575331095+576041055
4222+575628990+574959784+574693963+574578369+573901448+573139917+573107758
4209+573172327+572916778+573321254+574322527+574472460+573495840+572470794
4195+572700767+574618200+576352451+575666180+573620533+572641817+572513435
4182+572119567+572154115+573039081+573500368+572633431+571314431+571080685
4168+571765195+571853033+571200304+570404686+569727556+569608565+570012160
4155+570901570+572201326+573262429+573753359+573206540+571609476+570455838
4141+570601033+570866099+570203056+569252558+568686200+568697353+569375364
4128+570106833+570542083+570475795+569623366+569071305+569338803+569448318
4114+569356077+569418885+569514186+569397334+568598236+567586523+567726393
4101+569282620+570878468+571502393+571534509+570899348+569832794+569513096
4087+569230462+568350528+568484528+569267274+568834288+567928317+567543338
4074+567039326+566600554+566908386+567408540+567623210+567610631+566981047
4060+565907616+564887350+564044270+564040119+565036528+566502443+568112505
4047+568650016+567777335+567667108+568752026+568903678+567617885+566081825
4033+564806053+563861843+563924818+565161263+566180229+565977342+565242267
4020+565053174+565614123+566031219+565671857+565201472+565114682+564973386
4006+564909069+565081433+564847267+564267283+563690737+563341564+563729310
3993+564069259+563481476+562869333+562854029+563422106+564658300+565421759
3979+564620523+563142869+562046714+561594818+561988267+562665020+562842248
3966+562900443+562754409+562030236+562191993+563354351+563434475+562469511
3952+561833344+561689407+561902608+562408968+562242767+561269376+561566139
3939+562920527+563139598+562105245+560564741+559318024+559378232+560189279
3925+560342147+559668958+559157441+558880174+558577163+558903821+560254057
3912+561686094+562168933+561658967+559801617+556875029+555406598+555152224
3898+555241697+556959135+558893800+558113109+556776163+558100446+558549826
3885+557455390+557823850+556647865+554956296+555794303+556233201+556139199
3871+556139702+555454228+556113707+556334246+555417164+556463970+558376120
3858+559414918+557635763+549220727+545815703+552083040+557872276+559776041
3844+558187530+555464291+553024230+549940330+548667366+550429206+552328065
3831+554027222+556163475+557404951+557553878+555353057+550755989+551096651
3817+553133703+552942178+555283331+558965413+559780904+556564890+554387674
3804+554354677+551467375+550025191+552395107+554603853+556682078+558380187
3790+558842020+559201297+559783001+559680069+558936860+557427341+556621744
3777+558217844+560065173+560346046+558750869+557167935+557624359+558645170
3763+558996816+557381640+553837500+553067458+555422573+556056518+551955622
3750+549158590+552095115+552880880+549220433+549682433+552936853+553742282
3736+550738422+547376667+548478608+553151271+557121227+557618195+556083561
3723+554983381+554379540+554897933+556639689+557649557+554338954+548241298
3709+548864971+553956532+557288686+557504194+556520656+557419794+559483805
3696+560625075+560093558+557004082+552120607+551817051+555793171+558312977
3682+558084724+556616922+554183151+548304776+544856651+547224680+546357743
3669+544811160+548271151+551171031+551165119+550272522+548759649+545122933
3655+542589207+543323820+541346766+533877952+531101004+533716070+535894418
3642+536264513+535205799+533280106+530660219+528336340+526819986+521622222
3628+512974236+511991831+514743497+514863326+510752367+504935081+502419509
3615+501362766+499152008+496780709+494015878+491875600+492309299+492837293
3601+490888666+488080607+485930015+483081873+480500601+480082751+479051961
3588+474955299+472590415+473311612+473738770+473590304+472813176+470590427
3574+468248938+467473655+467237351+463830818+457144163+454433125+455790363
3561+457085129+457428139+457570399+457066849+455223460+453619981+453105236
3547+452058178+450478053+449956851+450350006+450222294+449199764+448437730
3534+448101261+446888254+444286311+442044191+441903398+442588327+442712559
3520+442551138+441840926+440453710+439027626+437634834+436219735+435439756
3507+435509188+435150288+433727685+432620712+432343613+432246928+432037038
3493+431466236+430653134+429841039+428589961+426982247+425883325+425621278
3480+426077743+426523056+426146840+425554529+425385519+425151227+424733293
3466+424232175+422998245+421104711+420079833+420181088+420175093+419958117
3453+419881641+419479556+418346756+417002977+416422154+416555693+416821262
3439+417100710+417288671+416877236+415802338+415199168+415458112+415542387
3426+415158791+414567738+414087835+414473527+415299961+415397275+415040136
3412+414895192+414741654+414577256+414697043+414849743+414947686+415145626
3399+415156192+415052631+415142314+415257992+415462850+415991599+416683404
3385+417383218+418250868+419128412+419679970+420232575+420919559+421237454
3372+421292966+421611951+422327655+423619193+425291098+426755838+427980963
3358+428996114+429959107+431047254+431806856+432135694+432571909+433507439
3345+434841743+436349962+437733615+438423450+438511372+438785662+439360909
3331+439470675+439212988+439695617+440651859+441049920+440888625+440291366
3318+439578807+439629623+440473667+441120778+441122664+440980865+441084343
3304+441576069+442314331+442858383+443434342+443823682+443086385+441985157
3291+442182762+443493586+444520938+445346157+446713542+447889904+448204403
3277+448197401+448671141+449834254+451132501+452057633+452576193+452980711
3264+453392985+453346655+452779207+452731829+453570800+454309271+454448344
3250+454599410+455352639+456056561+456128719+456397307+457162821+457780792
3237+457845863+457755845+458232561+458802399+458503372+457674086+457297199
3223+457635261+458332978+458690243+458359854+458063887+458518088+459649253
3210+460837397+461484047+461500314+461129088+460580381+459943165+459863335
3196+460972069+462537100+463373639+463423869+463726879+464681613+465604565
3183+466173061+466584958+466885872+466882183+466661014+466722229+467290222
3169+468356273+469606805+470387749+470952681+471875717+472418344+472074622
3156+471943892+472780599+473982579+474939031+475574067+475695405+475009176
3142+474113854+474026854+474526883+474688849+474356363+474245088+474630402
3129+474854463+475005109+475648698+476276060+476255851+476186880+476806612
3115+477384249+477326514+477266600+477252051+476960654+476631145+476471107
3102+476639489+477232638+477632041+477108784+476290987+476395722+477180606
3088+477648728+477885032+478293784+478728950+479162104+479637815+480106146
3075+480513766+480599047+480178639+479613790+479477610+479850136+480249077
3061+480177130+479960238+480366391+480966417+480820970+480251845+479888835
3047+479673873+479728085+480414440+481258610+481383428+480900255+480349578
3034+480070088+480481859+481166872+481381039+481384728+481417432+481276261
3020+481110186+481388250+482208689+483057346+483643661+484223562+484624432
3007+484451438+484180167+484265322+484534874+485026391+485782430+486653350
2993+487557141+488434937+489163932+489882865+491061743+492355335+493046134
2980+493382268+493749553+494096462+494285178+494112856+493679325+493385790
2966+493170995+492761194+492479944+492690462+492940225+492772389+492644971
2953+493034311+493848293+494532216+494474733+494125728+494067574+494085352
2939+494149710+494161702+493858146+493577357+493707332+494012607+494175580
2926+494324087+494413142+493938395+493062109+492579774+492517176+492582457
2912+492847314+493146844+493311284+493533710+494035667+494576198+494859461
2899+495058281+495117902+494950947+494873884+494909397+494883108+494999038
2885+495205741+495008136+494749359+495103773+495718935+496084921+496316612
2872+496541638+496482478+495943331+495469256+495789289+496409398+496365961
2858+496039848+495946643+495762204+495424854+495109056+494947635+495157776
2845+495586946+495682793+495450095+495460702+495917504+496682934+497460355
2831+498107340+498954906+499870731+500133281+499936180+500143512+500545933
2818+500612682+500769868+501267716+501772776+502188321+502543615+502868386
2804+503164102+503274665+503423466+503851379+504322268+504884894+505500685
2791+505733676+505700847+505904238+506401792+506807232+506940520+507006263
2777+507135274+507215859+507259883+507561971+508125059+508690410+509163731
2764+509455840+509529214+509495504+509648707+510215485+510851442+511091646
2750+511113196+511340234+511745339+512219372+512705984+512928326+513050293
2737+513558665+514250974+514410508+513938236+513767381+514504929+515612027
2723+516473346+516919204+517017566+517213578+517934397+518765108+519051306
2710+518967535+518829551+518671065+518707332+519145895+519898747+520480115
2696+520685518+520986223+521468013+521869260+522364215+523004617+523349514
2683+523199119+523032247+523341799+523812730+523896752+523814113+523967736
2669+524227268+524443446+524694299+524961713+525244012+525652512+526072920
2656+526355303+526591900+526917678+527373011+527723358+527824613+527805159
2642+527608435+527527431+528093956+528877499+529279543+529700790+530461733
2629+531166830+531544052+531682078+531716417+531761279+532033599+532573501
2615+533038729+533404841+533918873+534464729+534979977+535579038+536146990
2602+536660393+537251866+537759567+537993481+538122953+538386091+538805493
2588+539336506+539947097+540492408+540883005+541085012+541016796+540769381
2575+540657938+541037886+541736399+542214751+542475457+542699979+542890163
2561+543123658+543502180+544163001+544831285+545015557+544929857+545096686
2548+545563131+545907398+545973434+546196028+546673499+547116506+547601399
2534+548211152+548659987+548766483+548788160+549086307+549695305+550355246
2521+550773473+550892086+550938752+551056065+551243398+551670724+552318421
2507+552781050+552919537+552946161+553069638+553428203+553980138+554429182
2494+554513289+554471361+554634208+554744017+554471278+553973681+553720187
2480+553957161+554328095+554642636+555148576+555514855+555391253+555387689
2467+555669191+555496365+554980656+554822463+554957302+555115118+555183124
2453+554864307+554274847+554008271+554123404+554177742+554022988+553838129
2440+553688615+553388665+552938782+552533258+552146770+551731561+551290860
2426+550740183+550131688+549806581+549875678+549947961+549894000+549817273
2413+549607383+549297245+549031759+548709545+548061638+547285433+546931732
2399+546950892+546968167+546836053+546358623+545534117+544837909+544391171
2386+543637438+542259153+540366415+538130836+535728426+533104807+529966946
2372+526250652+522410042+518762341+515221304+512023570+509389721+507566751
2359+506969911+507764355+510237748+514324976+519027407+522306229+522113907
2345+518388011+514158775+512210651+512326791+513220268+513956977+514115715
2332+513936894+514227872+515121181+515893739+516565754+517840521+519740763
2318+521657777+523073169+524060270+525076260+526133087+526965056+527696105
2305+528568032+529486372+530234696+530658206+530758287+530839501+531094631
2291+531353366+531483928+531661366+532065254+532502978+532778317+533086694
2278+533477585+533559680+533279981+533155875+533436706+533827681+534033252
2264+534153668+534496384+535053392+535463989+535615515+535780123+536066656
2251+536420148+536970238+537669674+538129452+538304751+538582564+539078022
2237+539555242+539927349+540405911+541117590+541790737+542143349+542345440
2224+542692349+543203320+543762257+544277589+544709150+545093793+545562334
2210+546129447+546650691+547240403+547958203+548509760+548923670+549412755
2197+549911735+550532977+551393289+552121445+552561895+553067080+553726182
2183+554408931+555231760+556196430+556965802+557535388+558253356+559008137
2170+559538353+559881531+560136702+560681509+561759300+562856294+563474181
2156+563762726+564124981+564732679+565338994+565636261+565726992+565824809
2143+565914241+566009920+566096835+565916337+565447545+565102271+564965294
2129+564640313+564006074+563329950+562703761+561858752+560680167+559491185
2116+558484042+557509519+556502795+555427311+554113551+552630363+551233461
2102+549944397+548723130+547628736+546685407+545755579+544494103+542820773
2089+541216204+540067178+539213700+538337455+537308594+536095670+534674744
2075+533271218+532170451+531185026+530061828+528834188+527578247+526448676
2062+525390549+524183370+523019250+522098729+521204707+520166748+519104261
2048+518188185+517392021+516595984+515742716+514753392+513674343+512630221
2035+511623329+510696184+509859980+509017739+508173233+507306967+506374246
2021+505537245+504751690+503745428+502637533+501709172+501106169+500733098
2008+500127915+499184041+498290228+497522827+496721298+496012176+495398272
1994+494436914+493135063+492242382+491924445+491647472+491260941+490818269
1981+490109442+489097980+488119809+487394210+486922651+486553604+485869094
1967+484855201+484250186+484210942+484030737+483457335+482834836+482328476
1954+481828699+481188968+480446892+479831898+479311618+478441117+477436994
1940+477223037+477458964+477327017+476867533+476326373+475794312+475333109
1927+474856182+473887823+472562827+471866954+471485874+471027061+471125087
1913+471247935+470599148+469651416+469200150+469255662+469387273+469295325
1900+468978898+468466207+467730671+467211692+466934215+466231131+465626283
1886+465780451+466038515+466161573+466305888+466264757+465985225+465710977
1873+465337234+463965783+461585176+460865237+462396098+463811741+464155673
1859+463968298+463808638+463718494+463532210+463269617+462854618+462043990
1846+460576901+459262429+459796587+460971230+461273277+461189421+461179443
1832+460235065+457966279+456748534+457180892+457453211+457899531+458733848
1819+459042770+458728858+458190215+457272461+456052117+455616280+456054339
1805+456252153+455501440+453811464+452514979+452518920+452492087+451052796
1792+449428773+450258226+451997635+452444373+451726195+450848777+450319776
1778+450197138+449605875+447385557+444196670+443785486+445998215+447917954
1765+448665439+447969986+447033240+447228245+447530585+447869905+447817537
1751+445538227+442382379+442169345+443718528+444611250+444400857+443789260
1738+443770099+443002656+440161349+439763288+442419275+444939208+446272463
1724+446281855+445782833+444533558+440498698+436157347+437767702+441787259
1711+444235495+444192477+441846377+439405268+438744154+437021684+433501402
1697+433003973+435803310+439505811+441653803+441586677+440264113+436868313
1684+432400215+434112706+438186559+440258285+439587989+437740072+436533396
1670+435197918+435513633+437820447+438555312+437588713+438092599+439435624
1657+439098232+435114943+428319822+428606397+430411715+429879696+432086890
1643+436582744+439160663+439172277+436785674+435185214+439966343+446021652
1630+449604324+451624437+453795951+456525060+460775889+465424150+468107517
1616+470627281+476062649+481661744+485385753+488159976+491665878+495617386
1603+499245381+502847255+506562082+509861783+512761831+515879400+519208157
1589+522470795+525845673+529474800+533030511+536186569+538467011+539269422
1576+541249201+546855926+551579867+554127681+557754292+562909877+567528453
1562+570650927+570614282+569914469+577098427+586074538+593862421+600382120
1549+606449714+611247531+613129829+612028474+611783575+621830140+634545312
1535+642718426+649703606+657828000+664639808+669533849+673772351+677392003
1522+681642329+688603190+696621969+705665583+714758589+720856706+722917028
1508+721835380+725613391+738096075+748390306+754901410+759150772+764797748
1495+773081132+779702254+782668715+785027310+792127413+801782332+810153847
1481+816852871+822606343+826211697+826073839+824864228+829722630+839859213
1468+848730422+854716089+860192420+865614832+867963197+866448017+869937399
1454+881642913+892130934+898577301+902555056+908407310+916385293+923188381
1441+928422370+932852021+936397837+941336740+948113749+953601736+958355906
1427+964174199+969393513+973607153+976383179+976382173+978478469+985620499
1414+991794254+994194105+995100748+995455455+994354353+994352592+996363188
1400+996287383+993511440+991015407+990414668+993283019+996857933+995849407
1387+990807027+989983401+994815221+999689975+1001714826+1001034509+999266757
1373+1000551335+1005051592+1007719528+1007457900+1006265815+1003896654
1362+1001981821+1002955380+1004529929+1004875244+1004508378+1003798879
1350+1002530821+1001626275+1001476593+1000678963+998215884+995257389+995568073
1337+999393630+1001967649+1001100083+998879850+998251523+999177032+1000253481
1323+1002187518+1005404370+1008033818+1009506650+1012091403+1016600967
1312+1020532685+1022731452+1025576324+1029910295+1034008131+1037018868
1300+1039322957+1041538411+1043508253+1044975300+1046870092+1049730644
1288+1052811735+1055685201+1058562189+1060863427+1061622903+1060974535
1277+1060162649+1060110826+1060654879+1061633804+1062329551+1060972271
1265+1058014027+1056064394+1055134943+1054235680+1054710133+1056337343
1254+1057545193+1058166057+1058130502+1058466426+1060199880+1061677325
1242+1061734850+1061685459+1062347999+1062510510+1061262829+1059682578
1231+1059003518+1059179866+1059373823+1058921592+1058249744+1058240101
1219+1059171480+1060648086+1061846545+1062585812+1063049699+1063072256
1207+1063539162+1065381712+1067697541+1069501601+1070532098+1070476334
1196+1069900165+1069363660+1068626489+1068368047+1068682839+1068438066
1184+1067739385+1067605719+1069066896+1072030506+1073741823+1071594292
1173+1067737456+1065925681+1065326032+1063951478+1062508582+1060745359
1161+1058180144+1057239960+1059152445+1060829801+1059752429+1057695042
1150+1056769113+1056477884+1056400486+1056458346+1055592541+1053696240
1138+1050788980+1046605864+1043116062+1041855719+1041354349+1039963275
1126+1037259364+1033607974+1030086894+1026792308+1023162804+1019812789
1115+1016936052+1013445161+1008979117+1004804470+1001879350+999849719+998684719
1101+998165236+997513429+996657100+995162801+992317845+988554592+985651609
1088+985292122+985957429+984369631+980634218+977989677+977553881+976847234
1074+974734167+972701517+971548843+970695952+968675377+965086040+961213859
1061+958153480+956044270+953905376+951205490+948668451+946989503+945916743
1047+944599881+943108265+941867041+940845265+939386939+936524710+933312050
1034+931314116+930341899+930103751+930233558+929743006+928363168+926859645
1020+925867554+925413646+924854835+923266534+921152041+920302420+921426248
1007+922840717+922463117+920895947+919967335+919875681+919923982+919781260
993+919608938+919881216+920332524+919886583+918751267+918153212+918020218
980+917598929+916875510+915770802+913561972+910586958+908334691+906685931
966+904645063+902688470+901385360+900459599+899358580+897458841+895567571
953+895063769+895095215+894935890+895868108+898087168+900577583+902870016
939+904779902+906361495+907476769+908352972+910749134+915528125+920786684
926+924837141+927858947+929711141+930139389+930851907+933429112+935906194
912+936328573+936549783+937488374+937905470+937265487+935428220+934466485
899+935829215+935912483+932739822+929874574+929624267+930032138+929636006
885+929351150+928853554+927595726+927352629+928751586+930054108+930945908
872+932336563+933616780+934182970+934710922+935856887+938644402+943890299
858+949316568+951814195+953097599+956522915+961124134+964501905+967094623
845+970361538+973699729+974866658+973891590+974890053+980187018+985958771
831+987793187+986461064+986089585+988766997+993740533+999540796+1003144138
818+1004603721+1007475174+1010882127+1013900411+1017813094+1018832018
806+1015176100+1012972469+1014945163+1017108710+1017670037+1019287687
795+1021284280+1020966804+1022663697+1028208370+1031770874+1033738285
783+1036750531+1038516186+1039417881+1040290813+1042176465+1048112071
772+1054375215+1054770257+1050798875+1046781876+1045542580+1046198999
760+1045478599+1045255460+1047800717+1049681756+1048845720+1047700342
748+1049064079+1051889160+1051267206+1046731814+1042995143+1041902007
737+1042171601+1043467667+1045426776+1046011750+1044522566+1043855162
725+1047727595+1053100616+1051068805+1043133504+1038775047+1037037651
714+1033091174+1031790832+1036502990+1041390406+1042896446+1041617235
702+1038304032+1034528452+1030992614+1028890868+1030162364+1035706031
691+1041788802+1042981475+1040466825+1037093750+1035671818+1038498157
679+1041252045+1040625312+1040187504+1041026307+1036324127+1024122778
667+1021267173+1034144982+1046332748+1050291467+1045625094+1041415815
656+1043071955+1044618747+1046448552+1054627284+1065072789+1067886215
644+1060462431+1047044846+1038117958+1044744782+1057798184+1061739630
633+1057696132+1043882834+1020978376+1007565990+1013428641+1030882009
621+1052013014+1063772112+1053326270+1035879611+1018641499+998864169+990168218
608+996613747+1011172853+1030450323+1044519547+1049986318
##END=
