##TITLE=Sample description
##JCAMP-DX=4.24
##DATA TYPE=INFRARED SPECTRUM
##DATE=24/8/2023
##SAMPLING PROCEDURE=Instrument type and / or accessory
##ORIGIN=Default
##XUNITS=1/CM
##YUNITS=ABSORBANCE
##RESOLUTION=4
##FIRSTX=4397.6552
##LASTX=599.8556
##DELTAX=-1.9287962
##MAXY=1.4311236
##MINY=0.60183001
##XFACTOR=1
##YFACTOR=1.3328377e-009
##NPOINTS=1970
##FIRSTY=0.73162919
##XYDATA=(X++(Y..Y))
4398+548925932+547883506+547458307+547761241+547791874+547260421+547230771
4384+548474437+549696325+549921267+550118483+550057574+549269337+548744770
4371+548878349+550032575+551125535+549799986+547161947+545776831+545932189
4357+546341378+546023463+545439463+544928133+544285639+543984718+544228353
4344+544633830+545228160+545575278+545164300+544842539+544738296+543658753
4330+541978395+541742630+543167637+543900063+543343208+543354432+544242797
4317+544565498+543464131+541867444+541779033+543281762+544276293+543738757
4303+542735327+542900255+544190028+544253441+542810099+542474922+542718602
4290+541842490+541326465+541561648+541887211+542436105+542518211+541992705
4276+541165428+540183061+539576210+539448578+539582694+539529119+538670985
4263+537484606+537394942+538483742+539732954+540218614+539102355+537547840
4249+537438275+538151338+538237558+537886639+537876398+538153261+538255535
4236+537850327+537407776+537085702+536211066+535865872+537298793+539050122
4222+539507385+539320724+539281102+538764003+537599000+536706342+536613905
4209+536446652+535553547+535295109+535793917+534760838+532629254+532257764
4195+533544496+534276027+533934276+533721319+534160336+534459111+534458933
4182+534514922+534576233+534491399+533720783+532383115+531471003+531289574
4168+531630252+532006124+531942890+531961538+532372292+532542810+532242470
4155+531879477+531953578+532159112+531566526+530216470+528979825+528374002
4141+528427040+529245463+530401880+530530942+529490931+528714546+528603148
4128+528556907+528613612+528856398+529269880+529819535+529621559+528309605
4114+527189053+527368336+527839373+527255328+526639220+526899446+526555548
4101+525091814+524620822+526076551+527351611+526945731+525642990+524522259
4087+524434563+525399176+526126593+525846064+525103173+524742416+524958370
4074+524841382+523680448+522517815+522488791+522944579+523038580+523028160
4060+523194385+522681311+520832940+519579882+520295046+521303127+521695054
4047+521713702+521203714+520571909+520088618+519877182+520285789+520635501
4033+520146352+519504663+519313887+519167697+519001562+519187911+519629701
4020+519944262+520024400+519623172+518711999+518249102+518469572+518463356
4006+518301245+518293061+517743451+517288916+518434779+519806971+519523490
3993+518897454+518587275+517451787+516342370+516186431+516163266+516170600
3979+516893725+518153266+518532269+517522802+516507790+515815657+514945717
3966+514900505+516316299+517557908+517334262+516273233+515274767+515234340
3952+516444287+517415385+516519909+515423104+515340059+514321782+513097301
3939+513562882+515042402+516919886+517737638+516390668+515444346+515952948
3925+515888282+514955153+514961637+515637179+514696089+512199634+510844659
3912+511124071+512541966+514628830+515145213+513161653+511604096+510726151
3898+509655194+510108969+511446234+510327740+508017454+508946470+510219249
3885+509219620+508569837+507092732+506157992+508953670+511834092+512186263
3871+510347014+507490696+507615152+508526816+506709615+505589376+507806912
3858+512094363+514311586+506679786+498163111+499995785+504594130+507742247
3844+508864230+508778546+506871904+502803000+501367127+502922493+503203648
3831+502623270+503090595+503777228+505090076+506213624+504065225+502750857
3817+502123121+499518264+500316563+503939473+506036175+504469227+502861986
3804+503512977+501514793+499351234+500621285+501444538+501703646+502601671
3790+503526080+504740767+505725594+505114583+503671331+501423206+499172667
3777+499555784+501215481+502050361+501334124+500520397+501318204+502309514
3763+503621691+505218289+504953233+503849898+504794879+506899765+506378775
3750+505117132+508945128+512072763+509996587+511072777+516703038+522381597
3736+524225318+520503934+518225132+521145533+525498767+527371377+525872270
3723+522842840+519471436+517053733+517332205+520235211+522836132+524018398
3709+527800735+533987896+540814644+547620462+554013380+560847373+568394204
3696+575979941+582586487+585801505+583588933+581717665+583682085+585301355
3682+585410696+585229222+585242325+580728546+572564443+571111979+570877914
3669+568390179+569126093+571634667+573287522+574893377+577593622+581064036
3655+586601145+594896412+602330593+602947149+599452273+599148579+600509143
3642+600903977+599390022+597378333+595869834+595210347+596032034+594350066
3628+586714064+583157921+584326412+585063176+582855210+577602208+573824566
3615+572912410+573366364+574553683+573896923+571127720+570304468+570546269
3601+568805271+566752126+566925372+567123079+565762962+565748562+566453306
3588+563147328+558655238+557893073+558316886+557706054+556166430+554805731
3574+554521311+555787516+559397189+563051135+560753371+556261997+555375108
3561+555328956+554153086+553739022+554517197+554773801+555491559+558876960
3547+562106736+560967938+558233706+558044048+559974257+561717358+561816323
3534+561473723+561797765+562107138+562852086+564543042+564963277+563554907
3520+562774541+563083512+563433224+563660715+564242076+565452470+566535234
3507+567146066+568059921+568460881+566806148+565024275+565134019+565801511
3493+566031059+566442216+566900821+567020089+568026739+570996914+573075191
3480+571421218+568828078+568069849+567950044+567911853+569262221+571151198
3466+571672948+571410485+571644461+571341527+569777576+569329435+571265235
3453+572979177+572485512+571090647+570520376+571199720+572676199+574398236
3439+576264942+577376058+576707180+575227794+574441614+574769502+575476169
3426+575684565+575386192+574811807+574522066+575040730+575789612+576078281
3412+575938486+575608630+575648789+576471460+577149864+576990660+576910656
3399+577525915+578190545+578058532+577101298+576229032+576364981+577343055
3385+577872720+577388669+576971207+576826180+576275765+576319367+577630203
3372+578857367+579020506+578399880+577801928+577332054+576505626+576090981
3358+576655170+577129158+577425250+578175385+578207002+577022143+575815237
3345+574815430+574288403+574482444+574273869+573869197+574467328+575176410
3331+574945520+574136757+572806692+571509809+571622906+572560463+572786031
3318+572698290+572914825+572975287+572312848+570645101+568977399+568469423
3304+568509537+568394964+568271313+567955052+567289751+566799977+566658885
3291+566010220+564574838+563543593+563306979+563106722+562844081+562441510
3277+561563789+560532543+559997601+560189003+560446010+559844390+558671695
3264+557432546+556007629+555870830+557510716+558219440+557101259+555752769
3250+554990738+554894814+555277439+555097798+553889193+552874001+552550988
3237+552393573+552154052+551871779+551284873+550036645+548840382+548438751
3223+548342155+547498555+546589127+546847296+547384653+547636025+547692014
3210+547302010+546499911+545509718+545109249+545335623+544914180+543774757
3196+543439177+543972867+543799040+542584129+542241349+543862676+545450464
3183+545051158+543069789+541844056+542882859+544076349+542939519+541156216
3169+542153295+544786862+545113587+542928116+542269031+544613393+545444561
3156+542446346+540198177+543298622+547808555+546081643+540481881+540532996
3142+548049775+551832381+545695128+539710951+542560427+549373982+548811851
3129+541084037+538040968+545177358+552219836+547755919+538887654+538907107
3115+548432490+552762783+544022819+535658192+539255477+548322121+546830750
3102+535211930+529889879+537722427+547541218+543625570+531810966+528876388
3088+538239526+546303634+539781967+528245119+526179094+533317541+537152425
3075+530713355+523901097+525967076+534304022+536869480+529495403+522904778
3061+524372313+530965666+532235538+525346227+519629566+520013265+523448216
3047+523675037+520013220+517366237+517315390+518300440+518210329+516449609
3034+514855159+515134614+516763768+517369636+516597499+517066836+524512913
3020+553795370+610373638+654248982+642168337+602824169+571679701+552862151
3007+541044684+532872934+527533309+524947324+523555008+521113961+518348559
2993+517613316+520703743+524725020+523281500+518140924+516181110+520312666
2980+527351253+528455437+522509765+518288589+520371741+526560557+529342282
2966+524612996+518749341+519053795+528098973+536924710+532633324+522106121
2953+518062976+523090724+532283031+533571104+525258620+519093059+521513803
2939+530351212+534638663+527750961+519615569+518974998+525915514+533334222
2926+530616715+521189583+516364104+519402254+526265538+527419675+520395219
2912+514371645+514723816+519732199+523662381+521349010+515765123+513315982
2899+516752812+522773524+523696189+518470600+513679959+512992387+515783503
2885+518347083+516876776+513622717+513004551+515348913+517622618+516825213
2872+513766358+511909937+512808901+515372838+517233687+516742839+515082784
2858+514396151+515054655+515904069+515377400+513269294+511240745+510741177
2845+511337207+511475392+510778653+510259720+510502327+511148219+511598551
2831+511547615+511258946+511166957+511193610+511093750+510805753+510386368
2818+510158742+510382790+510857315+511010526+510727985+510729192+511069244
2804+511030784+510892018+511031142+510887591+510602142+510648830+510667255
2791+510585238+510700795+510849266+510741222+510513865+510578977+510996842
2777+511519039+512123341+512796290+513200246+513136565+512899593+512861536
2764+512974902+513063403+513197787+513302029+513270770+513286243+513391469
2750+513481759+513679869+514217986+514953811+515325167+515003540+514411669
2737+514213067+514314716+514305951+514525169+515320650+515921509+515672910
2723+515360272+515627341+516047575+516319966+516410524+516301228+516086303
2710+515802599+515701218+515955586+516109244+515903845+515789004+516205929
2696+516971672+517432244+517348126+517102746+516983701+517102702+517600839
2683+518253439+518612005+518631101+518434466+518263323+518378477+518579270
2669+518790930+519171588+519542496+519720527+519740025+519724954+520021941
2656+520725075+521275982+521433486+521412468+521335907+521421456+521634369
2642+521935335+522564100+523229490+523521423+523732726+524049031+524268830
2629+524640723+525168062+525375027+525458206+525758949+526125967+526414725
2615+526659657+526890681+527088746+527374731+527933867+528796473+529707242
2602+530344191+530762324+531139985+531443366+531634590+531744690+531871606
2588+532189745+532659172+533106015+533615154+534294765+534994143+535611727
2575+536321749+537106855+537478300+537254610+536986021+537298480+538210279
2561+539006654+539273410+539460295+539800123+540305639+541053091+541602791
2548+541686059+541593668+541600644+541889491+542283475+542477963+542762428
2534+543367133+543801142+543803243+543838036+544270524+544873753+545129105
2521+544838022+544534730+544778947+545279186+545664002+545930355+545938450
2507+545839350+546064784+546531841+546736391+546655000+546704684+546893537
2494+547138335+547513358+547856987+547917538+547623011+547282512+547216774
2480+547334030+547562416+547931893+548258663+548434994+548526134+548445504
2467+548213719+548051967+547930686+547779442+547865618+548256024+548521081
2453+548536643+548478462+548187513+547692149+547317260+547109580+546939912
2440+546591587+545973197+545525638+545607208+545801069+545644952+545145115
2426+544440997+543895814+543615195+543197152+542736088+542687074+542917875
2413+542866447+542361109+541781939+541363628+540980242+540506969+540005970
2399+539670927+539667573+540310558+542365850+547017099+555750712+569889555
2386+589605979+613457447+639009040+664241510+688356693+711341844+734011986
2372+757504308+781381535+804294776+825298021+840703740+847244503+848565356
2359+846527460+836141037+816613645+793099813+770771958+758198901+762724128
2345+778617028+785264582+777019268+766683020+758948499+754445989+756570910
2332+762725380+763541075+758643508+756242754+758029859+757726120+750193778
2318+737016462+724554891+719317943+720926391+721133356+713591176+698791146
2305+681352720+666904548+656788726+648059182+638901220+628862361+617416518
2291+605384305+594332581+584726970+576238155+569021359+563573779+559786075
2278+557010030+554540317+551991540+549594944+547673992+546183337+544899333
2264+543591538+542344384+541376462+540589522+539903248+539354800+538953393
2251+538726304+538580919+538353696+537953362+537565594+537462559+537553743
2237+537756996+538029296+538231834+538535796+538911043+539149490+539571290
2224+540196791+540573647+540861957+541506642+542362451+543115761+543833474
2210+544496763+545058269+545794138+546656744+547398561+548131255+548906926
2197+549632957+550351787+551112521+551889980+552759250+553764737+554696927
2183+555440757+556292004+557548192+558848071+559697127+560418954+561418314
2170+562541549+563604233+564447207+565046680+565730272+566576018+567208137
2156+567549754+567950401+568455649+568899586+569288248+569389629+569151941
2143+569052528+569090585+568933394+568487892+567631771+566562423+565547680
2129+564395600+563077251+561758366+560352277+558755903+557055734+555534624
2116+554215873+552467988+550097598+547901305+546316335+544923929+543330910
2102+541564466+539822260+538230537+536698873+535205401+533964954+532734928
2089+530994466+528958315+527250275+526114340+525343141+524506205+523391511
2075+522231069+521295301+520604018+520172692+520156056+520349113+520154804
2062+519660647+519404356+519465712+519795881+520419145+521317303+522263223
2048+523031291+523851234+524970578+526217822+527334259+528490140+529862734
2035+531219721+532480113+533636798+534522346+535115468+535535659+535852814
2021+536169521+536442225+536096136+534975539+533761478+532665522+531503917
2008+530257881+528802868+527128189+525416214+523623296+521693623+520080077
1994+519055181+517710001+515383392+512844051+510659652+508924020+507542840
1981+506098246+504510459+503114208+501988513+500861253+499863145+499288358
1967+498650739+497534212+496499075+495924154+495541752+495181845+494806151
1954+494369280+494084369+494090764+494235388+494656607+495492694+496021375
1940+495931354+495967174+496399305+497095105+497804232+498273301+498705387
1927+499541340+500845378+502047097+502698624+502921777+503027853+503419065
1913+503958300+504389267+504734149+504896349+504942947+505017003+504948269
1900+504766347+504815942+504890580+504625032+504338778+503993137+503424834
1886+503125969+503069756+503130620+503390086+503363299+502952187+502977498
1873+503966886+505195347+505260147+504723505+505373333+506761714+507748239
1859+507905788+507655624+507749536+508460407+509702508+511225004+512342470
1846+512339966+511192179+510006828+509230934+508468457+507952744+507793317
1832+506808044+503910136+501096392+500121225+499193551+497484304+495853496
1819+494547222+492783148+490488425+488383315+486054605+483493887+481409036
1805+480143770+479635839+478058203+474861342+472647920+471377153+469316183
1792+466749517+465100373+464561764+464293623+463251197+461659251+460275163
1778+459049832+457792571+456077466+453823081+453447163+454691366+454741050
1765+454150298+453883319+453741153+453935239+453807071+453621304+454611317
1751+455544626+454578448+453653502+454115729+454354892+453458567+452338373
1738+452316102+452793892+452237798+451682911+452000244+452173088+452382154
1724+452724218+452997547+453178798+452638713+451540343+451778880+452796978
1711+453613791+453885018+453513617+453572872+454685284+454755092+453144274
1697+452882527+453859483+455600213+457931875+460205489+461828427+462073672
1684+461889962+464202751+466696836+467819222+468116566+468765857+470248552
1670+471740549+473474660+476077594+478420973+480058936+482244139+485084894
1657+487391647+487705358+485910025+487933565+491586840+494073233+496693742
1643+500216479+503362494+505518226+506242200+506555688+509753355+513968180
1630+517194825+519731931+522445949+525785557+530124079+534248882+536921982
1616+539639667+544461568+549771634+554308757+558307539+562479344+566931901
1603+571430565+575768818+580086410+584673530+589688174+595041081+600501272
1589+606155593+612080918+618195095+624068858+629243198+633533645+636611282
1576+639577030+644078959+648485097+652514512+657806198+664091787+670325323
1562+675821871+679920067+685197129+694879836+705118549+714700906+723706372
1549+732793766+741314422+748350549+752227157+754020969+763318101+775876848
1535+784777491+791499817+798751898+806286520+812911625+817703027+820411455
1522+823688634+830903865+840264320+849149848+856850829+863950593+870009899
1508+871821689+870226970+876026184+884068111+889152072+890418993+891770881
1495+897105632+902974252+905620162+904979859+906214671+909695326+912624135
1481+914747356+916595996+917154729+914577509+909344273+907992653+912925996
1468+916825679+916037710+914885810+917154371+918565112+914894664+912474859
1454+918529962+925114819+928798593+930640435+933282052+937206688+941425851
1441+945312476+947717612+948586703+950934061+954545746+957284585+961487917
1427+967550353+971573732+973407435+974233237+973752317+976060142+981880732
1414+986313837+989070473+991877554+993909547+993249478+991574442+991919412
1400+992087650+990743810+990353404+990601779+990972062+991360501+988943647
1387+983264999+980604063+983778564+989885274+995177719+996297600+993469680
1373+991959661+994179388+996174531+996514940+996539804+995587892+994654673
1360+995950751+997992761+998847541+997973263+995856481+993466907+992177447
1346+992501579+993312891+992334326+988394127+984707938+984034184+984798093
1333+985509769+985711278+986016985+987342220+989687074+992103749+993037147
1319+992549787+992769989+994706101+997787048+1001616789+1007137665+1015294075
1306+1023290477+1027509283+1028700090+1029103286+1029823727+1032138887
1294+1035768371+1037855906+1038570533+1040478471+1042827797+1044736273
1283+1046878992+1049027077+1050833859+1051899360+1051745613+1050964889
1271+1051165951+1052361945+1052178772+1049641889+1047040253+1047174234
1260+1049395750+1050467959+1049707091+1049101760+1049787498+1051447508
1248+1053532896+1055568824+1057312372+1058653796+1059391767+1059556426
1236+1059276300+1058843677+1058763986+1058772036+1058591367+1059329874
1225+1060836942+1061464633+1061423223+1061522770+1062145363+1063158899
1213+1063699297+1064085232+1063994986+1062966782+1063505838+1066652166
1202+1069565949+1070609716+1071031785+1072070185+1073568488+1073741823
1190+1071880841+1070070928+1069236451+1068750165+1068248405+1067361695
1178+1067109652+1067844404+1067561325+1066425345+1066721303+1068221484
1167+1069067230+1068729236+1067840200+1067130045+1066455576+1064605953
1155+1061494328+1059008516+1057821644+1056928226+1056214940+1055428403
1144+1053568225+1050713025+1048059603+1046453793+1044831169+1041459183
1132+1036621720+1031654658+1027087841+1023334929+1020384386+1017079123
1121+1013738978+1011254061+1007711692+1001800946+995189615+989743243+985833990
1107+982343943+978362959+974507281+971368288+968233140+965056492+962363000
1094+959335002+956300563+954527232+952862571+950156736+947803564+946308213
1080+944430237+943024058+943444159+943939389+942261581+939218377+937624553
1067+938208061+938611794+937580727+936317116+934974618+933129645+931463732
1053+929936540+928687866+927782283+925804760+923589773+923570544+924801152
1040+924707150+923502480+923248380+924301360+925452903+926226471+926274053
1026+925326166+924801957+925662640+926926788+927497059+926649791+925162580
1013+925337614+927094488+928408544+929421991+930853839+932126752+932997721
999+933519873+934236826+935135968+934550224+932831631+931933114+931536000
986+931021182+930704206+929963820+928277872+926130680+923923475+921954180
972+920673307+919590544+917530646+915157440+913854206+913156841+912561438
959+912171478+911531086+910964393+911412757+912361181+912997101+913728275
945+914788767+916113913+917772403+919449407+921347239+924201276+927645350
932+930574339+932951659+935134984+936955629+938534965+940088183+942138242
918+944595433+945612637+945121521+945479997+946741730+947015149+946763554
905+947146984+946884924+945252819+943561952+942451194+941911422+942071788
891+941949434+940764172+940013769+940597366+940744764+939658513+939113732
878+939800633+940806209+942028231+943364557+944515563+946212244+949423058
864+954361231+960545128+967269958+973585332+978705784+981714105+981546494
851+979969753+979496793+979470766+979368625+979907681+980781423+982098698
837+983988570+985232952+985880230+986785097+986779820+985586509+985685519
824+988533922+993219247+997687412+999863134+1000639475+1003448524+1008318365
810+1011313539+1011508250+1011729167+1012181824+1011688919+1011900714
799+1012744582+1012801734+1015342194+1021979642+1027190250+1026732137
787+1024700771+1026975235+1031877722+1034313984+1034215778+1035062509
775+1038871767+1043044869+1044524657+1045393122+1047076834+1046836955
764+1044518486+1043321776+1044226285+1046475885+1048289911+1046973083
752+1043211585+1040210419+1039273533+1039152252+1038378594+1037124016
741+1035675174+1034586419+1035285483+1036837629+1036478437+1034797587
729+1034252359+1034617275+1034399220+1033683698+1033456073+1033952914
718+1034723173+1033909535+1030924826+1028840511+1029092106+1030071029
706+1029958871+1029089513+1028685064+1027177281+1024500604+1023482953
694+1024084796+1022601609+1018441298+1017287072+1020916466+1023553611
683+1022918406+1021743967+1020157923+1019909816+1025164876+1033382464
671+1037877371+1033677527+1026106771+1027788962+1030673678+1026139238
660+1018448542+1016683887+1022903022+1029007049+1028220601+1028265679
648+1034857870+1039508313+1039793270+1034106125+1016881371+999600270+1000869158
635+1029600216+1060546798+1050625106+1017933367+997919062+994403972+1001758820
621+1009441644+1004037667+990768496+989751382+1001589509+1008948292+1005589723
608+1005472020+1021908805+1042266292+1041269749+1020583659
##END=
