##TITLE=Sample description
##JCAMP-DX=4.24
##DATA TYPE=INFRARED SPECTRUM
##DATE=24/8/2023
##SAMPLING PROCEDURE=Instrument type and / or accessory
##ORIGIN=Default
##XUNITS=1/CM
##YUNITS=ABSORBANCE
##RESOLUTION=4
##FIRSTX=4397.6552
##LASTX=599.8556
##DELTAX=-1.9287962
##MAXY=1.4351141
##MINY=0.53075856
##XFACTOR=1
##YFACTOR=1.3365542e-009
##NPOINTS=1970
##FIRSTY=0.66905469
##XYDATA=(X++(Y..Y))
4398+500581784+500961383+499961769+499401870+500333297+500786657+499983532
4384+499704675+499782450+498829439+497381637+496456008+496023474+495779579
4371+495821143+496432283+497520731+498360559+498359934+497488355+495894324
4357+494487417+494654473+496321239+497898190+498176646+497000165+494932438
4344+493348888+493405881+494467082+495380626+496111729+496346391+495465714
4330+494122357+493475228+494106570+495196401+494850962+493384475+493520002
4317+495700734+497280316+496850948+495303520+493310402+491599262+491505879
4303+492598297+493183883+493115072+492824085+492342941+492255623+492915372
4290+493736514+494126415+493573472+492025509+490952089+491171054+491650949
4276+491872991+492085356+492416569+492823906+493295774+493424388+491965973
4263+489659347+489228953+490600808+491256544+490332431+488963965+488437780
4249+488720696+488840435+488785984+488981135+489095077+488895020+488697506
4236+488654337+488587622+488437290+488106032+487727727+487726478+488326112
4222+489735026+491267158+491481931+489959655+487782936+486861186+487683532
4209+488391891+487703243+486908547+487270442+487628367+487125639+486559541
4195+485851806+485181532+485718242+486636736+486572652+486182394+486347532
4182+486919562+487012812+486251562+485591902+485610721+485413341+484093039
4168+482543737+482190896+482664146+483203933+484101601+484995345+484838501
4155+484040728+483912292+484392009+484279939+483189885+481906687+481355528
4141+481924971+482935467+483443189+483471820+483185426+482705486+482445136
4128+482415391+482234421+481517545+480703494+480393999+479953304+479581464
4114+480250668+480925714+481000591+481708816+482368922+481340678+479714226
4101+479336544+480232161+481282837+481368149+480276935+479053941+478840773
4087+479485673+479945723+479746870+479398577+479217028+478809556+478235252
4074+478061953+478376442+478730979+478514600+477550886+476898450+477434937
4060+478052098+477668529+476504268+475275209+474950507+475410959+475902671
4047+476037217+475491900+474988637+475454618+476402188+476709498+476022857
4033+474893514+474170082+474474091+474941990+474567118+474452596+475291576
4020+475948783+475892503+475357756+474147561+472670014+472052229+472753854
4006+474118796+474513469+473362185+472427636+472772941+473433493+474220698
3993+475759118+476517513+474831660+472324442+470930378+470571516+470698079
3979+471805481+473928417+474572692+472887062+471388912+471050965+471364161
3966+472720853+474855340+475592463+474384855+473266349+472430312+471217263
3952+471199826+473188841+474694394+474688953+474143547+472311821+470359463
3939+470228397+471451034+473510064+474901764+473644075+471587051+470765954
3925+470328023+470213635+471344093+472515133+471557261+469250278+468329598
3912+468738898+469754567+471829919+473530757+472694542+470449056+468238311
3898+467198160+468488493+470645010+470419043+468104256+468093419+469023776
3885+468738943+468817565+467223980+465112951+466275429+467989422+468259628
3871+466950118+464892559+465580092+466488641+464803813+464148657+465983505
3858+468280989+467670027+460446273+456552573+459951884+463575780+465806817
3844+466359224+465578977+464098442+461710027+461090325+462680788+463135129
3831+462776312+463698017+465058009+466178344+465767394+462332896+461312991
3817+461572048+460090220+461140317+463907439+465258110+463730215+462477743
3804+463739803+462607517+460544384+461235216+461779731+462392610+463695832
3790+464808228+465633696+465246649+463763974+463381209+463254914+462381862
3777+462923790+464705391+465584863+464360353+463151496+463646910+463679733
3763+463892276+465156833+465357247+464855946+465947204+467190266+465232066
3750+464183040+468785322+471812126+469896738+471176413+476206413+481168538
3736+482850601+478858879+476166054+479512698+484852950+487590193+486528101
3723+483347442+479536244+477153092+477751032+480502724+482308450+481487532
3709+482219125+486059801+491313850+496784277+502109813+507536581+512986807
3696+518296422+523232147+526727607+526785448+526140459+528452348+531106464
3682+532007923+531335285+529981179+525933044+521889770+523053541+522828065
3669+520673019+522569989+526207130+528995256+531256752+533686507+536040405
3655+539600484+545288806+550013593+549543777+547841958+550093107+553084858
3642+553874292+552760781+551962294+552180857+553340525+555370970+554584167
3628+548134640+544744337+545379915+545915198+544118569+540744811+540107984
3615+540946741+540437368+540205559+539664345+536871313+534915611+535035172
3601+535166908+534981746+535782686+536172319+534282485+533205007+534270399
3588+532622185+527974906+525898393+525516386+524195995+522498814+521923083
3574+521496525+521398548+523991746+527687798+526606975+522426257+520320401
3561+519214738+517532497+517122172+518763608+520101703+521151933+524023097
3547+526675653+524958939+520360359+517518895+517573525+518703894+519137989
3534+519362083+519976701+520163959+520630431+522306294+522330376+519377959
3520+517230718+517852650+518944399+518774980+518740373+519307051+519138167
3507+519789399+522335906+523611523+521968303+519729908+518322243+517600461
3493+517469573+517577271+517535708+517774028+518818416+520547705+521701888
3480+521047847+519665914+519033902+518906269+518699256+518293791+517643095
3466+517184293+517295605+517827498+518491886+518856679+518518376+517407986
3453+516466213+516777045+517755877+518468072+518717005+518350785+518235549
3439+518886112+518607924+516922383+515609617+515273633+515321707+515929458
3426+517166277+517720245+516868734+516124119+516605797+517277454+517141125
3412+516150252+514400359+512805436+512438012+512938064+513576185+514296852
3399+514948619+514724436+513911946+514167926+515182658+515247634+514348093
3385+513227624+512305429+512244065+512837947+512618134+511585965+511427606
3372+512419148+513197522+513208225+513034480+512791389+512412191+511946567
3358+511010323+509907782+509619203+510186194+510746316+510568246+509815737
3345+509400327+509619337+509793617+509630129+509852439+510583586+510398514
3331+508872715+507283724+506498704+506812346+507710594+507968848+507522801
3318+506989659+506460085+506598822+507602717+507884473+506796738+505436880
3304+504747608+504822082+504886479+504429640+504002189+503846461+503424853
3291+502728847+502229776+502470459+503068845+502586408+501574263+501570294
3277+502160474+502312233+501856019+501127279+500192151+499432730+499886358
3264+500883965+500308100+499020621+499213185+500146440+500343197+499619363
3250+499065662+499144731+498257275+496543059+495949222+496054155+495768698
3237+495565787+495371974+495147212+495377459+495379778+494812297+494461418
3223+494666826+494674630+494408661+494626066+494892882+494815731+494519928
3210+493579760+491859612+490473443+490391609+491243879+492092358+491834237
3196+490542298+489680218+489846605+489746309+489087184+489819357+491766987
3183+492411708+491106524+490492084+492141904+493057811+490913603+488722747
3169+490276731+493114805+492252412+488647291+487811254+491562203+494112724
3156+491056755+487892151+491332312+497032899+496005591+490057810+488965794
3142+495576847+499475363+493808090+487740704+490243150+497001904+496667169
3129+489273014+486758215+494895469+502739907+497608050+487895496+488775816
3115+499783163+504063776+494168602+485541018+490127825+500541291+500017336
3102+488879323+483742115+491247625+500331691+496380418+485663701+484094733
3088+494155001+501939993+494815776+483196932+481393836+488570363+492347624
3075+486272478+480023943+482166368+490130769+492097977+483968706+477242551
3061+479322006+486423301+487859552+481356152+476519386+477535991+480861407
3047+481015441+477432127+474587319+474877192+476837800+476998121+474704651
3034+472866414+473514212+475687541+476187906+474520069+474230375+481722507
3020+512014753+570897384+618037863+607698114+567739648+535338601+515887939
3007+503595744+494334097+487858838+484267096+481385942+477898822+475453503
2993+475276458+478289615+481865704+479998033+474704829+472753899+476937159
2980+483789119+484157301+477396406+472282522+473169888+478995565+482520949
2966+478206533+472352849+472541712+480829744+489056011+485191610+475009017
2953+470723454+475641073+484672560+485395814+476948397+471183504+473716275
2939+482415435+486920142+480267124+471801913+470741961+478011560+486527298
2926+484630863+475169963+470021784+473001851+479955667+480684228+472948961
2912+466818159+467912004+474090924+478142805+474708620+468968477+467422967
2899+471005701+476340825+476672929+471518596+467666014+468197238+471550794
2885+473576690+471274524+467888056+467296716+469435306+471625849+470718861
2872+467453738+465259582+465789870+468267031+469746584+468362153+466025202
2858+464918023+465427128+466585191+466192124+463969338+462198173+462035398
2845+462799457+463244121+462740100+462086772+462266359+463087011+463508217
2831+463037019+462451566+462430829+462810428+463395970+463808392+463558789
2818+462818589+462224529+462249502+462640652+462589545+461977513+461544220
2804+461482054+461467382+461501542+461486068+461317629+461346527+461839489
2791+462476896+462799903+462695638+462292939+461938269+461875032+462022376
2777+462180825+462089270+461797970+461649779+461686971+461824549+462125794
2764+462378562+462374370+462427439+462701302+462838166+462598241+462193312
2750+461971626+462167535+462771719+463410018+463601155+463271637+462905595
2737+462831120+462963391+463182490+463355343+463715053+464335781+464599922
2723+464374758+464063167+463864671+463976339+464541724+465276395+465617508
2710+465426370+465143678+465192019+465511949+465588922+465324781+465525640
2696+466529179+467325882+467118824+466499612+466351152+466810310+467390010
2683+467541814+467439423+467572140+467771527+467827941+467898848+468022289
2669+468223015+468482071+468601142+468680478+469151275+469896203+470321512
2656+470378907+470395943+470506629+470804975+471360371+471945155+472313426
2642+472637147+473015497+473359866+473725596+473945943+473978944+474326211
2629+475067304+475664173+476070530+476621510+477158220+477397476+477536125
2615+477891508+478466927+479128282+479618434+479667534+479649161+480097928
2602+480724097+481049690+481251219+481565931+481937949+482522777+483299190
2588+483889414+484321770+484719163+484926533+485175913+485810823+486477618
2575+486776811+486955863+487323421+487796582+488182871+488499813+488766451
2561+488952504+489240192+489653416+489945340+490097679+490390896+491009439
2548+491736573+492181728+492310966+492525962+493045414+493700525+494283615
2534+494554935+494583878+494740052+495028453+495444130+496128229+496772504
2521+497086012+497272244+497530899+497824607+497997460+498013515+498032958
2507+498165720+498507457+498954931+499230131+499413019+499699591+500053012
2494+500335482+500472302+500527645+500554402+500562920+500586645+500781885
2480+501251434+501677636+501742032+501631122+501638079+501642093+501475706
2467+501466609+501814812+502116503+502102722+501890803+501715810+501826942
2453+502008179+501873545+501621623+501538452+501493277+501248714+500843026
2440+500549095+500409778+500302704+500203924+499968414+499475854+498923848
2426+498544561+498319129+498167771+498068813+497843783+497429355+497176318
2413+497211728+497158659+496791190+496281059+495853564+495572165+495270563
2399+494754903+494326293+494856893+497261318+502265898+510764199+523717973
2386+541349039+562522925+584773621+605697459+624688695+642720677+660899602
2372+679718253+698722020+716312014+731595648+744007450+751868834+755290131
2359+754258096+746119014+731310681+713863796+696647470+685585984+687142153
2345+696977345+699412363+691661843+682833088+675771216+672533118+675935551
2332+682340751+682729269+677066634+675029410+679048737+681316252+676231890
2318+665865874+656018463+653174056+656883843+658136092+651432503+638504773
2305+623347746+610948877+602785445+595703996+587588862+578474515+568413222
2291+557969164+548284392+539835682+532390421+525954272+520711684+516605039
2278+513418271+510671886+507967555+505420557+503253828+501385132+499731031
2264+498533144+497805163+497216811+496543371+495715228+495010347+494577055
2251+494054571+493467914+493261212+493354641+493340236+493259652+493341396
2237+493525398+493714528+494071250+494669011+495150868+495298079+495325327
2224+495482126+495917692+496605270+497265510+497750979+498347448+499089699
2210+499664360+500342662+501389948+502235573+502645319+503242367+504202291
2197+505019151+505554256+506211106+507112922+507928177+508653794+509465705
2183+510259509+511025709+511786780+512506511+513293671+514176934+515048915
2170+515922055+516721613+517263094+517695316+518185959+518658094+518999073
2156+519059010+519024091+519296482+519738783+519939865+519751537+519268699
2143+518879378+518745725+518490860+517913746+517079850+516056913+514957895
2129+513900931+512967765+511979211+510639287+509043115+507534798+506231085
2116+504962960+503441175+501694716+500070672+498519989+496842564+495183780
2102+493666722+492186812+490675506+489254819+488040477+487008352+485769884
2089+483975573+482102908+480731098+479786070+478863607+477572738+475947802
2075+474511997+473458690+472481820+471624868+471199291+470858535+469856869
2062+468449026+467386487+466666756+466152300+465853107+465677043+465485281
2048+465164147+464955573+465248790+465872239+466123982+466007051+466160372
2035+466675274+467407358+468283353+469241359+470252389+471125440+471709243
2021+472309145+473152897+473371059+472335635+471017162+470256313+469848129
2008+469255005+468244421+466967733+465554405+464044303+462556589+461413912
1994+460763884+459847396+458022583+455918733+454052000+452380997+450817915
1981+449305495+447952192+446734148+445416656+444025759+443047952+442606454
1967+441879945+440445299+439099979+438256674+437541759+436880359+436284872
1954+435542531+434787302+434213444+433752547+433568455+433649441+433136679
1940+431990212+431291708+431239085+431425362+431434995+431123270+430791478
1927+430830053+431431382+432100898+432209757+431855265+431431070+431447214
1913+431895892+432358171+432584406+432484333+432325661+432497488+432925073
1900+433430655+434007947+434318021+434204792+434055352+433754286+433277736
1886+433126690+433158353+433429361+434166485+434564368+434271820+434341924
1873+435448256+436746973+436698186+435835347+436297359+437761170+438728140
1859+438691973+438387651+438477913+439003429+440253003+442321086+444038201
1846+444343637+443594696+442848163+442399352+442165001+442488855+443184415
1832+442792642+440514958+438680735+438624678+438198298+436782739+435819159
1819+435607953+434650527+432612635+430735287+428832297+426718770+424916121
1805+424037852+424414374+423563531+420251717+417812552+416616271+414738656
1792+412293783+410627641+410236759+410343833+409535134+407944180+406550474
1778+405332831+404114029+402417919+400197853+400165833+401821183+401898869
1765+400959236+400276029+400009971+400302831+400059472+399685804+400871695
1751+402242301+401252810+399767638+399838010+399795019+398381958+397109641
1738+397666063+398855833+399104454+399347367+399784718+399575251+399665067
1724+400346267+400921954+401335580+401652700+402070741+402746812+403326959
1711+403886100+404268687+404268955+404648911+405634298+405494446+404031304
1697+403715075+404526941+406536827+409337887+411859777+413185564+412815731
1684+412530319+415281208+417843992+418771807+418957147+419634244+421000747
1670+422230341+423926496+426534857+428718845+430411388+432961909+436074782
1657+438462929+438523936+435877624+437295100+440547201+442548480+445051015
1643+448614127+451539609+453110316+452852285+451957649+454417997+458195258
1630+460920816+462907067+464624003+466188110+468889186+472112300+473497845
1616+473735407+476327936+480132757+483068273+485190763+487570972+490473398
1603+493332655+495824755+498343925+501115283+504145699+507645351+511331457
1589+514854165+518367018+522102893+525959713+529676992+532930743+535217345
1576+537920250+542853744+547676196+551576942+556143770+561641892+567030843
1562+571634819+575039259+579441173+587501499+596190536+605045469+613413506
1549+620675256+627557407+634342249+638146669+639477897+648118280+659450686
1535+667697511+674808527+682311496+689518081+696248338+701944376+706332955
1522+711896588+719773893+728741609+737896538+745685454+753150070+761008199
1508+765760501+765651598+771093886+779555752+786253232+790715305+795719751
1495+802832150+809969879+816059965+820980750+826483955+832677681+838136380
1481+843363449+849168300+854515063+857599306+858732752+861837597+867966392
1468+873748589+877741871+881758878+886637565+889628334+889399915+892916290
1454+902522930+911108951+917261827+921480764+926211838+932692315+939025448
1441+943534703+945763420+946895172+950510817+956621149+962008495+967209163
1427+973878904+979044252+981542417+984428119+987778687+990681425+994929974
1414+999014677+1001180871+1002574221+1003576734+1003440895+1004107423
1402+1006900456+1008432677+1006905361+1005023063+1005147664+1007320191
1391+1008660115+1006658211+1002338310+1000835522+1004128383+1008792208
1379+1011269234+1010777343+1009329765+1010356002+1013522479+1015481660
1368+1016299903+1017143476+1015698039+1012089350+1011114130+1012505696
1356+1013239385+1013129858+1012225367+1010452686+1010496746+1012680422
1344+1014071096+1012648759+1008461307+1005513795+1006004616+1007069295
1333+1006896353+1006094521+1005720630+1005720898+1006531559+1008381837
1321+1010018680+1010963932+1012031554+1013455140+1015275182+1018404466
1310+1023650978+1031646730+1039955811+1043642542+1043117382+1042659473
1298+1043650926+1045082182+1047169620+1050658257+1054487605+1056954910
1287+1058261833+1060291297+1062626598+1063306416+1062564075+1062125610
1275+1063297675+1065054659+1065423555+1064472417+1063369475+1062672621
1263+1061929745+1060484218+1059108885+1059234734+1059810376+1059207085
1252+1059199325+1061566914+1063803837+1063348336+1062332623+1062902022
1240+1064058122+1064799839+1064815804+1064581766+1065206463+1066163755
1229+1065617368+1064144460+1064466798+1066539162+1067790163+1067508763
1217+1067151551+1067680992+1068872412+1069611988+1069262001+1069291969
1205+1070111372+1070096833+1069717680+1070611825+1071855244+1072046917
1194+1072155106+1072934194+1073613655+1073591535+1073029094+1072387272
1182+1071987248+1072194172+1073028202+1073741823+1073098752+1071570545
1171+1070814736+1070228391+1069537157+1069421832+1068761637+1067074579
1159+1065719671+1065555202+1065614782+1064827488+1063302759+1061278469
1148+1059334540+1057516103+1054902435+1051996487+1050067185+1048497147
1136+1045407999+1040578546+1036491791+1034501482+1032538377+1029421134
1124+1026480044+1023976973+1020996460+1017318827+1012732064+1007379949
1113+1002541577+998715351+995026925+990837778+986627760+983171589+980398179
1099+977413653+973590815+970001570+968045155+967151099+965379488+961637815
1086+957446349+955225034+954596145+953066243+950629709+949043081+947432283
1072+944572803+942044224+940416835+938159576+936423285+936651705+936482152
1059+934642220+932165907+929788686+928747018+929009954+928292320+925453532
1045+923050356+923666223+925210931+925159379+924242757+923018247+921670117
1032+920867483+920325288+919572511+918775407+918420871+919302885+921347601
1018+922633386+921646482+920024712+920442842+922454200+923734277+924084175
1005+924366466+924654644+925600252+927239949+927674044+926648252+926282121
991+926741993+926696594+926215941+925369157+924090864+923151321+922427264
978+921158337+919340257+916966068+914044957+911355297+909345188+907229031
964+905141503+904460080+904533752+903904774+902894323+901674629+900372433
951+900080509+901319112+903761086+906139021+906988124+907385116+909471127
937+912479735+914195958+915270894+918258810+922541429+925137437+925952737
924+926847506+928809720+932109627+935313832+936220642+935398296+935331938
910+936507036+937272210+936628426+935753190+936492052+938307724+938950884
897+937751525+935692450+934030277+933463465+933190807+932151369+931278362
883+932227895+933899255+933628559+932203902+932096338+932709618+932956411
870+933766538+936400987+941411945+947135543+951430917+955692309+961373184
856+966350784+968714269+969346816+970098076+971273798+972165357+973511702
843+976156944+979608567+982791812+984126563+984030949+985179558+987637943
829+989431406+990689720+992836560+996470043+1001484479+1006939700+1009706331
816+1008661274+1008807370+1013113893+1017636349+1019114074+1019510976
804+1021103312+1023772814+1027534733+1031431065+1034008253+1035362805
793+1034760584+1032812909+1032773575+1036390291+1042362733+1046778337
781+1048017921+1049308254+1051878397+1054112734+1055466661+1055547201
770+1054535055+1053644924+1054038080+1055631308+1057060513+1058568117
758+1060443190+1060229487+1057573721+1056120524+1056417085+1056790619
746+1058991955+1060615330+1056513680+1050788566+1049244393+1050989871
735+1052532884+1051446710+1048951399+1048162054+1049058251+1048949883
723+1046696816+1044776612+1045684582+1046955471+1045161473+1042213159
712+1041337744+1041216265+1039386234+1036736800+1036013368+1037913950
700+1038601973+1036216992+1034193772+1033926732+1034102083+1034179501
689+1036349798+1039477031+1036593737+1030386989+1029838907+1033889539
677+1036725562+1037637723+1038585027+1038505200+1034472584+1029509255
665+1030257304+1033509673+1035570443+1035385103+1034658103+1035287349
654+1037029527+1039459638+1038447493+1034234711+1033968652+1034818380
642+1032429028+1030774526+1029357451+1025782388+1022093427+1015134616
631+1003631052+996088482+996806028+1003920032+1009529643+1007973875+1005205192
617+1003994596+1005625730+1005291619+999087814+998342619+1004043651+1006932921
604+1009794720+1017708772+1026151908
##END=
