##TITLE=Sample description
##JCAMP-DX=4.24
##DATA TYPE=INFRARED SPECTRUM
##DATE=24/8/2023
##SAMPLING PROCEDURE=Instrument type and / or accessory
##ORIGIN=Default
##XUNITS=1/CM
##YUNITS=ABSORBANCE
##RESOLUTION=4
##FIRSTX=4397.6552
##LASTX=599.8556
##DELTAX=-1.9287962
##MAXY=1.468043
##MINY=0.42297235
##XFACTOR=1
##YFACTOR=1.3672216e-009
##NPOINTS=1970
##FIRSTY=0.61209178
##XYDATA=(X++(Y..Y))
4398+447690263+447568283+447777367+447984009+447999573+448110523+448036498
4384+447240532+446694020+447374414+447868612+446809373+445163078+444456483
4371+444641895+445088225+445853848+446951233+448289875+449076032+448257745
4357+446557392+445160463+444429410+444790381+445692065+445714822+445396096
4344+446015282+446802747+446785614+446222012+445338986+444520350+444828614
4330+446579277+448116104+447895772+446653868+445390167+444541145+444518563
4317+444198529+442990717+442635414+443441494+443778792+443873045+444854728
4303+445550860+445289636+445620482+446321279+445751312+444531206+444551826
4290+445527754+445232482+443605849+442868737+443202896+443330892+443437047
4276+443576901+443352559+443259701+443487007+443630436+443337649+442620897
4263+442111527+442108040+442208571+442333733+442735247+443210961+443245271
4249+442375149+441083808+440989685+442437098+443635799+443378150+442531962
4236+442005285+441656086+441184688+440385147+439842863+440394607+441416441
4222+441809411+441530574+441354667+441746023+442150458+442155951+442479691
4209+443167714+442874535+441834870+441772878+442459506+442601453+442113794
4195+441354841+440766128+441103513+442107560+442365078+441707223+441331125
4182+441448528+441438152+441260980+441140569+440950101+440479008+439968854
4168+440117646+440586340+440106703+439455823+440043228+440783261+440885928
4155+441359288+442084629+442053458+441587597+441166029+440640529+440463532
4141+440590395+440352669+440123008+440357944+440745376+440886931+440611495
4128+440184783+440155835+440412569+440133514+439258859+438577549+438404431
4114+438465901+438592589+438755506+438669012+438239335+438054621+438386993
4101+438554443+438428540+438787548+439273812+439074755+438859960+439144333
4087+439397013+439392304+439136399+438809477+438978540+439482939+439410658
4074+438751713+438480418+438748661+438802850+438427929+437682098+436673605
4060+436180932+436590861+437276486+437798062+437964597+437635844+437436176
4047+437628258+437679613+437856916+438081912+437581393+437021409+437133406
4033+437260879+436824881+435987456+435604993+436070331+436469316+436425503
4020+436293801+435972939+435600197+435458556+435354581+435206487+435339061
4006+435857585+436245933+436384523+436770823+437179007+437240694+437156119
3993+436724045+435946956+435546052+435803134+436214675+436170426+435876723
3979+435968666+436379379+436731587+436853567+436632233+436087987+435616938
3966+435491078+435143884+434354327+434153090+434994046+435894162+436074516
3952+435992905+436005330+435773097+435386231+434509483+433110766+433185009
3939+434889853+435984055+435681372+434366620+432778351+432391703+432688588
3925+432269723+432142075+432894184+432745262+431758392+432485695+434601992
3912+435915044+436449829+436246195+433400327+428599683+426237899+427191506
3898+430120118+433154231+433605749+431060472+430244278+432276218+432046732
3885+430411248+431346676+431678307+431615006+432694430+432107286+430118156
3871+427743250+426573323+428833747+429832432+428334317+429089739+431372354
3858+432653275+430890363+423625136+421133308+426497292+431749280+434040090
3844+432862098+429919884+426653320+423933967+424727840+427420513+429412477
3831+431499304+433086571+432877007+432339650+430247896+425492504+425147403
3817+426927318+427890211+431881200+436419051+437174865+433391041+430689693
3804+430597139+428874465+429084900+431705292+433105273+434869712+437305128
3790+438696216+438786633+437739949+436597051+436276799+435190880+434280912
3777+436017188+438194999+438222028+435822534+433690455+433382889+433770060
3763+434952631+435160363+433379401+433148258+434241066+432127732+425293665
3750+422427308+426640460+429022559+427538962+429194020+432627075+432550913
3736+427819847+424794977+427759860+432865934+436200812+436113054+434754271
3723+435180112+437255473+439893609+442203601+443107465+440317749+436308275
3709+439294302+446737397+454083885+461016870+469755318+481033461+492212687
3696+501825093+509253366+512720817+511368050+511160798+514799361+517230549
3682+516134952+512316382+505969800+494367088+484406703+481768524+476168514
3669+469725106+469380789+469497538+466971966+463716868+460763581+456032471
3655+451598072+449837121+444876613+434312606+431200631+436501403+441691180
3642+443651929+442662443+440822235+438802937+436163625+433302281+427500118
3628+420215449+420706072+423998008+424099411+419758743+414020142+411495399
3615+409901026+407506371+405348483+402109952+399257675+399171226+398817623
3601+395838658+392319546+389974503+387608273+385751193+385329189+383192140
3588+377579574+374366502+375305984+376144455+375144289+373245968+371362209
3574+369851670+368899371+366932998+361141320+354697432+354727883+357658893
3561+358592729+357840207+356830122+355655333+354397059+353608352+352958497
3547+351275712+348930691+347767390+347764774+347558284+346880157+346430165
3534+346056355+344647241+342098062+340109107+339594223+339253655+338489340
3520+338087193+338145110+338189032+337830743+336914323+335573654+334247328
3507+333394121+332538647+331357036+330556428+330308827+330129127+329582026
3493+328629029+327615936+326839828+326296432+325694314+324804509+323929134
3480+323694503+323732453+323392212+323055982+322837046+322260431+321508780
3466+320913941+320143915+318936495+317640293+316726031+316285957+315899876
3453+315438461+315265605+314954726+314063156+313366130+313230461+313247354
3439+313098759+312781798+312605280+312478984+312293703+312250239+312104870
3426+311619216+311074622+310620161+310037312+309662412+310000146+310535215
3412+310528632+310058390+309802310+310037900+310185340+309973204+309871823
3399+309986675+309934165+309600768+309366356+309873393+311012607+311710505
3385+311819842+312302139+313154757+313754565+314218748+314860582+315727259
3372+316664627+317352781+317755887+318262771+319139824+320248915+321351531
3358+322363686+323656074+325544956+327255467+328017450+328386159+329067599
3345+330026307+331160704+332396330+333419450+333821400+333641482+333705502
3331+334401329+335271058+335942036+336094380+335842355+335752483+335902582
3318+336208709+336681872+337164278+337500420+337659740+337882120+338273673
3304+338594754+338902864+339492689+340428466+341285116+341500347+341367337
3291+341567985+342117920+342724769+343202924+343628241+344242981+344894580
3277+345516687+346335432+347066506+347706683+348975856+350528464+351084568
3264+350910644+351351045+352324139+352865747+353043203+353513380+354114561
3250+354379403+354342195+354253827+354496871+354985576+355425149+355950147
3237+356295881+356326812+356514251+356828400+356919885+357040993+357528782
3223+357970056+358051187+358029912+357882233+357716984+358113463+359007279
3210+359700752+359797533+359596973+359768063+360252474+360526057+360584366
3196+360678510+361037977+361690230+362502370+363259230+363746671+364000113
3183+363861676+363361789+363134242+363512498+364338458+365360052+366143222
3169+366354006+366370050+366673866+367083794+367313324+367483652+367957142
3156+368657634+369001253+368938999+368838468+368703453+368745043+369419595
3142+370409386+370959910+370846736+370345824+369957999+370214776+370984367
3129+371415308+371392071+371547794+371946693+372246891+372164103+371908983
3115+372159003+372931253+373577599+373704287+373417080+373029473+372881772
3102+373155159+373643559+374051351+374314057+374609024+374889909+374987083
3088+375273462+375839810+376297476+376673138+377056865+377338666+377382000
3075+377147195+377029007+377481702+378172080+378339530+378033054+377961034
3061+378218684+378396291+378685460+379302641+379499736+378932472+378404051
3047+378427070+378640600+378672251+378645745+378589158+378342756+378142304
3034+377942070+377300433+376625226+376708232+377422805+378029654+378198107
3020+378164887+378274137+378602454+378648753+378165018+377890802+378276709
3007+378879591+379486047+380342654+381015986+380783971+380463719+381127895
2993+381961964+382427127+383589992+385468172+386816928+387430621+388148507
2980+389443598+390870869+391592330+391194478+390077781+389184728+389214111
2966+389801647+389821919+389156957+388805665+389066192+389457374+389669727
2953+389623560+389552194+389874582+390705206+391836290+392541839+392270632
2939+391692556+391495069+391543765+391692513+391997027+392165305+391806907
2926+391334245+391221289+391181356+390914726+390636020+390517746+390267334
2912+390060037+390473409+391245092+391655500+391653843+391658290+391719149
2899+391764750+391844094+391917727+391989790+392077243+392229609+392543932
2885+393074271+393792506+394489989+394756488+394474339+394159623+393990473
2872+393744028+393668302+393881484+394157879+394447571+394608874+394525171
2858+394352228+394125837+393882617+393719135+393563891+393577711+393978615
2845+394542435+395035543+395518101+395985008+396359711+396767198+397190553
2831+397443407+397747878+398437688+399205535+399583639+399705793+399805714
2818+400011484+400548755+401339663+402046477+402442193+402624422+402852818
2804+403098609+403377141+403943969+404589617+404877173+405011621+405334577
2791+405738924+406149245+406676096+407305309+407871396+408303558+408689813
2777+409052222+409373216+409722895+410084214+410421381+410874382+411387631
2764+411715905+412010261+412478564+412905494+413208003+413575861+413984787
2750+414301464+414626817+415129429+415756855+416442437+416967239+416958694
2737+416915186+417527397+418423545+419198890+419842621+420243568+420504007
2723+420770288+421038400+421615604+422699823+423675533+423991426+424001758
2710+424236170+424734379+425244184+425588371+425768725+425891141+426097217
2696+426374091+426521618+426616744+427059281+427778737+428317838+428642319
2683+428930093+429171612+429232297+429084377+429108704+429584330+430143093
2669+430323578+430211451+430223701+430489459+430836261+431146442+431408800
2656+431615573+431754599+431943890+432261919+432609157+432873868+432953169
2642+432959664+433164781+433576191+433985465+434218788+434297783+434445964
2629+434827163+435229156+435296076+435171262+435310593+435809717+436417699
2615+436966653+437531302+438113301+438400639+438185844+437800852+437716452
2602+437945110+438230747+438452299+438643727+438847361+438888733+438707463
2588+438647389+438802937+438929103+438961886+439027149+439294869+439752970
2575+440074660+440020471+439841817+439740022+439491746+439132083+438882804
2561+438726122+438705371+438840865+438984295+439111593+439307947+439472128
2548+439498285+439489217+439454733+439402724+439484160+439663163+439791203
2534+439875778+440022825+440214558+440291984+440279864+440296213+440314610
2521+440381485+440476785+440457516+440426040+440571823+440893078+441137300
2507+441059395+440888675+440939681+441033324+440948357+440947005+441247683
2494+441550323+441532885+441191227+440791544+440683035+440805582+440764123
2480+440470420+440171181+439978532+439855768+439814526+439856247+439865838
2467+439699696+439483986+439364142+439164039+438911926+438856909+438865192
2453+438711649+438596295+438687322+438722024+438570269+438410491+438312794
2440+438230006+438100353+437955878+437927105+437984869+437903084+437550745
2426+437132142+436872051+436714890+436678051+436815333+436827758+436550753
2413+436296635+436186338+436067061+436032926+436197717+436358279+436293888
2399+436113708+436104292+436261889+436256309+436038375+435896908+435704870
2386+435027658+433817274+432185278+430052153+427401506+424422585+421197393
2372+417499670+413239435+408778356+404899014+402582047+401590425+400754307
2359+400431832+401824750+404935678+409356170+414416382+417814952+417446048
2345+414135060+411288669+410420727+410600253+411199560+411909251+412446957
2332+412991203+414218153+416081161+417681027+418693880+419635847+421026717
2318+422840244+424577872+425904568+427041799+428313697+429690485+430994599
2305+432166925+433157806+433949891+434603910+435079232+435443167+435941288
2291+436601193+437343580+438068005+438492407+438607412+438707463+438811744
2278+438775080+438647476+438632348+438841781+439182131+439565814+439938468
2264+440178941+440352189+440603778+440799478+440868926+440932750+441023167
2251+441240926+441617460+441939325+442133281+442382560+442830939+443390443
2237+443837035+444055667+444210212+444454696+444656543+444851981+445266574
2224+445793948+446208018+446518112+446769440+446936934+447189918+447654079
2210+448033141+448182805+448353742+448708086+449243177+449813318+450269850
2197+450745825+451346352+451865182+452191319+452505817+452963831+453476252
2183+453865864+454205822+454628523+455101316+455625638+456104404+456402553
2170+456595550+456830704+457304805+458141183+459082671+459740701+460138422
2156+460565788+461081261+461529640+461880147+462280223+462699524+462966808
2143+463162551+463380354+463483109+463450674+463435808+463422206+463289109
2129+463095720+462797396+462125328+461243959+460553625+459960858+459329465
2116+458750473+458190490+457551250+456648562+455356131+454038284+453212804
2102+452684035+451807854+450665217+449730138+448808269+447614102+446454332
2089+445600471+444793389+443734106+442590990+441591477+440666120+439741766
2075+438829923+437980684+437234329+436542034+435817216+434944522+433994315
2062+433241073+432690375+432083178+431393716+430783859+430150940+429434492
2048+428866269+428398970+427725115+426864715+426220461+425910846+425496253
2035+424819434+424246503+423912649+423521554+422922683+422268097+421626852
2021+421019305+420413808+419815417+419471013+419339921+419118805+418771044
2008+418411513+418062051+417682684+417249781+416707977+416168832+415819981
1994+415322600+414361974+413510163+413267205+413373142+413433130+413236035
1981+412840798+412343156+411803706+411425036+411271929+411018465+410258509
1967+409285763+408889829+409051133+409178998+408985129+408483956+407878851
1954+407454231+407299729+407110699+406580578+405736527+404584648+403719278
1940+404079769+404943874+405257064+405006390+404493359+404027716+403683660
1927+403181092+402223213+401195057+400759364+400408552+400144668+400765337
1913+401399171+400976557+400141791+400031713+400474948+400803309+400906150
1900+400790448+400314691+399634340+399303276+399099337+398480456+398357516
1886+399099816+399670437+399868971+400005119+400169256+400334570+400366831
1873+399963050+398297747+395816163+395695970+397925660+399549373+399969153
1859+400132723+400365654+400466534+400360946+400118424+399638002+398716394
1846+397146260+396014043+397182314+398945140+399519117+399629850+399864306
1832+398899582+396453005+395484707+396463250+397430503+398644549+399900708
1819+400360117+400348564+400187348+399359820+398142111+397973876+398846309
1805+399464928+398978839+397512419+396608685+396981382+397141988+395836740
1792+394705046+396489015+399020211+399945655+399692584+399197732+398907691
1778+399222886+399168087+397207904+394082241+394157269+397365981+400317655
1765+401690345+401156606+400394688+401103376+402102366+402959540+402880806
1751+400221614+397017785+397315106+399513537+400963914+401272919+401329506
1738+401789089+400823493+397707377+398064206+401909674+405470769+407506328
1724+407977725+407767595+406426861+401975547+397810088+400450403+405369496
1711+408467477+408795184+406496962+404287806+404095376+402471881+398822331
1697+398690324+402551007+407435485+410087615+409939041+408433167+404956255
1684+400870184+403494805+408491280+411315742+411086386+409557537+408515606
1670+407414646+409125463+413190565+414905087+414548694+415780832+417587646
1657+417208409+412861724+406703517+408596476+411130069+411611712+416250965
1643+423096106+427275471+428144154+426256602+426403431+433940824+441829072
1630+446822234+450426663+453955453+457683257+463183303+468913010+472088982
1616+475755578+483476856+491028155+496273560+500632234+505540864+510580629
1603+515645462+521138271+526522223+530922835+534661407+538808642+543450686
1589+548094343+552542039+556962661+561511890+565853257+568922159+570126832
1576+573207897+580548848+586714728+591284011+598128105+606300552+613016563
1562+617147058+617585889+621042137+634984399+648932285+661296305+672407217
1549+683263400+692484144+698324801+701175203+706188288+725533552+746490803
1535+760300884+772756279+786949477+799180181+808954457+818173587+826660227
1522+836550989+850065231+864192513+879576215+894917455+905892262+910860400
1508+911004004+918505212+937460777+952161251+961716154+968403958+975430063
1495+983713723+989296120+989970455+990017451+996925935+1006278294+1012912563
1481+1017123971+1019864119+1019697323+1014923185+1008490240+1008902304
1470+1015682618+1019429124+1017107143+1014694309+1016248923+1015450864
1458+1006801526+1002144050+1009699578+1015367859+1015844095+1014025293
1447+1013383568+1014438142+1016058236+1017903283+1017761249+1012788141
1435+1009357353+1011963664+1014669547+1016548860+1019580575+1021228570
1423+1021555187+1022061069+1019421800+1017012977+1021698093+1026835120
1412+1026140121+1022410094+1020498085+1019144271+1016949676+1014505366
1400+1010230222+1005502556+1002946991+1001924067+1003346325+1005087876
1389+1001922410+995246987+993848271+997524152+1001006731+1002764151+1001914214
1375+998696957+997670807+999987382+1001024431+1000198820+998843089+996708045
1362+996583188+999468161+1001536416+1000984672+999493446+998921386+998294135
1348+997101712+996612048+996250555+993412839+988426566+986410189+988981797
1335+991857615+992593855+992119536+992316588+993562546+995240012+997301554
1321+999210337+1000855717+1003800328+1008021850+1011630508+1013998961
1310+1015764229+1017749740+1020888089+1025019195+1028899539+1031944420
1298+1034530153+1037295762+1039906868+1041980442+1044477328+1047979787
1287+1051828917+1054691743+1056185236+1056897411+1057013550+1057445929
1275+1058140492+1057387947+1055769771+1055250724+1055994898+1056591197
1263+1055891490+1054688255+1054049320+1053973028+1053927253+1053016108
1252+1052018644+1052755930+1054826191+1056334333+1056658857+1056694605
1240+1057239025+1058221580+1058717696+1058479578+1058554823+1058701479
1229+1058024354+1057537218+1058759635+1060931037+1061773127+1061590462
1217+1062688719+1064922114+1066366518+1066785035+1067159607+1067425888
1205+1067275658+1067140163+1067078868+1066951569+1067270427+1068105018
1194+1068465465+1068714570+1069753013+1069437557+1067188467+1066357712
1182+1067255691+1067859924+1068423265+1068642811+1067306698+1065728630
1171+1065134162+1064523913+1064107925+1064758369+1064871194+1062834502
1159+1060305530+1058723451+1057196738+1055846412+1055009467+1053675010
1148+1051324343+1049367692+1049407538+1049993723+1049470839+1047952671
1136+1045100133+1041122745+1036913168+1033048082+1029345782+1025486276
1124+1022461013+1020862630+1019717726+1018050549+1015588713+1012418888
1113+1008868910+1005686355+1003902254+1003833548+1003869819+1001905059
1101+998738896+996837960+996973367+998443319+999325255+998797139+999459354
1088+1002368130+1004892481+1005943568+1006968323+1008567753+1010531292
1076+1012200475+1012861992+1013422978+1014479558+1016022750+1018124312
1065+1019255788+1018967012+1018494437+1018502808+1020354394+1023824679
1053+1025641912+1025082931+1024843854+1026222080+1028219450+1029652607
1042+1030392858+1031066146+1031825404+1031361723+1029506911+1028256419
1030+1027765708+1028231046+1030567588+1031771695+1030361120+1029995267
1018+1031704645+1032673946+1031618762+1030170346+1029843206+1029694546
1007+1028803367+1027298016+1025024688+1023202834+1023139969+1024049196
995+1024887188+1024613059+1022833755+1022013898+1023890421+1025765462
984+1025167070+1023106139+1020876493+1019115062+1018633245+1019211408
972+1019616584+1019690871+1019410552+1018190141+1016956913+1016572488
961+1016239157+1014949430+1012935320+1011906118+1011516985+1008394243
949+1003406487+1002001667+1003978110+1004788724+1004550431+1005407780
937+1006966753+1008187600+1008520146+1007830466+1007157614+1007571684
926+1008881291+1010258559+1010827043+1011284621+1012351402+1012655611
914+1012010834+1011895830+1012513751+1012873501+1012834614+1013044744
903+1013512175+1013284345+1012180508+1012331697+1013805746+1013835827
891+1012853970+1013375023+1014892058+1015147091+1014412769+1013547138
880+1011990780+1011378700+1013060264+1014532047+1014390361+1013864513
868+1013016669+1012531800+1013607910+1015322432+1017852974+1021747269
856+1025585674+1028179080+1028642674+1028340209+1030454414+1034259862
845+1036344247+1036148155+1036010655+1036504504+1035839848+1035307809
833+1036669905+1036688651+1034517423+1035332746+1039911925+1043370527
822+1045166223+1048126006+1051600128+1052743985+1052072703+1053308982
810+1055278189+1054877547+1055260838+1057848751+1059686300+1061175608
799+1062635358+1062288425+1060027303+1055080266+1049646877+1049034361
787+1052326254+1054838311+1054178014+1051619397+1050833197+1052386764
775+1054262764+1054820960+1053812859+1052357642+1050358355+1048845418
764+1050169761+1051969120+1050650880+1048104644+1047308243+1049057728
752+1051647560+1051416765+1049751593+1050602315+1052157016+1051528370
741+1050263840+1050759695+1052247782+1051284933+1047341637+1044905784
729+1044525632+1042976075+1043000489+1046308599+1047955025+1046295259
718+1044431466+1044376971+1046436333+1048337793+1047063062+1044975275
706+1045943443+1047094014+1044177043+1038757605+1035803838+1037426723
694+1039860134+1041238709+1044216104+1047829383+1047454636+1043009469
683+1040442918+1042378294+1044892444+1044861753+1044107290+1046499896
671+1049462730+1046522129+1044095170+1050116400+1054133372+1052693938
660+1049143611+1043498610+1037372141+1036116418+1042720954+1049843231
648+1047850221+1040511014+1031361549+1027206989+1036822664+1041905284
637+1024387584+1002486187+998429368+1017505518+1034521347+1027155982+1018819398
623+1021248362+1018940157+1021700360+1038100185+1041766563+1028957434
611+1022791729+1016730304+1006832305+1013171345+1038071761+1063634566
600+1073741823
##END=
