##TITLE=Sample description
##JCAMP-DX=4.24
##DATA TYPE=INFRARED SPECTRUM
##DATE=24/8/2023
##SAMPLING PROCEDURE=Instrument type and / or accessory
##ORIGIN=Default
##XUNITS=1/CM
##YUNITS=ABSORBANCE
##RESOLUTION=4
##FIRSTX=4397.6552
##LASTX=599.8556
##DELTAX=-1.9287962
##MAXY=1.445701
##MINY=0.61657435
##XFACTOR=1
##YFACTOR=1.346414e-009
##NPOINTS=1970
##FIRSTY=0.76393336
##XYDATA=(X++(Y..Y))
4398+567383710+566897945+566021902+564516971+562852583+562742264+564128952
4384+564693826+564024388+563202088+563206116+564499086+565261269+564442643
4371+563341093+562329277+561667895+561615348+561237908+560248935+559902883
4357+561148086+561982915+560647535+559304452+559603712+560217017+559975706
4344+559681271+559784330+559737449+560611013+562662712+563901364+563346538
4330+561171328+558873713+558160536+558262178+558404238+558981553+559624385
4317+559893011+559378868+557809570+556135974+555245145+554741716+553764828
4303+552441445+551767048+552644906+554649857+554966913+553206062+553321029
4290+555825027+557244076+556811256+555980943+555401504+555487740+556046860
4276+555911396+555359005+555559014+555869341+555776818+556588006+557989702
4263+557760653+556260857+555158732+554564152+554812768+556061557+556980010
4249+556247665+554151298+551830309+550258266+550057550+550174199+549797070
4236+549984063+550578598+550242949+548868479+548010498+548883619+550487359
4222+551527021+552125673+552556988+552254541+551507410+551403466+551473367
4209+551260255+551189601+550916814+550007304+548696095+547769541+547281872
4195+546678129+547151455+549246848+550624328+549893444+548372842+547362398
4182+547075445+547713452+548703975+548886231+548195853+546821074+545556304
4168+545711954+546999523+548108333+548099657+547219939+546660687+547051451
4155+547443012+546455853+544752597+543697264+543033669+542492788+542919720
4141+543976823+544129464+543755787+543796382+543631612+542984353+542823611
4128+543748129+544835867+545261515+544942024+543627938+542085246+541484291
4114+541607094+541736360+541397435+540693157+540742606+541441129+541185784
4101+540295531+539884226+539992774+540949962+542006756+541837161+541393540
4087+541236915+540237893+538828495+538349015+538664035+538727340+538006505
4074+537095578+537129488+538109962+538523834+537915930+537508565+537547610
4060+537417016+537432599+538047188+538773424+538862803+538071536+537174775
4047+537199345+537858424+538174285+537622469+536773121+536552129+536380143
4033+535802431+535387496+535000716+534619115+534745460+535371559+536217321
4020+536952367+537088008+536651071+536022980+535201299+534287805+533573876
4006+533421413+533472588+532289627+530534708+530940833+533353548+534647802
3993+534176335+533896288+533674677+532603053+531533421+531223979+531365021
3979+531939015+533196835+533705621+532610091+531802843+532133091+532584946
3966+533096477+533963002+533990095+532864683+531902537+531308577+531156778
3952+531985276+533073678+532853705+532067041+532215609+531934588+530642902
3939+529853494+530285871+531775175+532291265+530806521+530026852+530373966
3925+529691513+528667168+529991127+532451254+531495482+527678682+525995966
3912+526721449+528423909+530790274+532003117+530497522+527918134+525549865
3898+524417858+525416925+526737165+525676431+523968482+525195535+526079856
3885+524144053+523144676+522305908+521309896+522588523+524202975+525472350
3871+525382439+522512203+521716641+522101960+520381792+519813066+522190410
3858+525938017+527209694+518583667+510002484+512914290+519017461+523100584
3844+523691312+522042728+518990058+514881524+513739999+515521523+516446306
3831+516260155+516532100+517807318+520265984+520764367+516239348+514630075
3817+516013177+514982502+515702540+518626210+519832368+517355905+515404254
3804+515883778+513802241+512410551+514307884+515276538+516081130+517505314
3790+518390786+519095064+519164833+518244034+517722720+516523423+514515329
3777+514890112+517183654+519137164+519079614+517514965+516486060+515902947
3763+516739413+518387200+517964075+516897675+518215126+520188557+518658703
3750+516485883+519986513+523726506+523165394+524322989+528770050+533059468
3736+534014265+530929899+529699481+532835112+536647573+537563459+535735761
3723+532714478+528527897+525994062+527716045+531831706+534030557+533433941
3709+535748511+540940533+546241325+551573681+557760122+564878783+572181604
3696+579027479+584876058+588291912+587315821+585561876+587006601+589270438
3682+590427324+590486380+589631143+584286259+578113896+578440337+577446140
3669+574901193+577556547+582048674+584821429+586578518+588994597+591216068
3655+593852387+599117365+604594392+604407709+601267120+603091852+606336916
3642+606315578+603695595+602263974+602472128+602911101+603229396+599926074
3628+592198933+590453886+592866955+593566275+590234001+584674544+581989707
3615+581009499+580074932+580617141+580626083+578794535+578233865+578794800
3601+578316737+577826500+579142446+579980993+577992820+576508430+576743189
3588+573990886+569169352+567711037+567880499+567421561+567147623+567542991
3574+567575794+568123227+571296398+574420739+570971506+565660223+564616577
3561+565254230+565878912+566977983+567741715+567318989+567229211+569254305
3547+571638244+570727185+567204022+565183886+566294246+568737152+569664724
3534+569153946+569215613+570272097+572661482+575635309+575524060+572821869
3520+571350141+570786063+570626339+571645770+572771093+573080357+573309627
3507+575031831+577679084+578427587+577476021+576718089+575838770+574955954
3493+574941611+574746295+573419503+573154597+575540750+578646410+579817640
3480+578797722+578028279+578198494+577726319+577174238+577954040+579117124
3466+579407663+579276449+579720292+580834104+581752557+581963544+581885453
3453+581761101+581301852+580622011+580447900+580983203+582058855+583688094
3439+584538594+583459355+581945526+581604654+582329871+583094356+582791953
3426+582159081+582528994+583083864+582974519+582871593+583156200+583561484
3412+584028834+584944188+586517736+587949268+587550669+585333093+583507343
3399+583147789+584033040+585324947+585740679+585708894+586021611+586042064
3385+585870255+586077833+586414987+586883621+587142330+586682550+586341766
3372+586740056+587027761+585984071+584224238+583863356+584371566+583976242
3358+583387197+583447580+583993773+584753166+585256861+585401134+585200374
3345+584845423+584339914+583073372+581667959+581645647+582927417+583990895
3331+583958313+583121493+582230089+581852207+582009141+581876466+580405623
3318+578897726+578902950+578985025+578491114+578126158+577734420+577487974
3304+576862052+575304618+573993276+573339819+572903856+572692028+572394185
3291+572329153+573086156+574054810+574069419+572820807+571675475+571505835
3277+571235528+569913384+567947611+566346351+566225761+567457064+567612759
3264+565770276+564084018+563792152+564149227+564383234+564320504+563444063
3250+561806679+560822619+561244328+562131792+562454337+562119219+560996951
3237+559559398+559317290+560415830+560647889+559073632+557659144+557080590
3223+556308978+555472733+555584867+556311236+556330847+556031853+556332308
3210+556798418+556295653+554717943+553603378+553738798+553610373+552042004
3196+550864400+551639730+553102605+553147052+551877279+551510686+552149003
3183+551714501+549718492+549188413+551745755+553607451+552486732+551393948
3169+553308767+555757959+554099769+549946345+549858781+554728480+556926400
3156+553374241+550833677+553895998+557928522+556392381+551324135+550952628
3142+557680570+561733148+556349484+550272344+552753587+559489940+558526421
3129+550149851+546693357+553678237+560949008+556797267+548307235+549083052
3115+558769105+562220596+553046472+545113036+549037411+558153099+556864423
3102+545607833+540727554+548357923+556663441+551701176+541018225+540238070
3088+550842486+557973986+549444200+537323962+535868746+543318231+547202586
3075+540952087+534380903+536496837+544441207+546151857+537586036+530341340
3061+532303394+539653185+541297874+534816866+529382425+529407349+532386443
3047+533068277+530190471+527491556+527247500+528667876+528841943+526914861
3034+525236528+525715432+527977676+529219205+528225583+527573896+534102450
3020+563844257+622088599+667723883+656870850+617818615+585833777+565758102
3007+552336439+542764202+537653679+536315510+535383733+532559580+529570614
2993+528817285+531602436+535218387+533456739+527890200+525740887+530065499
2980+536909603+537311567+531101530+526992996+529080465+535629250+538841953
2966+533989652+528189371+528896660+538320284+547508796+543011888+531941715
2953+528115220+534064024+543625061+544188164+535238353+529049742+531317962
2939+539665713+543611647+536794547+528715776+527856909+534988674+543235713
2926+541074226+531769685+527095081+530274626+537162114+538064453+530651047
2912+524474788+524985743+530357454+533937503+530566759+525101905+523496306
2899+526541229+531575255+532216627+527116463+522742314+523188768+527262064
2885+530147397+528478139+525297310+524263536+525619412+527329575+526466901
2872+523632744+522073274+523020944+525519629+526826810+525116736+522393650
2858+521263944+522243179+523675552+523048701+520639528+518756272+518307870
2845+518928612+519718463+519994304+520056635+520449214+521303388+522221664
2831+522416094+521708850+520957956+520938389+521500519+521929133+521768082
2818+521269390+521102052+521505477+522012315+522155437+521809518+521418931
2804+521662721+522229854+522307767+522002000+521916915+521971366+521899650
2791+522085359+522448543+522336985+522100411+522416581+522912396+522968839
2777+522621149+522433138+522768300+523133653+523161986+523187662+523182836
2764+523159108+523735537+524741067+525203282+525041965+524923279+524918321
2750+524601132+524196424+524529948+525514051+526001898+525536939+524914381
2737+524985079+525659431+526187696+526249451+526227759+526389784+526408333
2723+526139664+526127091+526536847+526850848+526888565+526859259+526662305
2710+526231389+526084416+526450832+526959750+527447110+527870234+528043770
2696+527924508+527839069+527941109+528029869+528351440+528993963+529503856
2683+529876558+530181661+530327218+530472023+530494866+530293529+530301188
2669+530703418+531246423+531560071+531369802+531104983+531333014+531923344
2656+532590170+533064957+533115557+532954904+532963138+533245310+533659492
2642+534162744+534740280+535123297+535268013+535489713+535899070+536422155
2629+537073089+537739783+538084330+537987557+537770373+537825798+538312626
2615+539142496+539977324+540450385+540677530+540998880+541328774+541550120
2602+541909408+542463437+542878328+543064745+543304950+543641750+543942869
2588+544273560+544766807+545444612+546016393+546312775+546836745+547681888
2575+548161102+548308209+548614197+548910756+549073977+549416133+550038647
2561+550615474+550927173+551269861+551887815+552465218+552667793+552817423
2548+553315717+553885373+554198799+554416824+554695986+554921803+555166612
2534+555716036+556374806+556594647+556509517+556838083+557482155+557746133
2521+557699163+557688007+557728735+557890362+558123350+558217776+558220211
2507+558434518+558989698+559597160+559892302+559820011+559739618+559945912
2494+560095277+560029404+560125690+560350621+560489007+560541333+560525839
2480+560610260+560813278+560869323+560803097+560851837+560915585+560893893
2467+561049366+561472624+561747712+561621678+561514104+561604236+561482142
2453+560992923+560454742+560461870+561055254+561419811+561203556+560764140
2440+560293116+559866095+559726869+559895357+559959193+559535493+558665559
2426+557889299+557756005+558015909+557932240+557486494+557188429+556876907
2413+556326154+556020520+555878549+555255371+554475924+554159665+554093925
2399+554094678+554281803+554710373+556176702+560287184+568472954+581588097
2386+599614596+621155847+643669692+665118641+685111755+704345386+724021576
2372+744678993+764913108+782803081+798063641+810063246+817510385+821124609
2359+819653633+810082990+794492624+776185635+757692804+746698730+749590216
2345+761053543+764896728+756855231+746206457+738618188+736217913+739123786
2332+743543223+743600684+740162253+740155701+744334579+745203583+738104975
2318+726368817+716165435+712757062+715247070+715992873+709579154+696385876
2305+680633219+668020044+659824933+652762006+644917374+636259518+626291338
2291+615352113+605073252+596233803+588668023+582530322+577736058+573764272
2278+570444703+567551446+564765100+562399930+560905934+560076152+559231231
2264+557974871+556598720+555581060+554889619+554182109+553501913+553119870
2251+552998396+552902818+552745132+552639948+552609756+552501651+552319306
2237+552258436+552472743+552842878+553049217+553170913+553488234+553915697
2224+554417666+554969348+555330762+555537100+555950796+556803996+557718951
2210+558180723+558481886+559138221+560057161+560981900+561950332+562950904
2197+563804104+564544949+565257816+565900781+566587928+567419480+568329344
2183+569294944+570217469+570943971+571536779+572099972+572719431+573546512
2170+574575283+575633361+576427683+576896892+577444236+578108982+578622549
2156+579031950+579396905+579737380+579907418+579793247+579688639+579679210
2143+579682043+579733174+579560613+578920569+578116950+577381639+576487490
2129+575367569+574128784+572696499+571077619+569436472+567797804+566094946
2116+564451541+563052414+561805616+560328974+558477858+556517397+554626439
2102+552866606+551279335+549899420+548673651+547381566+546015596+544682917
2089+543350901+541911755+540342501+538898219+537747264+536676835+535442743
2075+534221667+533266869+532436777+531826173+531727231+531589155+530732458
2062+529767744+529393670+529310089+529168207+528962488+528766862+528655348
2048+528754954+529108709+529725157+530780623+532017548+532981598+533666443
2035+534232203+534977430+536061627+537253264+538324977+539188270+539718261
2021+540113054+540674741+540853323+540183574+539156131+538111467+537060915
2008+535986059+534694461+533103250+531337087+529483757+527677663+526290666
1994+525421794+524273408+522342563+520221759+518195160+516323991+514700463
1981+513187121+511837486+510597418+509336189+508257615+507559313+507059381
1967+506203879+504861460+503649193+502782756+502017608+501381991+500863953
1954+500272384+499684356+499302490+499149540+499269687+499588469+499500152
1940+498943822+498642304+498705122+498870113+499029571+499199166+499399794
1927+499742880+500439677+501218106+501600681+501635919+501632997+501918622
1913+502394826+502712944+502799933+502758099+502822333+503247052+503821666
1900+504224692+504425674+504245277+503776201+503553084+503373839+502939912
1886+502793868+502956513+503234568+503823259+504147310+503696162+503398142
1873+504089893+504933088+504593543+504127123+505269401+507095062+508246282
1859+508517917+508495030+508639171+509135517+510284081+511954977+513083797
1846+513040988+512402494+511905926+511419098+510727348+510282398+510206698
1832+509241320+506574722+504483578+504163468+503432761+501878514+500715518
1819+499915663+498354820+496068405+494034989+491820379+489320144+487294608
1805+486268802+486267563+485013063+481508006+478843842+477558708+475895161
1792+473637610+471915406+471260664+470995448+470028609+468501322+467103700
1778+465876779+464614045+462495278+459484265+458969548+460691309+461059673
1765+460272301+459523178+459220908+459600339+459579488+459408078+460391252
1751+461285578+460255435+459145163+459369077+459564083+458817926+457938164
1738+458164955+458819918+458674316+458772860+459261990+459228345+459398073
1724+460010670+460516534+460639071+460078358+459642129+460501704+461439724
1711+461972326+462175389+461983748+462224129+463385620+463351090+461562039
1697+461494352+463004462+465102998+467425183+469470906+470774943+470501669
1684+470148667+473334321+476566547+477885193+478067848+478561184+479840961
1670+481146770+483151898+486064279+488228776+489517319+491649323+494521375
1657+496775251+497157693+495563692+497049809+499520251+500734200+503069134
1643+506897798+510088145+511780600+511382001+510427026+513350341+517633916
1630+520729837+523145960+525693873+528316468+531610537+534983893+536886361
1616+538802110+543246426+548060478+551804102+555135003+558852109+562643942
1603+566163962+569675172+573333001+576844831+580364585+584333672+588417814
1589+592406998+596783936+601708794+606514745+610634346+613941077+616278180
1576+619175996+623981637+628362516+632175420+637110770+642651589+647974958
1562+652547611+655275389+659238233+668655572+678232147+687244378+695814272
1549+703876930+711510973+718209475+721165727+721591995+730621624+742666117
1535+750348990+756194027+763659581+771522851+778048482+782705777+785672698
1522+789474358+796548927+805147684+813845605+822218855+830135778+836326026
1508+837019636+835370432+843548277+853161950+858995034+861162454+863352627
1495+868520700+873926941+877355943+879113252+881788350+885652696+889331996
1481+892257127+894251542+894981806+893890925+891472411+892311578+897760228
1468+901923302+902174486+902294012+905181957+907326887+905693000+905325566
1454+911648887+918274479+921848153+923381460+926665790+932016429+937293847
1441+942069960+945578913+947116470+949899408+955142118+959493513+962445648
1427+966119282+970647930+974957093+977065102+975752433+976350332+982020595
1414+987050370+989430459+990799439+991156160+990540199+991226814+992810942
1400+992069964+989957439+988811841+987943457+988380659+989045051+986839206
1387+983163979+983191514+986602278+989689256+991161649+991621429+991492163
1373+992346735+995653112+998597898+998689092+996454827+992916214+991769465
1360+993929536+995840725+996954183+997073002+995860026+994331942+993631958
1346+993815144+993915547+991907142+987041517+984053524+985323784+987515817
1333+988988918+989085248+988499389+988505233+989194061+990866374+992992888
1319+994602958+996047285+997438222+999035012+1002036374+1007243138+1015821354
1306+1025338520+1029119462+1027767304+1027969526+1031032245+1034124978
1294+1036282304+1038403860+1040786162+1042226416+1043033354+1045462758
1283+1048656957+1050775237+1052466143+1053496021+1053195345+1052797099
1271+1053710992+1055062973+1054913697+1053560300+1052317133+1050804189
1260+1049133825+1049658946+1052537151+1055251029+1057131761+1058776715
1248+1059634120+1059116348+1058649751+1060460360+1063692365+1064893742
1236+1063516705+1062023948+1061583027+1061861745+1061564257+1060853648
1225+1061332198+1061905572+1062056530+1062839032+1063384605+1063628351
1213+1064520995+1065553353+1066649280+1068121231+1069197503+1070247479
1202+1071582195+1071910407+1071833290+1072727262+1073737396+1073741823
1190+1073137372+1072092088+1070605529+1069855343+1069827365+1069837458
1178+1070117151+1070043841+1069306848+1068536830+1067381493+1066452637
1167+1067739984+1069602743+1068902582+1067080551+1066342406+1065701654
1155+1064211554+1063075606+1062589442+1060975122+1058645147+1057763216
1144+1057129104+1054244879+1050317228+1047118869+1044154161+1041595580
1132+1039540250+1036636192+1032355274+1027366580+1023222187+1021091246
1121+1019595922+1016917902+1013124387+1008463551+1002232929+995203780+989717412
1107+985838015+982611234+980439122+979194007+977777128+975093530+971437161
1094+968010638+965317921+963509702+961933896+959394173+956709247+956252567
1080+957182839+956124629+952889791+949998659+949094948+949024295+947510731
1067+945214489+943944052+943347215+942582775+941962475+941529788+940495306
1053+938818300+937359277+936115578+933988887+931293425+930088064+931021524
1040+932177038+931609064+930195107+929834667+929954902+929476441+929462275
1026+930819214+932914208+934933768+935533616+933778697+931817749+931932406
1013+932867106+933149986+933915400+935934695+937584607+937625069+937304560
999+937427717+937180872+936747388+936721358+936683995+936360387+936279109
986+936494611+935884139+934416881+932804686+930336768+927045089+924390266
972+923278224+923053956+921730042+919098859+917277182+916736833+915971507
959+914874517+914741090+915420090+915707043+915544133+915645952+916322562
945+917482149+918925944+920304840+921437335+922831371+925141868+928069212
932+930729790+933023819+935256756+937710597+940856896+943914923+945646556
918+946913983+949093709+951228280+951043501+949356845+949762085+951612005
905+950985596+948773023+948097387+948195399+947747129+947327811+946190005
891+944273769+944210198+945592813+945865069+945471516+944839440+943775121
878+943714206+945500645+948462165+951307876+952873500+954408667+958168271
864+962798385+966662996+971542788+977350019+981165845+982520836+983462973
851+984508080+984735978+984308426+984227325+985207622+987347505+989949825
837+991170769+990872749+990734098+990000646+989475171+991836489+995411933
824+998511573+1002529798+1007261023+1010283545+1010247599+1009073226+1009782684
810+1012360921+1015150676+1018032069+1020880967+1023713310+1026207435
799+1026730963+1026662257+1027991395+1029203131+1029612975+1030282413
787+1031847949+1033274833+1032660288+1033304228+1039297744+1046084209
775+1048818451+1050084727+1052426743+1054535904+1053675311+1050442510
764+1048807118+1047277618+1042275643+1038424224+1040416692+1044698938
752+1045261776+1042672118+1043466484+1047448143+1047343933+1042001528
741+1037029479+1037385138+1042451834+1046189481+1045661350+1044310874
729+1043618593+1041362016+1038473009+1038013760+1039120401+1037583995
718+1033245438+1031152657+1033191784+1035389660+1034090537+1031728156
706+1030823560+1028389021+1025478765+1026373799+1028257187+1029050845
694+1030917234+1031131142+1028917949+1028694655+1029402785+1028608596
683+1028416379+1029346917+1029512484+1027923397+1025218639+1023552170
671+1022626855+1020254204+1020953038+1026563537+1030292684+1030974783
660+1029610230+1028290654+1028833040+1029543118+1027615638+1022233125
648+1017192459+1012631937+1005581892+1002127922+1006487817+1013490582
637+1020174254+1028974436+1033104485+1023286289+1011034085+1006090368
625+1000123591+989601515+984348888+989766905+994011699+994849361+1005749053
611+1013868021+1002800017+988590407+987661728+999851335+1014704885+1021701098
##END=
