##TITLE=Sample description
##JCAMP-DX=4.24
##DATA TYPE=INFRARED SPECTRUM
##DATE=24/8/2023
##SAMPLING PROCEDURE=Instrument type and / or accessory
##ORIGIN=Default
##XUNITS=1/CM
##YUNITS=ABSORBANCE
##RESOLUTION=4
##FIRSTX=4397.6552
##LASTX=599.8556
##DELTAX=-1.9287962
##MAXY=1.4413301
##MINY=0.53593963
##XFACTOR=1
##YFACTOR=1.3423432e-009
##NPOINTS=1970
##FIRSTY=0.67344123
##XYDATA=(X++(Y..Y))
4398+501690784+501338887+502278463+503726015+503379491+501351986+500357127
4384+500687044+500885883+500805957+499956830+498260574+497377923+497518993
4371+497537997+497858057+498724502+498765708+497427122+495952973+495614308
4357+496279027+496909689+496476400+495378792+495644324+497268469+497979634
4344+497715167+497710327+497118651+495493752+494656037+495396287+495890231
4330+494838446+493546573+493242676+493672279+494603242+495699651+496267260
4317+496136448+495797960+495746408+496078190+496161402+495479854+494706480
4303+494084343+493415849+493322336+493820675+494161339+494124129+493980306
4290+493907262+493541245+492395325+491395316+492005952+493557363+494618383
4276+494909004+494515678+493783377+492958050+492169623+491720171+491487009
4263+491609651+492114740+492336535+492825195+493995669+494234959+492876037
4249+491540204+491509166+491827716+491480792+491291856+491133735+490036526
4236+488896424+488758818+489012272+488585644+487829054+488120651+489165642
4222+489926095+490837387+491833977+491749833+490540949+489267192+488457807
4209+487928607+487603041+487792954+488352881+487985310+486767768+486206464
4195+485982271+485817534+486344070+487047687+487418322+487549757+487603440
4182+487485283+486853866+486262057+486525636+487125970+487049330+486138571
4168+485180878+485210939+485898837+486005538+485605464+485296327+484714242
4155+483940779+483735680+483891180+484007118+484039799+483809656+483571476
4141+483616900+483879680+484138463+484272428+483819336+482359972+481457517
4128+482404154+483709304+483769293+482979311+482257800+481859413+481793873
4114+481745429+481612840+481686328+481816474+481583356+480682677+479852600
4101+479847626+479949532+479786083+479892207+480445296+481169339+481679268
4087+481544637+480702881+479701761+478917508+478329295+477903822+477871940
4074+478199682+478172685+477802182+477682249+477589090+477143235+476702931
4060+476971305+477751696+477999112+477636247+477436742+477309837+476751064
4047+476204502+476454316+477226847+477232131+476191492+475637293+476049401
4033+476033594+475231934+474360428+473806540+473747083+473600463+473185336
4020+473884823+475520468+475868901+474925018+474513398+474795715+474844070
4006+474608865+474450079+474164254+473716578+473498957+473449936+473611697
3993+474194270+474361316+473677503+473140177+473076636+473194261+473719775
3979+475090021+476842580+477066329+475700168+474616014+473696508+472804843
3966+473151367+474400880+474762590+473978470+473498602+473689537+474027935
3952+475220034+477355306+477914123+476689610+475629078+474128287+472534870
3939+472138436+472886190+474715123+475376112+472764791+470536005+471095444
3925+472080578+472181019+472866119+473741844+472462670+469888070+468842813
3912+469060301+470173007+473010652+476157168+476733081+474353190+470437607
3898+467915181+468987391+471173905+470656027+469084945+470933371+473322320
3885+472711995+471638498+469663922+467259121+468077653+470370114+471594538
3871+470262258+467447213+467760435+468922384+466989370+465028292+466313905
3858+469819822+471323278+464558237+458728200+461373046+465150180+467664568
3844+468792993+468701300+467655288+465412204+464333823+464739270+463889167
3831+462931784+463766480+465030912+466449602+467086214+464454644+463719590
3817+464588521+462525004+462253522+464761161+466397605+465377348+464913731
3804+466190019+464692291+463002252+463563601+463123119+463148162+464330936
3790+464977361+465228152+465000362+464139202+464478622+464931848+463266275
3777+462483487+464333068+466829873+467526385+466653813+466307999+465699628
3763+465470639+466235577+465995399+465881460+468554013+472555073+473526310
3750+471556751+472715725+473789799+472060730+474260431+480227231+485386199
3736+486660489+483109236+479672188+481144429+485769579+488959166+488200800
3723+484680540+480050816+476751020+476887294+480240108+484004720+484705761
3709+484861040+487626797+492016164+496662673+501088363+505961728+511710107
3696+518243184+524565877+528318944+527612130+526364838+528471337+531364531
3682+532958126+533478312+533431733+529836920+524964798+525896870+526920192
3669+524926433+525165723+527254860+528915593+530599149+533222859+536252949
3655+540488637+547035523+553723745+555254997+552461533+552524719+554059302
3642+554462973+553622372+552935407+552998904+553817570+556153590+557111993
3628+551545624+547076552+546869854+547817512+547362643+543662816+540924589
3615+540257561+539462296+539603987+539405903+537322317+536332476+536624428
3601+536166451+535926628+537468093+538261227+536142518+534877153+535989548
3588+534152134+528659740+525710775+525422419+525760285+525740481+524954807
3574+523958838+524341640+527183548+530603945+529313936+524654240+521588272
3561+519132451+517063696+517483796+519608456+520440754+519870436+521428730
3547+525090459+525275178+521149877+518076183+518091191+519154609+518923711
3534+518170673+519031878+521500664+524677152+527493706+527000206+523197541
3520+520534357+520171936+520205638+520311496+521538052+522952479+522122845
3507+520875597+522069294+523472088+522540681+520928659+519948897+519566983
3493+520245512+521605989+522142249+521270299+520236765+520163099+520249509
3480+519610010+518813901+518130532+517360444+517101927+517564389+518149448
3466+518630337+518833972+518825846+518741168+518392957+518068323+517958292
3453+518055180+518869450+520110526+520184946+518705113+517363330+517637299
3439+518771851+518995822+518273467+517100994+515904500+515481513+515631241
3426+515909517+515871819+515139739+514347627+514370228+515746956+517670602
3412+518267739+517272969+516001654+515253901+515309893+516225847+516899669
3399+516428194+515576847+515290489+515679552+516217588+515989887+514748456
3385+513537530+513255480+514073524+515600070+516064396+514642332+513020008
3372+512565051+513160767+513812832+513827574+513631399+513082218+511659532
3358+510256916+510009855+511036019+512363992+512594668+511668146+510648910
3345+510045156+509498372+508813449+508538992+508952743+509772786+510373386
3331+509979661+508957894+508269685+507813928+507411900+507448177+507690220
3318+507579656+507222164+507224828+507325712+506698070+506341821+507075322
3304+507199562+505945654+504837744+504709418+505214107+505820525+505636828
3291+504731442+504088036+503589341+502577787+501117047+500153981+500430615
3277+501371834+501768756+501202968+500641264+500811907+500908529+500290522
3264+499690232+499598583+499596052+499496766+499446945+499531001+499820600
3250+499780104+498547154+497042766+496801700+497224731+497130996+496725814
3237+496967458+497883234+497918801+496211889+495017881+496050305+496906359
3223+496129343+495530252+495925087+495980325+494944260+494061431+494078304
3210+493871917+492795489+491956309+492134100+492943441+493557008+493144411
3196+492281519+492301146+492985092+492376321+490855725+491228092+492987800
3183+493318606+491643753+490730685+492279832+493212215+491153805+489308266
3169+491489851+494801103+493983458+490331987+489684585+493059911+494528289
3156+491775631+489836444+492878435+497415533+496405799+491410901+491212995
3142+497763034+500828247+494307381+487742068+490917180+499011126+499098956
3129+491453040+488459050+495694323+502911967+498345074+489425180+489807582
3115+499726953+504161258+495454322+487481597+491910884+501943173+501035922
3102+489804829+485089629+493206088+502724407+498680809+487412150+485492501
3088+495601031+503005303+495139990+483663746+482453042+489752700+493498839
3075+487245993+480510525+482387947+490436912+492647182+484995272+478654995
3061+480595691+487316727+488773426+482439366+476911272+476743782+479795053
3047+480585212+477761065+475548131+475719084+476564081+475953401+474050226
3034+472692635+473164688+474850331+474984740+473273032+473116777+480944879
3020+511602118+570276278+617139970+607410823+568399656+536886941+517551112
3007+504066767+493304530+486156066+483077443+481727046+479252665+476185320
2993+475104718+478248170+482663692+481248688+475693197+473729810+478154257
2980+484653987+484429083+477555566+472609157+473644867+479716725+483455805
2966+479122074+473173125+473291682+481750091+490099046+485717005+475235753
2953+471626198+477465427+486865944+487180409+477887792+471467322+473637407
2939+482031209+486366006+480077325+472274488+471526601+478853744+487056967
2926+484102674+473801922+468789751+472450281+480229096+481875975+474821913
2912+468720171+469061456+474207636+478072333+475235220+469525383+467221511
2899+470350976+476228480+477227335+471621624+466637650+466922187+471318660
2885+474354478+472029381+467900262+466694842+468914747+471590808+471059521
2872+467982719+465790788+465959432+467861142+469267887+468298738+466090777
2858+464972877+465722984+466955046+466200276+463545617+461917610+462672024
2845+464239909+464616095+463622968+462588901+462489437+463403704+464564276
2831+464818086+464076149+463292873+463178268+463702672+464145863+463891964
2818+463253709+462891333+462942352+463034312+462934848+462793423+462490014
2804+461943719+461750786+461880711+461670150+461434190+461561139+461704784
2791+461848740+462128837+462384112+462603776+462695247+462525182+462356715
2777+462338466+462429537+462576246+462607373+462624424+462696624+462577933
2764+462337133+462331405+462599513+462884939+463064106+463110996+463076628
2750+463138837+463370002+463733710+464027705+463979439+463610757+463277820
2737+463395312+463779268+463778469+463542021+463900800+464734963+465022431
2723+464594160+464260290+464426626+464698730+464737494+464894016+465347286
2710+465582358+465361629+464975230+464724484+464798771+465196848+465718544
2696+466268658+466795948+466983464+466751723+466536810+466663360+467081152
2683+467643121+468107270+468127430+467810966+467588638+467623806+467902393
2669+468220544+468486121+468950270+469569298+469914312+469887759+469936381
2656+470259460+470568997+470932039+471595426+472225689+472486870+472551121
2642+472676828+473038316+473495582+473732341+473854584+474105241+474566460
2629+475189129+475755273+476175951+476565369+477065618+477692151+478209007
2615+478384222+478403804+478584171+478831676+479090281+479583781+480305159
2602+481047274+481677092+482050170+482019576+481984319+482476665+483119005
2588+483595054+484191703+484692218+484836973+484915701+485061877+485229633
2575+485506000+486020636+486724430+487286799+487493409+487603307+488025850
2561+488629248+489070618+489530416+490087812+490563684+491075966+491667153
2548+492151995+492433912+492579511+492798153+493283039+493995581+494594894
2534+494704881+494537347+494716559+495227687+495639751+495921091+496196037
2521+496503531+496838999+497152132+497399370+497682087+498053166+498270654
2507+498384860+498747414+499235008+499468836+499529758+499691031+499815139
2494+499843335+499997059+500224938+500393404+500454992+500481812+500699566
2480+501017184+501263934+501584882+501912979+501917419+501642562+501477248
2467+501507043+501568674+501637899+501614188+501534129+501700952+501915110
2453+501675287+501151682+500937791+501169932+501404115+501261980+501009058
2440+500987700+500936236+500686645+500419691+500075698+499495745+498822900
2426+498446536+498404175+498407283+498369185+498151964+497716544+497308787
2413+497016790+496724305+496278139+495747918+495362096+495140878+494869973
2399+494379315+494032657+494643205+496940993+501762495+510374408+523641842
2386+541179243+561852814+584088454+605782238+625601621+644253326+662705571
2372+680673464+698730607+717027618+732687376+743563020+750558380+754694294
2359+754449897+746408081+731036190+712840819+695421175+685075442+687742179
2345+698552639+701692849+694026064+684838639+677564691+674140609+676624049
2332+681809082+683183590+680143731+678686810+681232636+682575529+677394182
2318+666593003+656155177+653109857+657010077+658446883+651380743+637961271
2305+622930444+610812481+602544784+595316083+587215654+578063352+567767351
2291+557176600+547735543+539488494+531934538+525541287+520687859+516759799
2278+513128974+509956394+507416207+505251273+503317903+501627109+500125119
2264+498726189+497467796+496578706+496168418+495965450+495646855+495156908
2251+494498583+493784931+493331971+493229177+493263546+493239657+493143568
2237+493173051+493452704+493798962+494063518+494436951+495119209+495844673
2224+496191197+496278450+496522624+497043565+497770716+498649993+499465639
2210+499952567+500373956+501125129+501980516+502683334+503332556+503986441
2197+504686639+505502152+506381518+507226027+508062987+508934227+509763816
2183+510508106+511212478+511879639+512342767+512733162+513568746+514683405
2170+515488662+516062620+516682714+517361376+518017259+518443621+518639174
2156+518901598+519240485+519392789+519338261+519248478+519040003+518640728
2143+518456010+518569682+518440957+517854965+517067425+516273936+515373523
2129+514238883+513044297+511991359+510878742+509379504+507676500+506194446
2116+504930325+503501867+501743224+499959849+498391565+496847924+495169696
2102+493582229+492155325+490696894+489224654+487815911+486546861+485339443
2089+483904102+482287684+480816820+479675030+478704815+477619773+476364976
2075+474961162+473557836+472467332+471763893+471338108+470873338+469935626
2062+468678165+467545123+466732718+466166530+465626140+465172204+464894949
2048+464800147+464971855+465444486+466071684+466367588+466374604+466626771
2035+467164674+467820335+468450909+469106747+469961957+470922537+471763715
2021+472515332+473310020+473560678+472812791+471761495+470946159+470253866
2008+469421745+468329687+467109303+465854018+464541941+463085020+461751097
1994+460992109+460084503+458191896+455932693+453845555+452135490+450840641
1981+449528564+448039495+446592032+445377154+444305433+443437613+442991891
1967+442344400+440959057+439538059+438543733+437805570+437284407+436700458
1954+435737791+434734762+434053969+433697409+433827334+434375006+434261688
1940+433156975+432265487+431996491+431980861+431901202+431630652+431341452
1927+431425552+432134231+432848194+432999698+432987709+432916175+432769422
1913+432743668+432872571+433082510+433068124+432885182+433043657+433518863
1900+433926309+434290328+434482417+434300363+434232515+434283668+434006812
1886+433735019+433728536+434167242+435058863+435455252+434977027+434745685
1873+435741699+437363578+437832345+437123622+437334938+438536895+439452138
1859+439362088+438790172+438720458+439377407+440755201+442912720+444942223
1846+445717373+445126053+444159257+443587208+443261020+443278204+443813221
1832+443778586+441970568+440150116+439997501+439615720+438059203+436697927
1819+436017710+434756520+432681281+430884274+429081806+427101102+425458663
1805+424741948+425295658+424636268+421389622+418872436+417692770+416080970
1792+413893302+412053534+411293037+411206006+410509805+409173750+407842624
1778+406463986+405192050+403666969+401690084+401720589+403108996+402781609
1765+401719879+401233306+401071989+401380104+401242587+400817246+401965874
1751+403777312+403411028+402000775+401864501+401828934+400640076+399256776
1738+399264902+400210828+400677109+400903922+401031004+400384623+400159409
1724+400979896+402002063+402920859+403945113+404729277+404620222+404224410
1711+404374138+405005955+405388224+405832747+407124798+407822020+406966278
1697+406642443+407041941+408381148+410763348+413272364+414901126+415202848
1684+415546219+417930595+419850599+420402711+420514386+421192071+422741795
1670+424506387+426093855+427899165+429726988+431387809+433532717+436464365
1657+439476249+440835616+438971560+439572649+442440667+444505471+446404028
1643+449153444+451756551+453617232+454250469+453904345+455704282+459083028
1630+462033236+464325519+466314571+468054430+470283705+472890896+474247954
1616+474885010+477602988+481187589+483868002+485944484+488428811+491282753
1603+493948025+496359708+498878981+501610280+504533758+507863305+511520860
1589+515156169+518698186+522349480+526118221+529882122+533361620+536231458
1576+539652653+544399336+548718280+552533156+557026828+562201737+567413012
1562+572070621+575915470+581162534+589087525+597186178+605577361+613768728
1549+621181348+628395440+635645677+639905165+640860993+648383556+659705454
1535+668531301+675524620+681963961+688664305+695975508+702522616+707110867
1522+712361173+719979914+728802254+737936794+746235174+754536750+763162028
1508+768312293+767355488+771455789+779345924+786111142+790657165+795191466
1495+802038475+809615476+816203258+820626283+825211382+831114907+836745173
1481+842013018+847088508+851611441+854606897+855694159+858783750+865971600
1468+872951375+877215969+881127023+886608982+890956788+892272817+895091014
1454+902830976+909958171+914542914+918084709+923416584+929683418+935217240
1441+940998389+945818914+947641941+950519284+956391993+961908497+967119329
1427+972768333+977609639+981839865+985228646+985905887+986409333+990326959
1414+994490402+997361528+1000129194+1002013054+1002102216+1003207862+1006386526
1400+1006995030+1004304449+1003057689+1004200633+1006447358+1007591901
1389+1005709196+1001860928+1000648803+1004218306+1009471498+1013193571
1377+1014341667+1012582314+1010612578+1011497538+1013341346+1014401078
1366+1014338470+1012537999+1011862623+1014260231+1016541857+1016999745
1354+1015727409+1013888130+1013079810+1013069864+1012277618+1011183872
1342+1010363830+1008570464+1006353845+1004509593+1003555629+1003768410
1331+1003631737+1003574368+1004765534+1006768661+1008874627+1010175381
1319+1010868608+1012127001+1014193714+1016590967+1019148160+1023267733
1308+1030732838+1038526794+1041682546+1041615675+1042322932+1044436269
1296+1046404673+1047568043+1049058933+1051135948+1052823367+1054726676
1285+1058163590+1061514273+1062620096+1062215136+1061505658+1061337014
1273+1062242223+1063056049+1062001734+1059300584+1056989119+1056237458
1261+1056647746+1057143465+1057369479+1058054446+1058791366+1058921823
1250+1059758117+1061306021+1061374668+1060493438+1060596809+1061147056
1238+1061536563+1062409979+1063588712+1064289132+1064462305+1064279985
1227+1064137983+1064490102+1064799683+1064316928+1063633382+1064097398
1215+1065475680+1066791088+1067422416+1066631946+1065839700+1066968968
1204+1068571754+1069068984+1070070814+1072146941+1073272568+1073069289
1192+1072678183+1072566020+1072395333+1072400573+1073229940+1073741823
1180+1073278873+1072814679+1072346578+1071164026+1069897729+1069880589
1169+1070232087+1069254412+1067508469+1066335864+1066098660+1066319257
1157+1065255883+1062164783+1059477754+1058080555+1056529810+1055446810
1146+1055074798+1053539949+1050745997+1047989432+1045568113+1043563209
1134+1041526868+1039178104+1036837066+1033539667+1028606357+1023016232
1123+1017955484+1013902517+1010615064+1007474498+1004053925+1000344640
1111+996272845+991947329+987176980+982499878+979399186+977437887+975247377
1097+971908061+968078354+965928340+964904041+962352976+958608434+956630972
1084+956491723+955653830+953524952+951103100+948970936+946432126+943348574
1070+941218985+940027908+938528848+936636107+934891141+934032823+933854410
1057+932523284+930126653+928978469+929066921+928455308+926885025+925137395
1043+923159932+921348361+920464111+920276551+920760904+921670819+921847545
1030+921269057+920715701+920082064+919481286+919608901+920378857+921066488
1016+921134603+920920756+921187798+921893014+922728953+923652278+924336357
1003+924535195+924945039+925786395+926251921+926733964+927143098+925985056
989+924119668+922951414+921501553+920011818+919864221+919830563+918769055
976+917509063+915927324+913522345+910792422+908259473+906053955+904286787
962+903320657+903098818+902723875+901537771+900277512+899932764+900265346
949+900943919+902209150+903778545+905341546+907480637+909835706+911270203
935+912843417+915858055+919309267+921825165+923200162+924545586+926942483
922+929787766+932341851+934668591+936327770+937176408+937780828+938015544
908+937684561+937051013+935777878+934098717+933763827+934835015+935239086
895+934339118+933036055+931960692+931269508+931564258+933042005+933498117
881+931301834+928521203+927831617+929630844+932731536+935573089+937331909
868+938564459+940888712+945464930+950626118+954185764+957449949+961745359
854+965340261+967898254+971472730+975332098+977022004+976897674+976786488
841+977904567+980269493+982740100+984524585+985291344+985913702+988840776
827+993248261+995669758+997046086+999701589+1002559749+1004681878+1006905957
814+1009120090+1011295591+1015868878+1022657541+1026797095+1026642127
802+1026221982+1027909668+1029655255+1030280900+1030954411+1032137229
791+1033441358+1035346088+1038554413+1041688230+1043645444+1045304445
779+1046605022+1047281108+1048592697+1051157439+1053915247+1055627266
768+1055549293+1053973238+1053176197+1055893686+1060687481+1062551714
756+1061913637+1063175050+1064763005+1062709879+1058949708+1057629150
745+1057658989+1055468923+1052209711+1051144562+1051502898+1050601330
733+1049516999+1050968636+1052623107+1051374927+1049615397+1048746777
721+1047028275+1044660862+1042874512+1043329469+1046499075+1047458544
710+1043631768+1040674766+1040749097+1040738884+1042163968+1045494403
698+1045091309+1041565676+1041291885+1043607435+1045008008+1045228871
687+1045600971+1048246350+1050743155+1049889632+1047751341+1044598519
675+1041135940+1041909359+1047152694+1051023074+1047789972+1043423249
664+1042755155+1042589264+1041631749+1043765333+1048599091+1050141488
652+1052944055+1062901702+1066600242+1051304770+1028021120+1013373494
640+1011830297+1017434010+1013480240+986160230+963750440+979715339+1013648795
627+1022415631+1010557695+1005826954+1005183281+1000589747+1007992420
615+1021793095+1020095818+1019746541+1037795470+1059684940+1063995625
604+1048323079+1028741433+1018043581
##END=
