##TITLE=Sample description
##JCAMP-DX=4.24
##DATA TYPE=INFRARED SPECTRUM
##DATE=24/8/2023
##SAMPLING PROCEDURE=Instrument type and / or accessory
##ORIGIN=Default
##XUNITS=1/CM
##YUNITS=ABSORBANCE
##RESOLUTION=4
##FIRSTX=4397.6552
##LASTX=599.8556
##DELTAX=-1.9287962
##MAXY=1.2838242
##MINY=0.34298867
##XFACTOR=1
##YFACTOR=1.1956545e-009
##NPOINTS=1970
##FIRSTY=0.48461479
##XYDATA=(X++(Y..Y))
4398+405313411+405851628+405484549+404530226+403830342+403404639+403772016
4384+404813579+404886411+403586470+402593886+402605800+402689849+402665123
4371+402836511+402806650+401992757+400317362+398791371+398367214+398904409
4357+399881539+400873700+401997094+403151295+403347858+402325737+401238012
4344+401022182+401088857+400396551+399299977+398861088+399216825+399788443
4330+399770197+398900271+398109484+397773163+397367151+397116052+397229438
4317+397392800+397819924+398317637+398267910+398217461+398464922+398395878
4303+398234061+398273519+398047743+397788617+397951904+397799111+397238461
4290+397381534+397877228+397525429+396645233+396285732+396594759+396928537
4276+396962710+396889678+396646629+396364298+396575367+396901867+396745658
4263+396382319+395931715+395310272+394976270+395399505+396007588+395790238
4249+395091924+394848676+394878312+394639301+394086478+393504592+393301897
4236+393433329+393404017+392975024+392551065+392644062+393120888+393669748
4222+394064344+393931342+393229513+392667717+393150549+394259362+394434538
4209+393448235+392597551+392475092+392607148+392473248+392158389+392044005
4195+391703797+391136367+391383329+392187352+392502112+392440695+392505526
4182+392653110+392746257+392655977+392245129+391862223+391596143+391243073
4168+391224952+391498286+391451700+391264385+391147160+390827290+390627786
4155+391022233+391756714+392176360+391930644+391480663+391202469+390878188
4141+390531948+390375366+390274317+389792981+389013086+388692070+388817395
4128+388718541+388497127+388553110+388928912+389489737+389835728+389821670
4114+389633756+389196837+388527761+387962250+387683309+387568178+387577375
4101+387726180+387786151+387647765+387385548+387039357+386775595+386629806
4087+386425516+386151660+385935082+385982889+386257942+386319134+385815040
4074+384832800+384091639+384122696+384467716+384263900+383260248+382257170
4060+381891762+382152134+382875996+383372912+383198782+382801917+382484566
4047+382062801+381769253+382005522+382295431+382313552+382441370+382651517
4033+382691647+382454181+381682861+380829660+380914706+381673763+382073120
4020+381939345+381549036+380868818+380036679+379666734+379640812+379465012
4006+379471567+379669576+379634231+379621993+379871672+379935606+379525132
3993+378960320+378736464+378990405+379043571+378421530+377930696+378291418
3979+378862163+378852791+378569213+378429481+378156870+377980547+378411260
3966+378494836+377306885+376117414+376133515+376649898+376881904+376781355
3952+376489203+375958289+375543030+375577576+374970341+374043584+374855384
3939+376398000+376516023+375145019+373239138+372263378+372998208+373952831
3925+373815466+373625409+374007941+373745350+372946612+373251526+374717995
3912+375930372+376022198+374788235+371737100+367670849+365512024+366224321
3898+368882753+371831593+373172462+372331574+371898568+372764581+371905148
3885+370113302+370195880+370650597+371926809+373665688+373160622+370762338
3871+368119758+367398612+369305789+369682140+368599724+369986730+372469263
3858+373431413+370988936+363507463+361639120+368084862+373994805+375879774
3844+373942711+370553312+367210499+364690877+365564841+368522679+370690153
3831+372385787+373837525+374284888+374252934+372261484+367680620+367145818
3817+369405018+371564691+375279866+378647853+379029613+376070653+374102807
3804+374245406+372747232+372257147+374096152+376132992+378699624+380820437
3790+381489763+381330937+380862188+380748004+381171439+380695137+380467143
3777+382698801+385202894+385407333+382866101+380609418+381191977+383155835
3763+384988385+384606526+381884184+381493028+383715638+383515959+378865653
3750+377331736+381263314+383500406+383365733+386308865+390277508+390763656
3736+387610127+387331235+392758196+399296537+404023814+406729231+409795894
3723+415484398+423204957+431947088+441082744+450242179+460043446+473713654
3709+492368819+510919296+526318389+539181857+551674733+564156691+575034890
3696+583747809+589361487+590074856+585836170+582498990+583664209+584987406
3682+583513260+579906885+575367497+567084444+559366452+558583691+556560984
3669+553637269+555073279+556817817+556368410+554828610+553268521+550608967
3655+548697378+549290506+546615548+537077195+533631490+538694015+543801655
3642+546763605+548458741+549697689+550275962+550796556+551734853+549348383
3628+545021510+547825184+552614375+553316877+549627001+546708071+548635862
3615+551571790+553050772+554168632+554542265+555323332+558309411+560332566
3601+559226969+557630240+557429240+557975010+559646915+562286478+562976666
3588+560344431+559870746+563191175+566417885+568092133+568841594+569678344
3574+570810412+571913915+572430472+570108010+566289269+567601499+571799656
3561+574692912+577009142+579200445+580565866+581909801+583792077+585298277
3547+585333671+584747223+585692699+588014113+590021864+591132496+592749216
3534+595354433+597389054+598480642+599722283+600813174+600812227+601311236
3520+603562460+605670910+606199880+605957105+605694490+605451117+605947584
3507+607759221+609438803+609330876+608664716+609066715+610232283+611773677
3493+613572553+615193410+615476415+614336570+613865578+614959609+616463217
3480+617130373+617552163+619132990+620897369+620749112+619174267+619148893
3466+621534615+623097296+622426750+621884021+622396191+623150338+623797604
3453+624480314+625393237+625196176+623345156+622552225+623268684+623398995
3439+623230099+623598798+624031405+624686748+625868965+627010006+627652138
3426+627721281+626922468+625432071+624852253+625675145+626175599+626086067
3412+626341653+626563391+626798987+627698300+628711373+628878374+628121137
3399+627443412+626984233+626020313+625649820+626757411+628278716+629080221
3385+628395916+626877403+626761100+628751952+630895996+631449543+630756513
3372+630059795+629690697+629011078+628417102+628649309+629273095+629803411
3358+630066624+630658755+632183849+633288798+632819101+631709217+630615734
3345+629434264+628951007+629666619+630859107+631897903+632293371+631726615
3331+630881789+630459351+630533131+631030694+631435485+631411905+631414248
3318+631716246+631610661+630414884+629062125+628446714+628068993+627675817
3304+627546254+627834393+628394271+629133961+630041998+630204313+628848763
3291+627075760+626629593+627844962+629660388+631079249+631809218+631758719
3277+631446003+631503531+631326410+631083287+631972630+633166912+633320503
3264+633472748+634845546+636127467+635802138+635066835+635697252+637370353
3250+638952327+640096957+640386891+639483689+638591555+639133386+640636744
3237+641977090+643103225+643942418+644010764+643237375+642058546+641498370
3223+642211789+643739524+644782010+644128462+642313983+640930168+640435396
3210+640259621+639907224+638858108+637325687+636392923+635915899+635272122
3196+635197445+635691968+635355423+634090702+632627473+630954272+629754208
3183+629677387+629562032+628521142+627345155+626145739+624213013+622464088
3169+622160146+622559852+621825546+619700046+617946435+617286906+616969853
3156+616562271+615601940+613864580+611980659+610563742+609490549+608291431
3142+607185386+606357260+605096277+603556627+602438119+601392144+600186496
3129+598996501+597778740+596417556+595086782+594137967+593142042+591719343
3115+590241409+588986508+588110625+587365351+586359157+585419914+584911233
3102+584402802+583654588+583298103+583402291+583168490+582012693+580314816
3088+579366001+579379510+579207973+578195797+576430521+574956624+574782744
3075+574920682+574040162+572533962+571310916+570533140+569698883+568203949
3061+566269977+564773049+563923737+563096708+561941858+560684215+559602198
3047+558839327+558003973+556556647+555053388+554135979+553227693+551724285
3034+549879995+548171748+546618290+545085320+543782711+542870138+542049839
3020+540693940+538875323+537461048+536421006+535124080+533613045+532059237
3007+530472877+528773354+527095318+526213652+526081497+525763746+525182931
2993+524337009+523092826+521831843+520510591+519350706+518903043+518528163
2980+517641463+516780734+516077485+515117753+513982694+512903618+511803006
2966+510463857+508915981+507495824+506279558+504841255+503024882+501593808
2953+500688612+499663026+498777123+497924321+496824606+496175994+495566814
2939+494362512+493388622+492602820+491321398+490126967+489107263+487534063
2926+485931202+485052228+484321461+482972791+481222969+479682322+478493025
2912+477658967+477194903+476833383+476527697+476332131+475835066+474914317
2899+473991574+473264546+472580240+471608294+470475678+469738431+469049539
2885+467771507+466430314+465579008+464929199+464317128+463857102+463487008
2872+462819602+461583794+460332981+459527687+458805195+457977468+457207070
2858+456329293+455239249+454387644+453731354+452463692+450619551+449166144
2845+448518977+448236870+447828191+447256399+446821897+446618754+446162019
2831+445204231+444336623+443973458+443763036+443308494+442658337+441904040
2818+440937428+439962042+439368615+439052360+438782068+438473440+437884649
2804+437118937+436552180+436093101+435626695+435270360+434858341+434202899
2791+433517746+433061010+432764197+432361201+431762440+431113878+430559285
2777+430283558+430245073+429987493+429371184+428754078+428374512+428069274
2764+427608800+427130429+426810983+426640792+426545526+426171643+425408025
2750+424729801+424272517+423847637+423598431+423463285+423022851+422328027
2737+421803245+421522932+421316300+421108969+420986036+420963753+420694906
2723+420156265+419836570+419728394+419570964+419460394+419393145+419216722
2710+418956450+418601710+418041857+417517898+417395813+417544842+417694545
2696+417737891+417528716+417050594+416597573+416555498+416721128+416560384
2683+416285231+416251282+416205070+415885699+415435320+415150296+415041546
2669+415024672+415050769+414845058+414363896+414031489+414138644+414444705
2656+414537826+414369778+414091261+413813241+413758181+413902749+413861198
2642+413758679+413968178+414203052+414215290+414286876+414531969+414737854
2629+414754978+414716916+414848349+415080704+415313509+415634674+416000407
2615+416362101+416754379+417121283+417435943+417788016+418304448+418918962
2602+419331330+419460594+419626598+420097042+420770081+421227066+421317147
2588+421504637+421921890+422248116+422497720+422754054+422991395+423312984
2575+423802571+424235079+424335828+424258958+424217881+424213045+424254272
2561+424284681+424241560+424171619+424075955+424050929+424285479+424597845
2548+424642761+424415291+424021069+423546138+423303064+423445488+423711194
2534+423954567+424095646+424056812+424092356+424371871+424620577+424510556
2521+424241959+424201629+424256316+424259506+424377853+424588623+424721476
2507+424760061+424822724+424967641+425028708+424914250+424797200+424753480
2494+424857619+425221532+425551646+425496112+425280905+425334245+425573829
2480+425725825+425779266+425621437+425172977+424792614+424778755+424906224
2467+424883691+424707069+424393705+423979941+423619369+423359246+423118615
2453+422849270+422535308+422238046+422008282+421706833+421302192+421004730
2440+420817490+420427006+419776151+419123800+418480522+417925954+417702870
2426+417601847+417435045+417342995+417187684+416822874+416443059+416053697
2413+415566054+415087559+414606571+414129347+413736122+413306356+412760736
2399+412278601+411946842+411503741+410859067+410323667+409977750+409540756
2386+408798274+407735674+406322596+404294430+401505039+398380150+395468574
2372+392706177+389630890+386455527+383865365+381799612+380043185+378750746
2359+378053928+378446505+380257868+383354168+387187590+389957364+389804446
2345+386962861+384162403+383138188+383063262+383024403+383121438+383523412
2332+383868331+384163898+384555753+384919441+385365533+386087800+387128267
2318+388362479+389476127+390307020+390960966+391592778+392411806+393372486
2305+394141838+394610139+394829483+394957426+395196287+395557508+395995026
2291+396382917+396638628+396889130+397095812+397036589+396782025+396644959
2278+396674022+396737882+396867968+397020113+397028065+396989654+397107029
2264+397304289+397501126+397811873+398201858+398501861+398734915+398974325
2251+399189931+399423682+399730715+400187500+400827713+401368098+401717953
2237+402153277+402639300+403083972+403709054+404496177+405168220+405758506
2224+406453804+407231156+408034182+408914253+409924784+411011587+412098863
2210+413197431+414345825+415506632+416675041+418080592+419686569+421213955
2197+422960637+425135090+427308098+429309967+431376493+433632802+436061845
2183+438618606+441214451+443817274+446571396+449600845+452687024+455510389
2170+458193822+460982341+463826593+466619848+469151584+471242537+473148493
2156+475143333+477087524+478681063+479685712+480044988+479857847+479280921
2143+478544820+477621878+476119716+473713853+470441729+466688244+462720049
2129+458470545+453890579+449103082+444339813+439604311+434657889+429663012
2116+425012457+420667039+416354324+412038718+407898562+403993006+400251384
2102+396691221+393313861+390028726+386846758+383914244+381230163+378574797
2089+375968359+373671297+371580244+369407934+367222738+365185948+363228795
2075+361331613+359603576+357988352+356327040+354505931+352582827+350911396
2062+349605223+348270461+346708129+345214192+343948025+342685098+341314692
2048+339931325+338590481+337274064+335992817+334879793+333940648+332930990
2035+331788329+330781362+329985365+329152354+328247782+327372397+326385795
2021+325189718+323928835+322852725+322138958+321590845+320849136+319904484
2008+318999562+318236492+317527485+316786649+315986165+315151135+314307206
1994+313199292+311794464+310772367+310351525+310134049+309869490+309306372
1981+308483680+307692170+306983437+306367154+305822556+305074865+303911889
1967+302744577+302238663+302150377+301832826+301275915+300655443+300023830
1954+299565799+299261234+298773765+297958576+296909585+295659345+294845053
1940+295203582+295837039+295806057+295375792+294986057+294685405+294386971
1927+293852842+292730770+291597530+291290398+291190073+291215472+291959075
1913+292586874+292328820+291797259+291903566+292458633+292814669+292888075
1900+292842610+292560154+292018448+291713035+291486263+290812251+290600384
1886+291192441+291582401+291678638+291754935+291783948+291780783+291679585
1873+291059214+289166842+286862701+287148323+289499050+291157345+291691176
1859+291943322+292251726+292533733+292788597+292991341+292810706+292019445
1846+290781493+290425756+292315037+294546968+295682974+296471793+297284166
1832+296977980+295661588+295891377+297644090+299318488+301157294+302764741
1819+303421629+303415148+303081046+302192825+301075513+300844005+301388703
1805+301562134+300672617+299132568+298396916+298685404+298624187+297407597
1792+296650559+298561001+301023893+302043895+302129489+302151673+302397987
1778+303167214+303619413+302401477+300105860+300233080+302779248+305212927
1765+306454543+306311046+306304865+307318835+308182605+308773813+308321166
1751+305542293+302680568+303166940+305123544+306282980+306549509+306614714
1738+306943831+306049877+303345980+303599896+307023418+310504916+312697790
1724+313518513+313817245+313147646+310053316+307931879+311873901+317413576
1711+321298170+323003276+323030419+323428430+324964192+325659365+326089779
1697+329567215+336441801+343674517+348546910+351875141+354381852+355414666
1684+358150493+366402563+375019818+381743405+387160446+392705504+397833234
1670+403325575+412420851+421784152+428452678+435024444+443612985+451720063
1657+457133091+459864182+465726417+476275550+483035952+489878210+501821178
1643+513364790+521614792+526714306+529013038+533138114+542439126+550462654
1630+555314309+558244255+560508490+562572324+565523208+568308337+568198465
1616+566754729+568497173+570692564+570561605+569320812+569027538+569448381
1603+569680039+569660348+569474852+569024198+568872053+569972465+572176032
1589+575086436+578787329+583157523+587898159+592671648+596642135+599709571
1576+606155513+616675283+625353505+633023739+642741157+653562776+664027710
1562+671481939+674151613+681737699+699680791+715345191+728503279+739925902
1549+750986457+760320968+766450805+770574086+776749436+792364882+808230880
1535+818864410+827975888+837666237+845892061+852473099+858404578+862614799
1522+866624320+874569682+883777372+892666116+901541300+908164811+910822371
1508+907967201+907383146+919148894+929454106+934347087+934936028+934622863
1495+937727887+941310483+940112562+934969428+934761250+938763991+941163223
1481+940459226+938334275+934838419+927796857+918682687+915575171+919602340
1468+922574859+921275840+919302535+919433045+918198633+912060273+908295521
1454+915331599+924578273+931793417+937454404+943482494+949562429+955414345
1441+961831872+967691964+971837678+977607041+985877332+992625970+997541883
1427+1002187902+1005331510+1008065143+1011000772+1011193596+1012718739
1416+1019490408+1025216401+1026889302+1026412826+1025341826+1023726552
1404+1022719660+1022910290+1021303890+1017196860+1014839403+1016125860
1393+1018725593+1019229487+1015139108+1008065841+1005699710+1009305936
1381+1013687844+1016552685+1017300949+1015170714+1013777077+1015956765
1369+1017997668+1018018605+1016858172+1014160532+1012549046+1014494434
1358+1016098143+1015052467+1013991038+1014394632+1014276186+1013018544
1346+1011438763+1009909333+1007881591+1003937973+999754971+998891351+1000435836
1333+1001746122+1002454306+1003285822+1004245255+1005602999+1007516183
1321+1009227769+1010378332+1011766584+1014664426+1019387914+1024356071
1310+1027549430+1029026816+1030685162+1034057486+1038685958+1042623394
1298+1045011858+1047223949+1050305543+1053094311+1054447867+1055243290
1287+1056410304+1057575323+1058849317+1060248337+1060704275+1060578949
1275+1060834486+1060519626+1058906047+1056758663+1054724640+1052866691
1263+1051178136+1049910224+1049634547+1050485505+1051358297+1051427790
1252+1051824305+1053781757+1056289265+1057654387+1058385104+1059456104
1240+1060047337+1060369874+1061407075+1061988438+1061603688+1061535890
1229+1062203595+1063592944+1065384791+1066435552+1066832665+1067939359
1217+1069230501+1068847645+1067734272+1068182133+1069355129+1069530904
1205+1069975376+1071829137+1073207619+1072934734+1072547591+1073138924
1194+1073741823+1073412108+1072555467+1071410089+1070167402+1069640277
1182+1069651643+1069007966+1067532574+1066249906+1065592670+1065373425
1171+1065130949+1063949978+1061839782+1059702268+1057746212+1055518169
1159+1053041768+1050563173+1048008904+1045772885+1044089813+1041977325
1148+1038749169+1035079134+1030931725+1025704243+1020225412+1015111790
1136+1009849711+1003672965+996795911+990997236+986539654+981636303+975617784
1123+969178922+963032286+957056240+950749981+944896968+940266602+935920387
1109+931593215+928125077+924547964+920071039+916833213+915570785+914630593
1096+914033378+914119221+914312643+914555119+914940468+915819043+917284564
1082+918763446+920644925+923328806+925464924+926599734+927945812+929991799
1069+932497015+934697939+936382706+938614338+941664525+945110231+948868303
1055+952471936+955236078+956630213+956737692+956957635+958334720+960366251
1042+961718212+961613923+961547821+963364692+966567723+968729564+968510519
1028+967768834+967784687+968137134+969486602+971617835+972940184+973431915
1015+974072102+974806409+974575897+973414068+973138193+973738399+973400110
1001+972453239+972130802+972331104+972173076+971048935+969297069+967159754
988+964419940+961257787+958811296+958211987+958300024+957209382+955208161
974+952961972+950402320+947860015+945783818+944554192+944279413+944030855
961+943371126+943302133+943694261+943473321+943050784+942915687+942910303
947+943333140+944278815+945484512+946963294+949128326+951914901+954172555
934+955501585+957044276+958940510+959732744+959428652+959789275+961360181
920+962871466+963222218+963063692+963446149+963809464+962963990+960598457
907+957484261+954910052+953439446+952851502+952612317+951876914+950579690
893+949191936+947459013+945636658+944757185+944973639+945715223+946692603
880+947591318+947988531+948505088+950291152+953511132+957643585+962649429
866+969131463+976362460+982596933+987018423+988582151+987573565+986296480
853+985414316+984668444+984140123+983131237+981523141+980738386+982092540
839+984632153+985718806+985598266+986792000+987738073+985580220+982136608
826+979264290+976775625+976921290+980982955+985307934+987460403+988714655
812+990096926+991964745+993596071+994165969+995197587+998419560+1002348422
799+1003496492+1001768056+1000896460+1002882626+1005568203+1007038510
787+1009662770+1014664127+1019205060+1022988955+1027311342+1030202803
775+1030896829+1030923350+1030717166+1030874795+1032375013+1035833580
764+1040020371+1041914612+1040917391+1038530124+1037044761+1038698022
752+1041863963+1043004556+1042154096+1041654290+1040991968+1038995633
741+1037925530+1038203001+1037183347+1036062496+1037207575+1037960226
729+1035947240+1033386092+1031169415+1027328391+1023042495+1021432605
718+1021738890+1022651863+1023505711+1021952652+1018933671+1017276223
706+1016788381+1016613304+1016896458+1017244817+1016139021+1014091338
694+1013509377+1014148966+1013380961+1010541046+1007909209+1007098630
683+1009247111+1013185445+1013672091+1010532172+1009424681+1012319033
671+1013826430+1009010618+1006948678+1013428818+1015695346+1010542740
660+1006624148+1010994192+1019149925+1023210194+1021560124+1016400440
648+1013438788+1016045101+1018832274+1018988408+1020986638+1024541716
637+1024116586+1020893017+1019861998+1020213149+1020821631+1020532993
625+1014548174+1005311569+1000743318+999297338+994681429+991470522+995850237
611+1000602339+1002710341+1008948304+1011336070+999423461+987384430+989860033
##END=
