##TITLE=Sample description
##JCAMP-DX=4.24
##DATA TYPE=INFRARED SPECTRUM
##DATE=24/8/2023
##SAMPLING PROCEDURE=Instrument type and / or accessory
##ORIGIN=Default
##XUNITS=1/CM
##YUNITS=ABSORBANCE
##RESOLUTION=4
##FIRSTX=4397.6552
##LASTX=599.8556
##DELTAX=-1.9287962
##MAXY=1.4434379
##MINY=0.53279895
##XFACTOR=1
##YFACTOR=1.3443063e-009
##NPOINTS=1970
##FIRSTY=0.67002469
##XYDATA=(X++(Y..Y))
4398+498416675+496533881+496556272+498115527+499940326+500537079+499711849
4384+498470768+498007696+498768679+499963027+500259431+499226297+498234044
4371+498410911+498574298+497321733+496020839+496188395+496975937+497696040
4357+498055714+497770174+497365673+497372501+497962160+498355310+497523252
4344+496195356+495945685+496560573+496644994+496082780+495320245+494229294
4330+492955890+492324508+492740848+493436520+493650454+493250830+493029980
4317+494510224+497123895+498064183+496416561+493860087+491945591+491140446
4303+491075890+491282241+491743629+492466569+492803676+492003453+491110385
4290+491707493+492751489+492489581+491489169+491028536+491852214+493479041
4276+493558407+491724829+490357250+490492039+491201545+491122135+490412318
4263+490320183+490614990+490359821+490043820+490627316+490946953+489660868
4249+488413136+488749222+489628456+490061910+490181935+489579506+487915701
4236+486171199+485667158+486714170+488093233+488653185+488467450+488160849
4222+489005277+491287518+493034724+492578613+490564400+488598826+486802980
4209+484859974+483831718+484186648+485295290+486423353+486498994+485309390
4195+484087507+483816953+484052968+484027695+484044721+484673929+485654743
4182+485902507+484934286+483980252+483974887+484140492+483670547+483183576
4168+483461225+483812564+483605990+483744992+484674772+484968692+483941367
4155+483246138+483482862+483314553+482477928+481944091+482368367+482983122
4141+482675634+482349435+483012651+483633657+483225654+482218680+481440449
4128+481233255+481120147+480650291+480363155+480490185+480630339+480612426
4114+480133525+479532515+479548300+479752790+479627311+479611482+479895338
4101+479803380+479171200+478623796+478325397+478400330+478937359+479254158
4087+479084563+478845533+478470074+477899038+477832973+478520931+478866106
4074+478052006+476949394+476629313+476793011+476932767+477050796+476756122
4060+476002587+475465115+475213671+474775118+474088624+473712544+473838731
4047+474029121+474426705+475051347+475200990+475001910+474977878+474810323
4033+474451180+474420409+474462531+474268151+474156905+474140189+474377002
4020+475049529+475399583+474832492+473796122+473054426+472838896+472820185
4006+473040903+473474002+473125102+471879099+471373373+472109349+472648994
3993+472769329+473056554+472693554+471768607+471227898+471023275+471328502
3979+472405930+473559487+473583075+472567943+471832543+471359539+470835014
3966+471563053+473598682+474070977+472208135+470584811+469999675+469967574
3952+471051563+472904517+473510049+473200965+472973552+471414076+469714134
3939+469792214+471146492+473493866+474631594+472353743+470246463+470558518
3925+470611104+469649622+469887986+470761234+469675914+467098424+466159199
3912+466985404+468341500+470543133+472559740+472002803+469697108+467552273
3898+466694455+468114398+469673254+467896740+465452664+466995691+468778767
3885+467958991+467462975+466107678+464408756+465667839+467407730+467454108
3871+465516334+462928202+463710379+465119637+463765093+463085737+465070465
3858+468397633+470095978+464351205+458779352+461083273+464214110+465768310
3844+466316690+466304851+465063637+461725739+459490188+459930071+460789708
3831+461914223+463226379+463591463+464194734+464404544+461386505+460072087
3817+460315462+458882350+459969266+462671482+463345073+461205027+460423648
3804+462246674+461083495+459031283+459973124+460798575+461590108+462757454
3790+463689629+464647697+464465421+463076071+462553364+461833482+460529617
3777+461130317+462849811+463922406+463332260+462120397+462269242+462433605
3763+462691079+463524334+463346803+463164128+464939888+467133407+465952803
3750+463618288+467055459+471840657+472080086+472885452+477456583+482556895
3736+483649486+479393248+477539984+481056344+485435356+486866650+485120685
3723+481484877+477102672+474647689+475352318+478043049+480189303+480106789
3709+481183773+485062291+489916480+494337658+498750411+504162202+509956679
3696+515931792+521508478+524609119+524527492+524766433+526823477+529077562
3682+530779322+531675360+531711363+527944711+522387756+522163713+521872143
3669+520305350+522461801+525834194+527833909+529666911+532466937+534597761
3655+537058818+542609300+548139253+548077977+546471945+548896867+551971083
3642+553157184+552523364+551215509+549855157+549809133+552160630+552569742
3628+546468930+542578751+542754110+543121278+541338024+537291862+535341230
3615+535484266+535893645+537399028+538111505+536178609+534797772+535171679
3601+535516190+535323805+535056133+533469654+530773691+530804595+533396673
3588+532424594+527322774+524538887+523978625+522822629+520665778+519141950
3574+518970005+520591245+524563672+528118120+525734832+520639219+518286658
3561+517607702+517644769+518796153+519826404+519248495+518885939+521231716
3547+524447017+524306553+521224844+519076861+518760505+518772742+518048294
3534+517234459+517211093+518005463+520078070+522898670+523485358+521024921
3520+518171688+516338155+515481666+515935472+517697487+519400976+519775238
3507+520344235+522570165+524165822+522389751+518436700+515339916+514983744
3493+516673665+518030825+517855510+517501865+518625937+520798262+521574054
3480+519800954+518036544+517807802+517890050+517832764+518017124+517992782
3466+517103572+516093273+516215293+516910699+517258358+517608145+518000763
3453+517834538+517448792+517253924+516549738+515976263+516543487+517022166
3439+516597314+515760955+514832727+514227815+514257212+514697405+515111749
3426+515093438+514044431+512432324+512012393+512778653+513723597+514460992
3412+514437980+514292638+514696208+514675458+513730691+512846890+513000656
3399+513356606+513192997+513386757+513570939+512955564+512293633+512199103
3385+512578331+512853452+512389803+511583063+511132982+511083145+511443086
3372+511964020+511981667+511309050+510525144+510735664+511740820+511761925
3358+510441078+509107152+508760380+509126572+509252272+508931704+508607101
3345+508592691+508777672+508993911+509069464+508549062+507880658+507816367
3331+507850596+507388322+506798974+506811787+507433680+507781029+507230831
3318+506250372+505584673+505358014+505265657+504800633+504005953+503717885
3304+504134091+504562225+504811230+504939103+504451777+503304915+502202392
3291+501801305+502035679+502429228+502693353+502325520+501302984+500526127
3277+500250208+499809705+499239954+498929273+498701107+498585028+498497947
3264+498173877+497699631+497610821+497962692+497531632+496350009+495753256
3250+495869778+496181788+496128804+495557900+495288942+495455788+495048317
3237+494126739+493958829+494697066+494704693+493665751+493530208+494384169
3223+494515322+493895159+493860929+494264898+493550116+491864762+491121913
3210+491775597+491735116+490302713+489656301+490708367+491450728+490571183
3196+489879058+490293136+490403229+489430351+488783851+490273849+492343574
3183+492312094+490486630+489767103+491569954+492762751+490735502+488451976
3169+489773887+492540792+492034179+489006563+488832357+492525628+493884384
3156+490081951+486846343+489779828+494982518+493807546+487718439+486759173
3142+493810738+498262643+493081723+487159950+489953103+497297303+496751672
3129+488720757+486115111+493884118+500982505+495801541+486436388+487582452
3115+498986692+503635460+493456118+483689214+487006450+496785369+496338836
3102+486121185+482440639+490929173+500252957+496034629+484752364+482993763
3088+493393734+501325331+494117251+482859772+481720713+489309396+492938155
3075+485963695+478595375+480176046+488107909+490367270+482755532+476229601
3061+477813863+484339750+486033617+480027955+474890044+475297560+478462448
3047+478719612+475289712+472520944+472319248+473704607+474382810+473179106
3034+471780933+472179670+473691616+473592253+472051443+472234251+479589402
3020+508914190+566521633+613380072+604518694+566375227+535037201+515399152
3007+501916985+491786681+485249045+482118120+480413701+477812267+474874569
2993+473813148+476496076+480218300+478533611+473262684+471553121+475973723
2980+482672973+482926235+476370686+471666052+472930544+478656651+481717743
2966+477228239+471380866+471540352+480100714+488540742+484384354+474112433
2953+470173172+475431817+484806768+485732558+476939063+470448559+472422291
2939+481028544+485578525+478925786+470596117+469629226+476802633+485008730
2926+482627659+472841468+467731667+471033473+478458191+479758288+472501657
2912+466387765+466907502+472310868+476002366+472822580+467497116+465909085
2899+469090113+474469093+475404283+470391495+465932008+466144967+469840322
2885+472139233+469680703+465766049+464523815+466525658+469208807+468860395
2872+466066443+464144631+464333780+466222515+467630132+466510716+464348367
2858+463523403+464166180+464807227+463955704+462041608+460640774+460370264
2845+461067710+461708403+461360656+460667023+460602953+461191282+461731282
2831+461718690+461391870+461220546+461486444+462172983+462773771+462646342
2818+461826078+461100344+461051483+461250119+461033304+460585661+460269128
2804+460000658+459897526+460148305+460221242+459752229+459466511+459860105
2791+460350135+460324507+459993076+459813593+459858553+460052667+460264428
2777+460456858+460649243+460713534+460790107+461035609+461191504+461068065
2764+460786426+460578745+460680369+461033747+461224314+461153195+461080391
2750+461025633+460922546+461002577+461486710+461953063+461737090+461120473
2737+461053699+461571530+461830068+461742765+461959803+462393567+462415426
2723+462181185+462227830+462545294+462921773+463264998+463568008+463660099
2710+463351103+463021712+463080860+463370125+463606095+463805441+464190876
2696+464642864+464788516+464786698+464971457+465143358+465099197+465026304
2683+465133293+465321821+465334901+465229685+465395822+466036692+466839841
2669+467398995+467538218+467331290+467186037+467341665+467691452+468088061
2656+468372005+468505154+468705742+469157330+469652060+470025435+470353275
2642+470669985+471033163+471433363+471933059+472619731+473363821+473961505
2629+474203549+474135268+474066898+474197164+474472640+474795070+475275568
2615+476027062+476799574+477190285+477367507+477762962+478273566+478710389
2602+479150184+479572509+479860532+480044937+480203270+480455689+481042200
2588+481819589+482254328+482257875+482422283+483053664+483700431+484186515
2575+484830179+485632618+486189112+486244003+486160780+486361766+486713771
2561+487101511+487662528+488308009+488844062+489239341+489563013+489928850
2548+490303467+490572469+490712136+490839831+491220522+491828581+492351422
2534+492718945+493148718+493682378+494060187+494304936+494643993+495108617
2521+495602194+495769306+495508684+495369594+495675397+496203780+496701481
2507+497077605+497321911+497450581+497660968+498108655+498558026+498790582
2494+498838202+498800026+498729040+498627682+498703767+499170342+499787757
2480+500108946+500038314+499809572+499601978+499563448+499876301+500384333
2467+500526349+500151422+499785983+499748296+499898869+500107083+500297030
2453+500276457+499966397+499657934+499564335+499517070+499427861+499320207
2440+499093149+498897261+498926923+498927544+498668030+498237414+497767292
2426+497374408+497195812+497125491+496894398+496562923+496344733+496264613
2413+496167733+495811428+495172110+494477413+493898351+493539474+493391384
2399+493183613+492936292+493332502+495353455+500161709+508895967+522143406
2386+539687520+560447911+582498334+603762810+623079670+640837496+658758089
2372+677859995+696867150+714180792+730257255+744435316+753257099+755958206
2359+753708909+745422559+731093170+713359952+695842840+685242681+687416114
2345+698044029+701409461+693013905+682699463+675576425+672816791+675795413
2332+681454347+682203137+678093970+676852002+680105124+681357689+675940800
2318+665623520+655652792+652218857+655195528+656067269+649321286+636801044
2305+622290133+610045012+601683862+594470728+586209340+576942576+566751883
2291+556182983+546419759+537980751+530666879+524399531+519315092+515279261
2278+511871973+508777273+505949890+503447863+501347677+499759425+498510939
2264+497250304+496119094+495312841+494586176+493941182+493531804+493201526
2251+492843314+492662236+492717215+492563272+492106097+491801757+491845696
2237+492121216+492326991+492341668+492444932+492783014+493229991+493725652
2224+494301433+494830525+495231346+495701734+496331254+497015309+497716879
2210+498347108+498875180+499517159+500389387+501368428+502141161+502574349
2197+503063758+503876706+504830473+505631494+506243899+507040175+508125229
2183+509061926+509653403+510323891+511340398+512346884+513039275+513546110
2170+514119496+514772382+515371041+515986284+516632075+517064554+517287754
2156+517551835+517884374+518187562+518285106+518117285+517954562+517914126
2143+517876792+517661440+517232819+516757420+516120009+515133121+513881398
2129+512559798+511339467+510181697+508903239+507415989+505883293+504557392
2116+503334755+501843959+500053389+498299399+496724182+495185678+493622831
2102+492083351+490530126+489013214+487589635+486210306+484962973+483681011
2089+482090586+480448373+479038096+477768460+476517802+475311127+474153447
2075+473068526+472067892+471041277+470173305+469745969+469347587+468358792
2062+467044330+465957414+465125135+464487191+464056220+463726651+463398413
2048+463196007+463205584+463409054+463948034+464581721+464875464+464953677
2035+465226360+465871619+466732187+467662854+468523333+469231819+469869896
2021+470532137+471263635+471449591+470553286+469388645+468625755+467911638
2008+467051602+466169885+465101014+463697565+462128600+460628138+459520870
1994+458985083+458210044+456418588+454250387+452230187+450414966+448905414
1981+447496245+446084504+444807376+443629211+442386223+441329900+440789546
1967+440193635+438945194+437628160+436778633+436115549+435362769+434425141
1954+433312552+432392881+431872790+431551379+431471215+431720620+431606005
1940+430763172+429940248+429590372+429598752+429583943+429416388+429293614
1927+429380030+429872410+430468498+430610160+430369268+430062224+430007820
1913+430211600+430517714+430820458+430868166+430797402+430991782+431303748
1900+431639037+432215084+432633241+432510911+432333601+432165424+431819761
1886+431697741+431738000+431956058+432619629+433033840+432803324+432896169
1873+434054958+435438322+435351241+434492181+435070045+436534239+437493637
1859+437497494+437040364+436852501+437291276+438617886+440692400+442432291
1846+442968654+442433709+441600720+440970004+440606915+440839028+441514038
1832+441193337+439034004+437316327+437279437+436772825+435309828+434242599
1819+433782275+432658026+430645054+428859672+427047643+424996496+423255674
1805+422392402+422680558+421784387+418493133+416009241+414810060+413032038
1792+410744300+409248138+408890060+408911609+408106065+406621787+405325459
1778+404210698+403014709+401121585+398557085+398310208+399965412+400140815
1765+399273331+398636008+398482508+398914676+398738873+398355566+399436186
1751+400590364+399567429+398427616+398801346+398838857+397530159+396337451
1738+396703954+397636173+397697404+397782756+398162294+397968535+398110285
1724+398906695+399530627+399701464+399588888+399894248+400754905+401375068
1711+401828830+402097610+402119558+402782287+404115370+403917133+402196396
1697+402281393+403585879+405529993+408072013+410365515+411501780+411120734
1684+411247011+414429768+417022555+417699073+417517862+417912298+419308919
1670+420902270+422823373+425279686+427307955+428880955+431174900+434049814
1657+436353426+436638878+434968421+436942952+440036499+441742293+443926457
1643+447137147+449645381+451036770+451085720+450444052+452735381+456480972
1630+459108344+460808773+462766277+465017702+467653498+470235866+471345085
1616+471955139+475038401+479024573+481983287+484044588+486163662+488681295
1603+491382535+493938832+496498233+499412120+502539543+505819312+509397658
1589+513047300+516609197+520421162+524382771+528084688+531433138+534176500
1576+537355710+542187020+546717004+550415552+554876635+560358835+565775946
1562+570324554+573251388+576913800+585246572+594380721+603389213+611765881
1549+619122628+626212058+633243759+636991567+637086318+644348403+655710388
1535+664203311+671470273+679437607+687198943+694118246+699799172+704215340
1522+709464585+716929785+725672068+734577341+742602847+750746028+758759341
1508+762746355+762373556+768385248+777259350+784330912+788833850+793291474
1495+799948381+806959022+812856409+817452192+822688579+828824242+834677024
1481+840307138+845778076+850374480+853177566+854950311+859159462+865908593
1468+871593776+875173762+879205913+884385281+887743929+888128699+891708863
1454+900660026+908217804+913564506+918552686+924507535+930342494+935469808
1441+940486187+944390377+946391998+950319510+957426011+963673672+967984536
1427+971945302+975673202+979962783+984266641+985486041+985720149+989511985
1414+994218171+997699992+1000816906+1003495400+1003792025+1002349070+1002615900
1400+1003976828+1004445576+1003722591+1002575906+1004321339+1007453328
1389+1006514148+1001528629+999802705+1003102471+1007184370+1009861002
1377+1010370453+1008446867+1007518506+1009361572+1010967339+1012010094
1366+1013093285+1011986417+1009619534+1009986126+1012440444+1013645744
1354+1012140715+1009713177+1008487038+1009935136+1012453391+1012518746
1342+1009790770+1005618243+1002320782+1001561439+1002506029+1003840265
1331+1004255541+1004073309+1004277089+1004518734+1004633571+1005238527
1319+1006188260+1007163975+1009193174+1013162720+1018230088+1023923429
1308+1031744401+1039840184+1043314999+1042659409+1041968081+1042795883
1296+1044890083+1048298922+1051706077+1053171467+1053534068+1054546407
1285+1056894578+1059570590+1060646421+1060354673+1060464988+1061624087
1273+1062402140+1061776257+1060573085+1059499204+1058522425+1056855206
1261+1054659204+1053848872+1055514850+1057849011+1057530748+1055727409
1250+1056620743+1059505678+1061057528+1061057085+1061370381+1063296538
1238+1065632561+1065842815+1064029810+1062547394+1061795766+1060685084
1227+1060737670+1062809967+1064249197+1064544758+1065058022+1065465848
1215+1065290179+1064792700+1064617474+1064899910+1065893095+1068037132
1204+1069967811+1070432479+1070584916+1071453331+1071631572+1070308775
1192+1069720313+1071135601+1072991791+1073741823+1073190074+1072225000
1180+1071327321+1070124060+1068857395+1067926374+1067326118+1067211015
1169+1067091744+1066303049+1066003853+1066398111+1065418406+1063704099
1157+1062987410+1062377399+1060805153+1058121870+1055814047+1055434065
1146+1055502347+1054498078+1052647651+1049970842+1047048219+1044847518
1134+1042682021+1038862961+1033172902+1027686888+1024081984+1021260187
1123+1017910673+1014992928+1012794798+1010123753+1007039117+1003011843
1111+997573095+992801997+989498506+986368733+982636222+978200147+973058733
1097+968170935+965766010+966112472+966672202+965154138+961808614+958467613
1084+955824324+953146805+950061016+948087151+948012042+947670014+945676551
1070+943107484+941047514+939553303+937998172+935847307+934108525+933812786
1057+933947132+933261835+930836603+926952542+924002075+923335223+923515326
1043+922575082+921185511+920968695+921465997+921859901+921776899+921031390
1030+920287389+920092121+920122892+919834160+919284804+918962374+918891078
1016+918822530+919155513+920272136+921571079+922533581+923001265+923072916
1003+923634243+924627427+925079237+925243556+925297649+924699521+924172868
989+924447590+924272718+923021661+921785235+920423508+918455673+917127555
976+916627859+915068293+912095923+909591414+908474525+907706492+906068358
962+903706708+901736035+900427958+898907765+897307674+897146459+898390511
949+899566991+900914441+903334795+906063037+908226051+910035066+911626732
935+913191973+915402695+918029224+920014440+921315157+923319261+927080858
922+931033377+932915817+933300675+933697683+934618773+936268789+937662972
908+937555584+936860089+937027245+937770892+938085519+937301169+935619761
895+934239767+933225566+931450781+929253981+927732636+926911130+926945271
881+928217700+929848118+931092436+932325138+933643235+935033161+936452351
868+938069468+940877963+944659690+948413661+952971579+958506985+962589151
854+964618794+966744474+969389626+972307194+975911123+979635564+982898352
841+984514139+984252453+983976489+984100460+983923460+983025781+982796639
827+985386900+989459488+993404913+998046187+1002872177+1006492600+1008949844
814+1010537343+1012625868+1015730545+1017462587+1019252447+1023425595
802+1026277453+1025414358+1023780481+1023808060+1027555735+1038911024
791+1051641786+1051395086+1042025988+1038166757+1042589531+1048923919
779+1051716541+1051577850+1051861705+1053880530+1057245031+1060093785
768+1059494948+1056408184+1055644940+1057709256+1058243802+1056804305
756+1057640087+1059780400+1059272634+1057918622+1057386471+1056363934
745+1055316036+1055637313+1056671201+1056776726+1055928618+1053896935
733+1051324765+1050681589+1050908160+1049455716+1046980647+1044872259
721+1044284595+1044877047+1043987881+1040779275+1036607723+1034680857
710+1038229186+1044572175+1046603858+1042237039+1038557557+1040871588
698+1044764871+1045027799+1042835255+1041277730+1040464205+1040595536
687+1042790296+1044278831+1043822587+1043822587+1044731085+1045979216
675+1045889829+1043710588+1040278959+1035017564+1032089178+1035384156
664+1039495850+1041726170+1042884205+1044970779+1047482383+1047857399
652+1042367661+1031032944+1024920870+1029383283+1034499690+1035199086
640+1034572582+1034295998+1039247288+1048119085+1051276525+1047913531
629+1039089886+1029026978+1017843988+1004133698+1000214344+1009340467
617+1017056091+1020138510+1023001364+1024986491+1025607674+1021879863
606+1016554089+1019576917+1024118785+1019684926
##END=
