##TITLE=Sample description
##JCAMP-DX=4.24
##DATA TYPE=INFRARED SPECTRUM
##DATE=24/8/2023
##SAMPLING PROCEDURE=Instrument type and / or accessory
##ORIGIN=Default
##XUNITS=1/CM
##YUNITS=ABSORBANCE
##RESOLUTION=4
##FIRSTX=4397.6552
##LASTX=599.8556
##DELTAX=-1.9287962
##MAXY=1.3973157
##MINY=0.37583843
##XFACTOR=1
##YFACTOR=1.3013517e-009
##NPOINTS=1970
##FIRSTY=0.63029063
##XYDATA=(X++(Y..Y))
4398+484335349+483256572+482744917+482980065+483225106+483462224+483763877
4384+483800472+483304710+482407630+481590887+481484581+481799058+481353587
4371+480504003+480468736+480809870+480634448+480174274+479664130+478924609
4357+478457978+478613201+478669354+478239822+478197409+478725233+478406175
4344+477576883+478007148+479108413+479157696+478350984+478099988+478384099
4330+478494619+478603903+478734256+478492970+477342971+475789318+475261128
4317+475614995+475846525+475856143+476218072+477409201+478684194+478733248
4303+477358269+475287602+474078747+474722679+475790188+475968954+475428856
4290+474562097+474087770+474218947+474396659+474443881+474944132+475636385
4276+475174974+474139114+473864760+473995616+474210932+474369728+474038212
4263+473358051+472401978+471541631+471715862+472677157+473894622+474761198
4249+474116854+473138155+473557244+474427622+474312246+473111407+471811543
4236+471028189+470331906+469660813+469492857+469675837+469649271+469462353
4222+469389573+469425940+469654035+470164316+470672536+470776324+470281432
4209+469423513+469126074+469291878+468700801+467946349+467973418+467787599
4195+466995452+466465796+466518972+467427365+469177555+470297875+469580568
4182+468076519+467666269+468124061+467968380+467353807+466887634+466378085
4168+466185350+466817923+467664895+467732087+466956337+465932889+465193231
4155+465034755+465360637+465754123+465830704+465456364+464592261+463711395
4141+463478858+463545546+463748861+464230058+464157782+463646539+463736632
4128+464295830+464840142+465090176+464784493+463988635+463228641+463341955
4114+464009704+463921077+463248427+463112624+463302886+463222137+463188243
4101+463052394+462663260+462845140+463382857+463343284+463094258+463128288
4087+462862407+461963999+461175653+460890444+460642150+460537767+460951864
4074+461255578+461039117+461070583+461626529+461980076+461842852+461412313
4060+460763297+460249031+460000738+459861087+460248390+460997437+461328770
4047+461155638+460342879+459025886+458268365+458476352+458735088+458323831
4033+457696113+457536676+457749152+457648708+457382094+457880512+458583117
4020+458221372+457302032+457016822+457539241+458265113+458451298+458058408
4006+457506676+456804850+456059375+455696164+456076047+457113098+457715808
3993+457154595+456401746+456341012+456454922+455983939+455155516+454861100
3979+455196097+455363183+455156249+455132432+455319900+455405916+455669782
3966+456151620+456098032+455329519+454954079+455497658+455872777+455365198
3952+454665892+454334239+454564120+455354985+455209013+453639146+452907458
3939+453233019+453529221+454037945+453989715+452990085+452896831+453205904
3925+452034103+450961876+451471836+451713259+451329850+451983217+453506641
3912+454746549+455352236+455109073+453166377+449888320+447867989+447984510
3898+449523186+451585975+452398642+450607780+449482514+451474951+452171738
3885+450381701+449760349+449000813+449011805+450854470+450949463+449357978
3871+447476748+445761826+446733426+448092511+448191902+449221900+450921020
3858+452072897+450410602+442577434+439393547+444723400+449838533+451930911
3844+451231742+449659722+448086969+445482937+444478863+446269221+447853699
3831+448471799+448893315+449196892+450084399+449410879+445214445+444501856
3817+446260336+446353955+448086420+450916577+451801291+449864137+448645114
3804+448744230+446606187+446025371+448107763+449567751+451100061+452488872
3790+452943962+452981061+452588446+452181128+452297007+451393652+449840915
3777+450428052+452347618+453490060+452613729+450861661+450355685+450582863
3763+451519242+451878788+450049956+449176189+450166202+449077119+443857557
3750+440942803+443815786+445928362+445532815+447644613+451066900+451650785
3736+447844401+443748044+443959284+447231890+450459152+451129466+449439734
3723+448188375+448823650+450827950+452938969+453850385+451477378+446787701
3709+446197220+448803589+450899081+450806652+449181731+449367459+451306491
3696+453006024+453885012+453031581+449751189+448502761+451221894+454136511
3682+455341885+454923254+452934664+447767225+444046995+445744879+445606282
3669+443855221+445883751+448234361+448305720+447897303+447908799+446432552
3655+445162871+446811656+447385464+442241613+437794779+438525872+439819232
3642+439216293+437056311+434112931+430399754+426666379+423830496+418633286
3628+410644254+408731878+410244722+409876152+405209972+398393932+395733333
3615+395083172+393164110+391114054+388240017+385511815+385076512+384096439
3601+380813642+377840146+376124537+373811966+371562075+370983525+369869756
3588+365780658+362543320+362534892+363029601+362466349+360854276+358849907
3574+357209596+356259203+355251121+351675099+346056257+344330251+345535167
3561+345792185+344902663+344051820+343001944+341231693+339675910+338893702
3547+337919674+336634513+336026513+336155583+336344402+335833480+334521685
3534+333484473+332889756+331596510+329878703+329266764+329246405+328559785
3520+328143810+328572014+328563793+327562009+326337192+325210094+324031194
3507+323075854+321970626+320540822+319794980+319499992+318891419+318435207
3493+318415467+318041676+316994662+316034513+315504125+315183212+315158616
3480+315322932+315142906+314367568+313122782+311912438+311369088+311370485
3466+311249407+310551749+309321619+308183643+307756447+307833372+307620002
3453+307119775+306860146+306383071+305438609+304897342+304692103+304302945
3439+304179348+304394641+304424252+303933872+303032189+302549984+302872912
3426+303109251+302651665+302117498+301891625+301639049+301390161+301231777
3412+301171364+301578934+302320081+302667948+302600344+302551817+302644886
3399+302924348+303166298+303020624+302630321+302619283+303348773+304069767
3385+304113554+304238662+304978320+305722559+306356437+307501077+309263863
3372+311058687+312476491+313676254+314624953+315283129+316190194+317383774
3358+318558323+319963555+321606774+323113068+324398366+325704505+327274945
3345+328863247+330116026+331243972+332236366+332715364+332892802+333143912
3331+333491618+333725026+333576604+333241356+333056063+332947031+332915542
3318+333310105+333944899+334156321+333939563+333791027+334201276+335003362
3304+335343603+335244785+335556034+336302860+336607238+336265210+335930443
3291+335954145+336662063+338096195+339173392+339510541+340326804+341895709
3277+343093617+343650937+344300754+345338035+346368719+347057010+347353350
3264+347402656+347581811+348025084+348575465+349171556+349714563+350225508
3250+350996976+351802246+351982179+351825215+352188930+352920550+353419174
3237+353915165+354652808+355144700+355231930+355396955+356003512+356814805
3223+357241360+357154267+357144534+357552356+357748343+357474790+357291651
3210+357176550+356902699+356872103+357420698+358340427+359164361+359464319
3196+359235217+359137521+359641825+360290658+360809756+361571972+362132933
3183+361846349+361294342+361283464+361928793+362802674+363528111+363868054
3169+363803748+363963208+364442252+364683721+364872746+365243904+365553159
3156+365834499+366201511+366639562+367132256+367510718+367764050+368028030
3142+368159207+367918746+367390442+367031102+367023773+367146065+367428046
3129+367819585+368035519+368176910+368220216+368035038+368090687+368379607
3115+368478105+368672832+368973157+368893117+368470753+368229720+368503479
3102+369012615+369493102+370024956+370433144+370511168+370409579+370315891
3088+370262554+370303799+370593864+371025022+371265163+371250597+371034480
3075+370755179+370927189+371792917+372542240+372430803+372186060+372464857
3061+372614653+372315611+372065715+372114860+372262137+372352413+372518881
3047+372814579+372950520+372781853+372593561+372483956+372269030+372015035
3034+371891392+371920476+372023531+372182327+372407444+372492384+372392284
3020+372435177+372726364+372994673+373058475+373031498+373197210+373616345
3007+373910784+373877279+373891478+374203574+374541822+374879979+375433955
2993+376079994+376827210+377613494+378122173+378616446+379471022+380505210
2980+381358000+381791081+381879914+381944106+382126192+382372402+382592778
2966+382432425+381856647+381487230+381349045+380888894+380321704+380284902
2953+380614357+380842520+381135905+381758333+382514480+382967783+382886003
2939+382479487+382230873+382400318+382622229+382531175+382363310+382280339
2926+382018786+381580392+381117607+380485882+379991608+380018357+380148503
2912+380320994+380945574+381705660+382253018+382678062+382727505+382439983
2899+382585885+383293848+383805114+383700021+383362483+383390972+383819748
2885+384263525+384653117+384941442+384875441+384800279+385161017+385528808
2872+385510349+385349676+385310240+385549693+385970294+386068952+385785574
2858+385678993+385740093+385451540+384910067+384552353+384511360+384790615
2845+385204254+385440043+385602183+385958202+386409307+386921970+387663506
2831+388365240+388604465+388695428+389178686+389894939+390549680+391053686
2818+391341003+391732061+392357398+392840656+393187057+393607566+393927127
2804+394051388+394285300+394781016+395446062+396200560+396594184+396313463
2791+395957122+396062284+396548931+397245719+397807115+397986430+398110920
2777+398503307+398952855+399194919+399375104+399586664+399764788+400051189
2764+400484523+400928849+401369648+401863761+402449296+403098357+403548454
2750+403550745+403457262+403715403+404184600+404627277+404946014+405111955
2737+405435455+406118136+406841259+407322136+407548535+407719377+408112039
2723+408723497+409412864+410137316+410863921+411452615+411901109+412391970
2710+412799930+413029398+413325097+413761865+414233169+414670442+415058248
2696+415432177+415736028+415800700+415764471+416019176+416484068+416750407
2683+416832209+417027006+417261558+417323391+417395713+417689396+418088470
2669+418345099+418455024+418645744+418902602+419051871+419010603+418950557
2656+419288485+419885240+420222664+420308681+420340651+420482866+420892795
2642+421404267+421788730+422033313+422237545+422443196+422658191+423009631
2629+423492935+424006147+424539833+424963640+425268453+425663634+426189579
2615+426876886+427804287+428790726+429569316+430045933+430300959+430551909
2602+431004663+431624915+432156219+432561705+433064795+433686238+434309330
2588+434905857+435379267+435606995+435756310+436118422+436650825+437163992
2575+437608364+437947254+438256235+438692088+439088368+439261957+439518312
2561+440054838+440629562+441118637+441546017+441981137+442502777+442902354
2548+443069028+443249626+443576974+444080385+444650438+444940273+445028580
2534+445315209+445784085+446290657+446810556+447348594+447969624+448421966
2521+448446516+448421737+448815223+449556942+450142614+450232157+450152644
2507+450429243+451084763+451706526+452014775+452217357+452639607+453155338
2494+453428869+453453098+453416869+453455938+453554321+453562061+453565405
2480+453794553+454109213+454211398+454246619+454524638+454778886+454603738
2467+454209932+453954127+453803209+453585832+453346562+453181995+452995764
2453+452831563+452760112+452541086+452157448+451882910+451677763+451257299
2440+450667780+450369105+450519702+450714453+450598619+450174263+449613737
2426+449009836+448374378+447791958+447329036+447054132+446930146+446678371
2413+446252366+445727657+444983373+444235150+443801541+443450148+442890538
2399+442303767+441934510+441641377+441137096+440367987+439501823+438739493
2386+438054293+437097716+435494368+433113025+430078269+426597080+422916194
2372+419406975+416080460+412647271+409354787+406490690+403950826+401959305
2359+401093462+401937778+404415259+408017595+412292122+415361367+415012171
2345+411560891+408199658+406967169+407174790+407636155+407651911+407303677
2332+407131965+407522199+408448684+409579401+410600421+411620571+412834922
2318+414122282+415308877+416332692+417217772+418057278+419027733+420185748
2305+421271074+422037252+422543274+422891370+423153678+423534569+424014437
2291+424392121+424725423+425082634+425478960+425955530+426314711+426400223
2278+426409750+426633814+427123988+427582513+427833875+428084275+428443775
2264+428881735+429411208+430004345+430613650+431153657+431696320+432443078
2251+433122644+433435472+433803996+434469683+435072073+435571865+436199079
2237+436829957+437278910+437779435+438614499+439653840+440631807+441460642
2224+442230987+443049562+443961666+444978335+445905736+446607378+447276501
2210+447992067+448763237+449752196+450860974+451900407+452982573+454156710
2197+455316877+456482861+457660800+458783867+459890813+461012140+462176750
2183+463443773+464678277+465850720+467162171+468571731+469892435+471148374
2170+472517765+474037617+475533971+476873179+478141531+479568999+481027430
2156+482234178+483468453+484894318+486136471+487009368+487568520+487940112
2143+488355492+488787360+488918445+488694381+488301811+487737484+486902969
2129+485815719+484719537+483799969+482750734+481226074+479283057+477204191
2116+475222929+473259668+471213871+469221159+467208294+464921074+462396142
2102+459889530+457534569+455253853+452967458+450687292+448400531+446069982
2089+443668532+441270884+439129773+437350132+435596507+433567245+431421691
2075+429355192+427369029+425475433+423634921+421790974+420016601+418375099
2062+416688116+414801161+413060177+411659274+410117988+408285629+406555546
2048+405031664+403522805+401937411+400299391+398672500+397184390+395832907
2035+394428843+392931206+391492471+390159721+388849048+387512955+386151854
2021+384785669+383305871+381704973+380381751+379407128+378438894+377418148
2008+376310997+374989125+373632856+372456086+371379897+370362357+369404177
1994+368207414+366647097+365261492+364336335+363561844+362784033+361958519
1981+361075889+360220924+359400082+358573629+357689350+356740400+355690386
1967+354577441+353702506+353102178+352503934+351805864+350979480+350052720
1954+349231053+348578236+347905723+347077026+346086052+344939236+343988018
1940+343689365+343594990+343170381+342474785+341717722+341093554+340556410
1927+339829759+338676371+337421118+336739835+336272149+335770754+335780739
1913+335814220+335155311+334298148+334002541+334057824+333936013+333555008
1900+333111232+332623073+331970439+331436295+331088359+330499046+330082087
1886+330173599+330121362+329871535+329705823+329523942+329326123+329179991
1873+328829468+327556399+325541724+325033000+326272932+327278609+327395106
1859+327062606+326709907+326517034+326399895+326211282+325803415+325015710
1846+323666059+322427616+322781277+323756061+324003026+323871482+323749763
1832+322818469+320763145+319536359+319795599+320184756+320600204+320923430
1819+320737427+320290330+319808469+318984604+317951583+317625312+317891697
1805+317848070+317056221+315550408+314333331+314124680+313911173+312483499
1792+310873349+311551930+313110072+313468771+312774617+311852804+310995388
1778+310610926+310257631+308585076+305748712+305143071+306938376+308473639
1765+308991844+308389318+307571933+307666560+307998946+308427860+308380730
1751+306438469+303889742+303707587+304817876+305293004+304800219+304122645
1738+304154959+303530768+301105226+300756145+302830889+304698630+305733528
1724+305780911+305256568+304042080+300792878+297584922+299033070+302117315
1711+303981186+304105882+302458243+300599456+299984242+298258602+295141861
1697+294882987+297255467+300116129+301619263+301331420+300144527+297387698
1684+293866501+295364230+298557484+299969975+299204965+297765062+297004495
1670+296015055+296233783+298031447+298416482+297220177+297272346+298199724
1657+297881949+294671885+288928668+288806193+290125042+289525355+291053336
1643+294530036+296633589+296882318+295345153+294382599+298358130+303418598
1630+306862665+309403101+311983546+314866720+318979474+323246833+326074357
1616+329592462+335617454+341252556+345286553+348695924+352613859+356731285
1603+360682151+364705912+368760452+372489247+376054276+379899180+383885543
1589+387886517+391988553+396155033+400299528+404181027+407142271+408978111
1576+412266747+418094515+422881431+426554210+431331965+436776003+441606063
1562+444957312+445503639+447072407+455745768+464745103+472380634+478926167
1549+485131115+490096796+492813135+493615863+495400084+505520792+517108220
1535+524901814+532060729+540264527+547419273+553086917+558029239+562165535
1522+566813899+573697680+581819447+591283993+600450414+606926740+610319531
1508+611387590+617380475+630298225+640526339+647457159+652461588+658726858
1495+666936335+673242415+677108662+682215963+691158778+700206113+707458051
1481+714190915+720863869+726215295+729432298+732594475+740170555+750514364
1468+759238199+765609501+772191034+780019438+786196310+789931197+797967725
1454+811271221+822940589+832138201+840193875+849312982+859521996+869151705
1441+877441611+884497150+891979199+901569518+911788792+920803745+929034291
1427+937339403+943921899+948508704+952377333+955508273+960150500+968172830
1414+976360689+981298705+983314456+985111913+987226963+989336333+991515505
1400+992111391+990720564+989770262+990667067+994185676+997367549+996322161
1387+992846881+992933080+997434053+1003226004+1007672197+1008681034+1006561405
1373+1005847716+1007844963+1008965191+1008587781+1007673205+1006185461
1362+1006398716+1008890442+1010775290+1011075568+1010176840+1008953191
1350+1007383461+1005783135+1005533056+1006085246+1005509605+1003069361
1339+1000731347+1000866829+1003111132+1005614217+1006622596+1005944634
1327+1005211250+1006409525+1009068520+1011216914+1012974615+1016042898
1315+1020265944+1022995932+1024141351+1027078915+1032624725+1037984671
1304+1041339308+1044130946+1047613280+1050894818+1053057135+1054078430
1292+1054955541+1057054376+1060389227+1063984235+1067078625+1068862708
1281+1069035657+1068948724+1069857438+1070620135+1069489006+1066871966
1269+1064536425+1063379006+1062880129+1062407085+1061944667+1061277147
1258+1060094720+1059041455+1059114097+1060183942+1061484447+1062377680
1246+1062699577+1063163919+1064265459+1065509994+1065827494+1065336771
1234+1065249380+1065256525+1064795939+1064164054+1063640994+1063812660
1223+1064593311+1065505048+1066801155+1068676110+1070595035+1071358373
1211+1070750213+1070347063+1070789786+1071067163+1070908230+1070794274
1200+1071177821+1072385348+1073635287+1073718830+1072704314+1071726072
1188+1071622834+1071770592+1071114889+1070531187+1071306800+1072909782
1177+1073741823+1072421348+1070185839+1069221430+1068513788+1066658436
1165+1064698289+1063665452+1063259737+1063025871+1062649012+1062248518
1153+1062454078+1062347451+1060012368+1055543915+1051610613+1050032456
1142+1048761264+1046333570+1044032563+1041319797+1037690896+1034533024
1130+1031368557+1027652082+1024322453+1021009678+1017169721+1012584839
1119+1007275826+1002760288+999052333+994354686+988536903+982267145+975962668
1105+970338720+965371024+960553192+956217015+952557794+948766112+944941820
1092+942099158+939187244+934413016+928882503+924664679+921035962+915992142
1078+910134969+905512896+901918805+898000069+893876688+889773186+885582660
1065+881961546+878750635+875072910+870996889+867133940+864197750+862315925
1051+860340846+857222822+853460821+850199803+847955958+846500733+845611623
1038+845502614+845598615+844920011+843698561+842544531+841492548+840189570
1024+838527869+837424588+837772318+838638711+838617000+838097513+838021481
1011+838447349+839230565+840359221+841609343+842654089+843431259+843860425
997+844156307+844949966+845737670+845476323+844689535+844486357+844612862
984+843975388+842301505+840018820+837427337+835004130+832881203+830265903
970+826821035+823331831+820609629+818740994+817154593+815633596+814762166
957+814886656+815839340+817133707+818634825+820921083+823553605+825696593
943+828064013+831569614+836116664+840955839+845408628+849445992+853603723
930+858585893+863933930+867967996+870189581+871767189+873432553+875010344
916+876504042+877870411+878681657+878803033+878388066+877247960+875275172
903+873481836+872808454+872078735+869592138+865946291+862672631+859848107
889+857454947+856246505+855913707+855276783+853984430+852570520+851841625
876+852465266+854268220+856189802+857730584+859557630+862349085+865999696
862+869593696+872334036+875097002+879304200+884603869+889614436+893319002
849+896095067+899823725+904751757+909038192+912460892+916788091+922692257
835+928630866+932104681+931685500+929944196+931175631+934496925+936502416
822+938355477+942512568+948650874+954603682+957586681+958530021+961103916
808+965502292+969887386+972763941+973868321+974642377+975741719+978979286
795+986099773+994028667+999730754+1004310048+1008520910+1011569498+1014173989
781+1017736660+1022618065+1028687118+1034474306+1038026076+1040213859
770+1043395731+1046811377+1047539905+1046141934+1045598812+1046161903
758+1046399525+1046321569+1046865790+1046975807+1045029584+1044045022
746+1046737361+1049114673+1047764519+1044422889+1041007976+1039494033
735+1041325659+1043953784+1044668022+1042620393+1037638223+1034162302
723+1035331904+1036987650+1036162022+1034487680+1033469499+1032448387
712+1030725678+1029925790+1029939714+1028129157+1025294557+1024394454
700+1025611232+1027903078+1029349966+1027280627+1023693681+1022903504
689+1023979120+1023928005+1024108740+1025773097+1024972659+1020412694
677+1019123364+1023951089+1027856818+1025669951+1020823447+1026142903
665+1040007566+1045882236+1043831767+1039953886+1036386635+1034267463
654+1033322932+1033077800+1032653855+1032557396+1037144660+1045703882
642+1048617629+1041841849+1033357284+1026515549+1022379253+1023503694
631+1023501313+1019246847+1017126301+1021041923+1028981809+1035505678
619+1033596371+1024863742+1023136820+1028858876+1026402051+1012162636
608+1003511992+1013815542+1030413125+1031749630+1017478244
##END=
