##TITLE=Sample description
##JCAMP-DX=4.24
##DATA TYPE=INFRARED SPECTRUM
##DATE=24/8/2023
##SAMPLING PROCEDURE=Instrument type and / or accessory
##ORIGIN=Default
##XUNITS=1/CM
##YUNITS=ABSORBANCE
##RESOLUTION=4
##FIRSTX=4397.6552
##LASTX=599.8556
##DELTAX=-1.9287962
##MAXY=1.2820779
##MINY=0.34102067
##XFACTOR=1
##YFACTOR=1.1940281e-009
##NPOINTS=1970
##FIRSTY=0.4880437
##XYDATA=(X++(Y..Y))
4398+408737195+408968269+408221806+408079487+408732802+408947054+408764201
4384+408674746+408387313+407814143+407571637+407698007+407296508+406609823
4371+406835032+407732001+408039278+407648836+407269178+407058819+407406605
4357+408120571+408110437+407667331+407386937+406979972+406343106+405593148
4344+404846685+404308135+404279905+404668325+404753262+404072642+403388178
4330+403642066+404274689+404394994+404186757+403974152+403738609+403782014
4317+404058590+403777371+402956479+402385855+402479753+403139332+403735739
4303+403818854+403551787+402844311+401710801+400931666+400493252+399880622
4290+399865721+400635921+401152158+401490633+401968607+401850774+400835098
4276+399759094+399795410+400515466+400366733+399705731+399491329+399536306
4263+399692927+399879174+400124900+400416028+400437443+400171150+399750009
4249+399102710+398433396+398477450+398820318+398299738+397668488+397871658
4236+398158468+398051691+397778809+397507275+397700910+398298940+398524174
4222+398199801+397456707+396618667+396076223+395565203+395427551+396317456
4209+397340895+397294645+396511691+396214099+396887181+397711818+397724946
4195+397074577+396314561+395787017+395941167+396531983+396696666+396330435
4182+396046896+396292597+396696291+396513239+396089451+396339321+396798750
4168+396447620+395530958+394788239+394690023+395432792+396289327+396460724
4155+396136500+395633791+395068309+394677419+394683634+394887328+394570792
4141+393800991+393562878+393837208+393857749+393820834+394099282+394114882
4128+393508292+392799243+392549398+392718948+392822330+392644968+392166595
4114+391538939+391125984+390911432+390776052+390577400+390418807+390816412
4101+391250981+391041771+390843767+390819007+390360177+389872868+389922563
4087+390009197+389650729+389122486+388596116+387939382+387557227+387737635
4074+387902442+387684571+387284919+386999658+386790522+386319562+385942149
4060+386268320+386949439+387211164+386919138+386373824+385574097+384654065
4047+384293201+384871263+385730393+385812560+385220521+385171900+385922581
4033+386145519+385122355+383980808+383771398+384132312+384608065+385144644
4020+385269167+384607691+383583129+382890378+382648995+382394234+381931834
4006+381445224+381351901+381998626+382823512+383254837+383403021+382893224
3993+381782502+381373416+381910020+382202645+381798526+381218418+380973865
3979+381012152+380632943+379858700+379721323+380072378+380050563+380036761
3966+380425605+380378281+379512487+379023406+379369993+379410503+378790609
3952+378384992+378193478+377677416+377385889+377120520+376550396+376806754
3939+377803886+378434362+377723017+375469301+374282976+375599539+376549372
3925+375788008+375523987+375931076+375087321+374222525+375311706+376944231
3912+377832389+378248888+377554391+374182639+369325524+367063446+367929790
3898+370745694+374084848+375039299+372946820+372460784+374316023+373741206
3885+371313497+370712198+371028535+372782113+374992999+374813665+372935139
3871+370129444+368109299+369313069+369797558+369261803+371346593+373698301
3858+373719316+370212085+362695337+362494863+369840363+375535069+376977377
3844+374938337+371946869+369176641+366897266+367704056+370754005+373108184
3831+374401808+374883402+374651952+374624572+372960773+368933011+369025287
3817+371340104+373078831+376584390+379737871+379417092+375754912+373931722
3804+373965492+371849876+371941877+374613989+376630615+379235387+381944689
3790+383087558+382744515+381679469+380988067+381157492+380917831+380638185
3777+381634742+382618669+382224834+380373564+379396400+380555319+382179482
3763+383392463+382942968+381063269+381120951+382609434+381343090+375779372
3750+373451077+377141311+379977707+380708171+383696570+386988101+386279177
3736+381521675+380402492+386469618+393466759+397713939+399696047+402351486
3723+407963126+415981584+425515283+435786109+445676653+455574785+469811124
3709+489289953+508149587+524045232+537372697+549672380+562627699+575192851
3696+584807742+589336740+587831933+581209184+577310214+579856730+581815200
3682+579054782+572999911+565691675+554807993+546223030+545580273+543277112
3669+540646482+542816759+544097530+542073666+539023567+535952303+531580100
3655+528352790+527194919+521799428+510632556+508072811+514188384+519168399
3642+520824161+520819369+520639910+520224684+519518581+518624981+514872323
3628+510319314+512768688+517399071+519044400+516586890+513299726+513482629
3615+514895036+515168842+513645964+510028187+508796487+511997241+514128581
3601+512625321+510556130+509615208+509190547+510230009+511740308+509658138
3588+504545338+504111792+507631328+509919813+510600009+510867824+511269722
3574+512214538+512990279+511484373+506430428+502789538+505801748+510329298
3561+512733945+514276241+515520970+515300129+514664561+515593652+516284780
3547+515226698+515366371+518668211+522646353+524915370+525376821+525462731
3534+526634978+528210221+528073892+526809744+526694332+527432484+529091091
3520+532535000+535932884+537423714+537709101+537721231+537239763+536723201
3507+537144817+537263075+536616025+537620944+540074860+541968686+543180069
3493+543546674+542477959+541125105+541456018+543386285+544451356+543738263
3480+543887221+545585015+546529582+546133225+545579075+546114056+547604986
3466+548642202+548566126+547573837+547003812+547740167+548462694+548533728
3453+549142340+550520054+551165656+550412528+549480442+549362583+549966702
3439+550800648+551585824+552010235+551515488+551137701+552722878+555140503
3426+555839968+554611562+553221169+553222916+554145419+554853619+555254518
3412+555617828+556224344+556853472+556761771+556036399+555661557+556084121
3399+557141106+558200436+557861636+555923482+554385080+554873736+556799460
3385+558760577+559958632+560128755+559732898+559556534+560041797+560851832
3372+560943183+560494961+560748599+561385715+561394301+561611299+562967797
3358+564612676+565724571+566370722+566893524+567406092+567707852+568049098
3345+568311222+567791965+567021716+567015975+568085838+570133864+571741354
3331+571299272+569928796+569938181+571073239+571618753+571568784+571392720
3318+570782061+570296400+570759847+571479080+571413985+571161945+571659736
3304+572244637+572251126+572393945+573208722+573817933+573251552+572114798
3291+571684995+572300496+573245163+573783738+574162224+574670549+575111832
3277+575794624+576906319+578149451+579336175+580074826+580360312+580843678
3264+581785399+582610509+582549708+582333559+583438765+585554780+587385907
3250+588459265+589004380+589311331+589984688+591308140+592100504+592311411
3237+593322720+594150975+593500681+592999245+593400294+593189785+592435460
3223+591854253+590843943+589978099+590594399+591696659+591495935+590756336
3210+590689544+590652604+590218010+589604356+588677061+587424445+586479079
3196+586161994+585895077+585458636+585063278+584803150+584483868+583886438
3183+583257659+582322427+580959090+579950677+579442552+579525418+580374040
3169+580890502+579985820+578258774+577056675+576441873+575930104+575851382
3156+575770713+574962824+573734069+572266252+570970605+570331093+569712098
3142+568712421+567940324+567421167+566446250+565062846+563669857+562236684
3129+560952918+560176977+559880259+559307738+557828340+556158451+555128073
3115+554719337+554561693+554039640+553059132+552201375+551737128+551523824
3102+551293948+550828353+550268612+550037188+550059502+549513438+548013822
3088+546373086+545603535+545787736+546317376+546417714+545803311+545066757
3075+544632412+544372833+543950569+543138537+542194270+541186206+540193268
3061+539340752+538141649+537059006+537024662+536997306+535799900+534223409
3047+533051362+531979053+531060394+530421581+529391903+527639398+525707833
3034+524134737+522952606+521771473+520257481+518691324+517537497+516623930
3020+515561904+514382568+513110384+511621600+510156878+508972451+507824365
3007+506686262+505896195+505320080+504596006+503756019+502962457+502251312
2993+501480064+500523966+499745080+499418411+498889170+497848759+497175052
2980+496780493+495693857+494533141+494074885+493741377+493312024+492817726
2966+491712470+489952377+488091798+486551848+485543684+484711535+483693288
2953+482740186+481784138+480788104+480231508+479953809+479374100+478629609
2939+478181236+477737956+476705482+475360316+474306027+473595880+472866814
2926+471801144+470499906+469024950+467448460+466285448+465413164+464171629
2912+462956052+462473086+462302214+461854740+461254764+460681245+460213455
2899+459840610+459353501+458849419+458542917+458244501+457717407+457046296
2885+456312887+455403912+454371788+453497307+453000714+452695509+452146900
2872+451229838+450000684+448818952+448197062+447730319+446854491+446019347
2858+445591491+445080571+444074105+442935603+441851064+440466811+439237456
2845+438731777+438462015+438006804+437505867+437176901+436869351+436304068
2831+435731897+435370234+434906288+434203878+433564017+433022446+432472289
2818+432113671+431841563+431390096+430893751+430541423+430299815+429849247
2804+429059629+428436141+428216248+427886433+427232894+426579655+426098186
2791+425902604+425941940+425724643+425107195+424577305+424303749+424013920
2777+423673023+423322492+422845417+422388908+422216288+422143057+421923913
2764+421655798+421399514+421133496+420810570+420366092+419928851+419668175
2750+419482526+419064704+418476060+418145247+418052148+417755480+417215681
2737+416869193+416711599+416351758+416013033+415991493+415995537+415863151
2723+415659582+415413506+415309875+415465048+415709651+415703561+415339102
2710+414971374+414692876+414222140+413752128+413701086+413798528+413610758
2696+413408786+413437464+413484613+413395632+413121128+412682690+412246123
2683+412064593+412117233+412155321+412158141+412091000+411873678+411621263
2669+411416021+411324869+411412726+411469584+411338247+411203316+411108420
2656+411030646+411092646+411210305+411209731+411107821+411077371+411190537
2642+411284784+411244624+411180628+411314036+411718305+412119304+412252463
2629+412349331+412644127+412922999+413033320+413113540+413316710+413626757
2615+413990092+414399877+414798580+415165983+415494151+415783131+416142872
2602+416711949+417402902+417898223+418104463+418288464+418829137+419658241
2588+420182140+420340184+420575552+420857344+420994222+421159454+421492313
2575+421827319+422016263+422117648+422119096+421898204+421586760+421507838
2561+421740560+422046264+422249933+422311633+422199216+422201412+422409375
2548+422288571+421831612+421600438+421661688+421706066+421557857+421349295
2534+421375902+421661788+422000888+422276291+422375430+422231513+421998741
2521+421840498+421782143+421856622+422072671+422256573+422323514+422376478
2507+422366394+422281382+422316126+422538615+422784266+422905569+422963974
2494+423024027+423056424+423166845+423438105+423568942+423260343+422805881
2480+422601213+422577651+422608152+422699204+422678488+422496134+422449809
2467+422486599+422283679+421898254+421453676+421040796+420803581+420613240
2453+420284125+419915922+419701321+419576723+419331222+418960823+418483348
2440+417943549+417595789+417437121+417179814+416741201+416242461+415788098
2426+415316364+414710198+414062100+413555198+413211456+412970023+412743641
2413+412313738+411595005+410848018+410284033+409892569+409667459+409473949
2399+409123243+408765174+408453131+407955114+407334621+406741834+406038226
2386+405031186+403688441+401918614+399460130+396453336+393316328+390080307
2372+386616779+382900262+379105173+375783116+373607523+372454719+371559248
2359+371038843+371594890+373456443+376635557+380666888+383578212+383359117
2345+380418491+377514406+376188658+376180746+376896584+377361479+377114804
2332+376795173+377199791+378152545+378951747+379319999+379723170+380764804
2318+382238012+383536355+384549011+385506656+386474610+387394691+388211091
2305+388886395+389457343+389901771+390177449+390380344+390600487+390798690
2291+390909186+391020430+391287072+391624525+391839875+391881083+391777402
2278+391646314+391596320+391579473+391559156+391574181+391679436+391969864
2264+392401114+392786538+393057049+393246666+393440077+393726887+394028248
2251+394175558+394230245+394463641+394921672+395413474+395880166+396357991
2237+396846972+397431398+398143542+398735706+399113892+399597731+400365235
2224+401263477+402100968+402795765+403453572+404242541+405233133+406371310
2210+407497133+408620559+409862742+411214523+412759889+414481045+416183906
2197+417979691+420012066+422094536+424096985+426180353+428512068+431039365
2183+433599808+436200387+438983319+441836587+444663448+447662729+450745225
2170+453626098+456437584+459364782+462222044+464798212+467078660+469204209
2156+471338095+473295917+474686959+475554401+476242733+476676879+476475705
2143+475572521+474160913+472266189+469724315+466560701+462904087+458711044
2129+454134273+449444686+444585375+439518301+434409943+429361589+424455104
2116+419757629+415212608+410677694+406152565+401802377+397690577+393874048
2102+390344328+386923331+383567454+380334577+377289920+374458941+371776171
2089+369246527+366811855+364361707+362050909+360007426+357987530+355856664
2075+353851569+352068788+350361610+348631144+346826773+345098104+343681554
2062+342389826+340968358+339457885+337875704+336340820+335030148+333813174
2048+332547079+331272947+329992326+328735866+327664705+326832731+326073713
2035+325281025+324529894+323873310+323286038+322757995+322299065+321965033
2021+321679247+321043978+319978458+319042252+318340941+317389585+316125338
2008+314849284+313714701+312660512+311556155+310439168+309467246+308524951
1994+307208413+305669237+304704528+304383873+304148980+303752199+303137547
1981+302360408+301555615+300739964+299927408+299247137+298558330+297469972
1967+296323957+295931170+295961196+295655468+295113023+294527798+293837120
1954+293243109+292865946+292393563+291612656+290626132+289439608+288642003
1940+288992110+289652138+289742866+289424633+289047769+288749953+288482961
1927+287993805+286906920+285812946+285605233+285661392+285908940+286838431
1913+287445421+287075945+286607531+286910339+287618265+288099733+288295740
1900+288339295+288108769+287616493+287400643+287316280+286893092+287013197
1886+287926215+288668735+289110842+289498987+289866241+290215349+290518781
1873+290291675+288575112+286276918+286803837+289684386+291793712+292530366
1859+292887811+293449723+294137332+294715469+295012761+294682622+293570253
1846+291994785+291514240+293593315+296028287+297190626+297876487+298554911
1832+298141232+296661085+296500945+297725882+299032261+300770963+302317727
1819+302872252+302861395+302506396+301318774+299802186+299392351+299851631
1805+299812619+298522089+296507185+295464053+295646482+295433278+293802601
1792+292713344+294795888+297429613+298262036+297885997+297368986+297265729
1778+297921215+298168189+296457291+293486713+293285191+295949940+298498727
1765+299582468+298967641+298416361+298992126+299539213+300008102+299233634
1751+295693830+292185601+292398829+294046005+294893979+295001854+294957126
1738+294973824+293235945+289507473+289714113+293513120+297125756+299094909
1724+299348947+298893336+297250129+292845579+289702357+293545992+299192201
1711+302947131+304136799+303196351+302632841+303575011+303390236+302411475
1697+304951751+311494181+318526065+322812507+324970454+326059511+325580039
1684+326969733+334824657+343250004+349424830+353744593+357876485+361659344
1670+365583474+373308384+382027404+387946670+393196198+400434847+407401463
1657+411353997+411773565+415278451+425519526+432111475+438480785+450556232
1643+462567683+471017616+476103060+478526276+483542433+494543824+504177435
1630+510572753+515434161+519977286+524502091+530421531+536147286+539200630
1616+542300048+548323270+553862528+557380118+560054875+563069382+565999924
1603+568662053+571579866+574466231+576684579+578872877+581964907+585664452
1589+589755860+594406660+599598432+605316100+611142791+615764538+619051452
1576+625593432+636007626+644456860+652255400+662467223+673069262+682635033
1562+689444978+691396011+697421279+715367147+731905998+745280087+756272542
1549+766765808+775412122+780118182+781440086+784740928+801246433+818677835
1535+828499541+836083729+845826713+854628225+860950162+866258744+870378556
1522+874237392+881128705+889218572+897815216+907153257+913647714+914916754
1508+911445090+913099904+925407125+934353601+937770255+937281049+936726050
1495+939777896+942157932+938808170+933632472+936096871+941343254+943024825
1481+941497304+939357079+936602650+931067236+923244735+920005493+923412063
1468+925819954+923361845+919594061+918716686+916784722+909388129+907127000
1454+917088030+926890017+933240309+938104312+944586589+952410688+959750473
1441+966059132+970086494+971652352+975881786+983534063+990083331+996057533
1427+1002898128+1007966001+1010864795+1012710399+1012626735+1014801605
1416+1021781773+1026929517+1027872486+1027505282+1026606840+1023902031
1404+1021885605+1022847743+1022255005+1018070099+1014889162+1014947568
1393+1017346773+1018356833+1014459760+1008175761+1006112311+1008633218
1381+1012687736+1016620053+1018563198+1017399986+1016144425+1017260912
1369+1018839550+1019683979+1018362424+1014222345+1012289083+1014177118
1358+1015012961+1014222844+1013547840+1012877129+1012034596+1011515240
1346+1010355223+1008073826+1005428820+1002135766+999746445+999848080+1000627614
1333+1001690089+1003385238+1004299553+1003758631+1003003557+1003139736
1321+1004354165+1007169195+1011552379+1015240392+1017654174+1021253631
1310+1026512494+1031352137+1034572609+1037222607+1040744090+1044352632
1298+1046834803+1048945477+1051389709+1053648542+1055662373+1057129191
1287+1057351530+1057590842+1058847502+1060290559+1061594942+1062408222
1275+1061878282+1060296849+1058979488+1058361691+1057707553+1056633097
1263+1055001945+1053035836+1051973261+1052466061+1053519052+1054139046
1252+1054896416+1056509497+1058271537+1059461306+1060242737+1060827987
1240+1061326577+1061585657+1061733816+1062452849+1063369062+1064077911
1229+1064962076+1065571586+1065646565+1065488421+1065326484+1065863712
1217+1067009752+1067841901+1068987741+1071383352+1073498019+1073741823
1205+1072988646+1072374243+1071995059+1071997255+1072467292+1073071012
1194+1073414454+1072930141+1071642032+1070790614+1071484388+1072901387
1182+1073211783+1072040884+1069974139+1068096987+1067257050+1066473722
1171+1065228743+1064755012+1064712780+1062621376+1058796884+1055811031
1159+1053432692+1050817538+1048717447+1046947420+1044320584+1040831548
1148+1037314358+1033585811+1029105584+1024151127+1019407827+1015312775
1136+1011328443+1005878191+999110876+993270657+988085874+981624363+974560730
1123+968813560+964438462+959699855+953794541+947864268+943148823+938700345
1109+933239210+928479737+925316671+922425465+920250695+919553427+919309224
1096+918661575+917940046+917521526+917718207+918996432+920833849+922321933
1082+923405574+924888267+927619633+931021610+933589641+934860778+936300940
1069+939311553+942707839+944622231+945328784+946747382+950171423+954320987
1055+957066230+958750097+960289198+960694840+959853306+959421707+960690846
1042+963461648+965629629+966101163+966264798+966682420+966886688+967205071
1028+968359298+970197214+971441893+971782041+972113303+972489593+972198166
1015+970988330+970199310+971265080+972986686+973587011+973526310+973742858
1001+973842297+973280608+972207850+971015486+970165665+969640318+968755854
988+966792940+963958442+961586592+960060070+958531252+957062836+955724309
974+953593268+950645254+947474701+944554741+943074744+943077439+942861789
961+942076165+941775153+942009074+942325759+942871673+943115078+942161027
947+941355734+943099104+946267461+947614574+947789490+949143691+951136756
934+952637520+953568708+955019653+958488122+962457079+964106601+963654835
920+962822486+962737624+963332957+963029050+961095489+958618211+956853875
907+956187457+955721314+954713550+953816106+953000331+951226510+949278273
893+948323922+947611878+947017942+947076447+947362184+947492372+946831345
880+945343960+945238631+947991462+951854691+955194669+958605232+962380304
866+966324101+971269274+977413000+982559046+984858314+985266251+985190774
853+984700669+983289460+981859082+981748262+981224812+978758416+976540616
839+975885280+975788138+977290100+981535408+984360422+981691255+977080640
826+974946903+974530779+975137095+977570544+981120581+984047729+985202155
812+985774726+986862760+987031286+987196118+989665809+992194005+992914336
799+993547608+993903929+993717132+994603693+997257385+1001699374+1006618489
785+1011051692+1015796589+1020442248+1024047495+1025928941+1026242731
773+1027129392+1029117764+1031137685+1033018132+1034257620+1035423727
762+1037060670+1038125841+1039663245+1041978287+1043000527+1042825911
750+1041937253+1039963957+1038207109+1037439355+1036678391+1036673798
739+1038201218+1039428726+1038943513+1036349524+1033102496+1031675412
727+1030572303+1027764761+1025693922+1025640908+1024967502+1023193881
716+1022242825+1021305247+1018637278+1015043612+1012081420+1011482393
704+1013891582+1015745073+1014904837+1014432803+1016197439+1018023974
692+1017601759+1015409418+1012203722+1009197702+1009344264+1012654290
681+1014965938+1013220172+1010136777+1009834768+1011427183+1011072359
669+1007664790+1008902182+1018495808+1025660976+1025017321+1021243946
658+1021203811+1023062993+1021416466+1016264929+1011647924+1011246476
646+1014920412+1017973855+1017241044+1013719262+1009064917+1005977230
635+1007513536+1013022093+1015882550+1010124897+1001386083+997051420+994548982
621+993478719+998451547+1004295061+1001029362+993119602+992590561+1000340680
608+1008383224+1008447719+999774399+994192061+997845031
##END=
