##TITLE=Sample description
##JCAMP-DX=4.24
##DATA TYPE=INFRARED SPECTRUM
##DATE=24/8/2023
##SAMPLING PROCEDURE=Instrument type and / or accessory
##ORIGIN=Default
##XUNITS=1/CM
##YUNITS=ABSORBANCE
##RESOLUTION=4
##FIRSTX=4397.6552
##LASTX=599.8556
##DELTAX=-1.9287962
##MAXY=1.4990911
##MINY=0.17556965
##XFACTOR=1
##YFACTOR=1.3961374e-009
##NPOINTS=1970
##FIRSTY=0.20480773
##XYDATA=(X++(Y..Y))
4398+146695966+146596706+146313590+146213295+146241813+146172513+146097683
4384+145858626+145221515+144667622+144750467+145382402+145798088+145511728
4371+145054598+145073511+145585682+146275572+146979764+147393690+147296415
4357+147297343+147622127+147453225+146653775+145967044+145538251+144953619
4344+144206447+143779287+143608901+142980659+141986275+141517810+141877099
4330+142444601+142712453+142769726+142513432+141851185+141285669+141136629
4317+141191244+141412242+141723833+141676295+141314604+141173121+141297698
4303+141280525+141146353+141188127+141134740+140754873+140477862+140724935
4290+141280994+141682464+141804906+141824001+142190420+143076984+143876529
4276+144011320+143719122+143446957+143022476+142321411+141708048+141301433
4263+140946573+140715606+140682039+140738169+140960950+141287654+141421453
4249+141366187+141258250+141132872+140969317+140874358+140919741+141031435
4236+141313899+141513861+141137302+140554357+140424155+140638610+140965731
4222+141436085+141726320+141703629+141765768+142059332+142486631+142848013
4209+142921071+142895594+143081381+143364582+143453660+143424106+143584096
4195+143809363+143694222+143450575+143609071+144027490+144247218+144071570
4182+143585185+143216460+143059917+142895028+142936835+142982687+142617922
4168+142399176+142535557+142402047+142120255+142172372+142325798+142433554
4155+142730587+143020277+142906918+142548877+142447653+142504754+142173983
4141+141683606+141644660+141865722+141775331+141389700+141214661+141492269
4128+141945738+142111855+141863822+141528099+141320794+141214661+141249049
4114+141383819+141410758+141333677+141393521+141578625+141681205+141701345
4101+141618617+141397694+141247299+141159779+141086081+141353625+141769749
4087+141782386+141542038+141382859+141446545+141737025+141866159+141654479
4074+141529230+141794671+142071863+141984983+141800370+141774979+141923506
4060+142326150+142732818+142594675+141992188+141574975+141486399+141407193
4047+141195129+140972562+140962380+141072921+140997473+140811867+140850216
4033+140973608+140823853+140588906+140470178+140274518+139959404+139757394
4020+139813075+139822286+139520173+139300338+139460659+139649083+139533151
4006+139225199+138903436+138529065+138007608+137598123+137773536+138172636
3993+138098458+137899212+137989859+137985152+137681469+137368159+137215608
3979+137293202+137528064+137527061+137310759+137031091+136577846+136283033
3966+136399605+136625565+136611701+136494222+136546467+136422776+136013419
3952+135900433+135989991+135784853+135914991+136169983+135376115+134638313
3939+135001435+135502207+135507651+134725182+133564778+133485369+134176892
3925+134076127+133498444+133608559+133638305+132894494+132429295+132736638
3912+133103303+133409516+133870744+133793599+132826314+131949292+131276244
3898+131082559+132044710+133037375+132270457+131098697+131895990+132514413
3885+131685719+131567194+131394684+131037967+131778063+132099997+131572466
3871+130725329+129917672+130662187+131270758+130294252+129892963+130876909
3858+132420490+132898443+129120154+125753848+127390124+129884115+131272487
3844+131354468+131024326+130508376+128709014+127408503+127917623+128513728
3831+128970154+129764897+130398390+131133545+131297228+129455248+128984189
3817+129421819+128312006+128720594+130651439+131591988+130529445+129988147
3804+131046078+130479495+129425672+129786595+129878747+130307721+131477892
3790+132446660+132800218+132473706+132090690+132647422+132912340+131978302
3777+131841824+132856967+133799181+133723903+133178506+133222981+133445196
3763+134213533+135142555+134997123+134917576+136179460+137400318+136265827
3750+134699887+136366518+138006071+136984140+137318198+139737051+141570151
3736+141194574+139718341+140133888+142345639+144746038+146239166+146885083
3723+147489599+148526985+150541688+153368617+156584240+159775902+163719208
3709+171202676+182634434+197109402+213947231+230799895+243111162+250097902
3696+253585648+254944103+254894601+253338970+252097877+253372035+255641805
3682+257818399+260243740+263291048+266065550+268919290+273117503+277190670
3669+281500673+287427678+294148892+300645841+306867254+313112979+319169257
3655+325328551+331821830+338049197+343269683+348613316+355272155+362567755
3642+369836073+376679558+383260740+389575863+396002285+403444319+411218587
3628+416851739+421597056+427480386+433872056+440356625+446671278+453036778
3615+459419013+465322494+471298253+477150204+482491083+487919951+493681180
3601+499365093+504689749+509914974+514647868+518799546+522856489+526841752
3588+529787025+531785078+534851128+538959686+543443854+547468223+550282173
3574+552578562+555906787+560665894+563939003+562956605+562818025+566146975
3561+569324196+571323872+574501435+578839252+581936724+582831730+583689594
3547+585429186+586483180+587009579+588455703+590639212+592477297+594145806
3534+596234069+598158819+599582658+601214409+602538134+602152364+601717712
3520+602846758+604133511+604543915+605160694+606994466+608298979+608276096
3507+609451123+611735130+612804408+612897221+612618524+612128115+612620659
3493+613503626+613466526+612982990+612923477+613254173+613260022+612955923
3480+612965273+613532785+614470484+615065618+614944456+614502674+613816733
3466+612843941+611811892+611433678+612554998+613537481+612760605+612045591
3453+612788654+614074980+615039148+615671809+616003957+615689356+614569573
3439+613553107+613761403+614959740+616153765+616527965+615898805+614762330
3426+614274781+615087732+616376919+617812925+619425123+620832098+621768858
3412+621974252+622068004+622811538+623684557+624447772+626495178+629400148
3399+630404618+629686103+629648064+630323332+630414053+630936140+633150474
3385+635515427+636913864+638020326+638814066+639690757+641562995+642546546
3372+640893277+639016855+639021893+640212545+642144980+644625928+645845099
3358+644815184+642918995+641456477+640521980+639594058+638267815+636338411
3345+634437867+633820320+634319396+634563255+633445906+630906853+627794183
3331+625433713+624958673+625179692+624077158+622733239+622463593+622240525
3318+622420218+623517544+623698859+622521058+621086033+619937177+620080411
3304+621969513+624048127+624981556+625605679+626632733+627581318+629076923
3291+631722153+634172405+635699432+636685672+637068112+637124252+637411360
3277+638320070+639662879+640345916+640034517+639522377+639370947+639356901
3264+638679798+637647620+637627042+638379712+639048917+639472470+638375357
3250+635758689+634719809+636331836+637892035+637554935+636316296+635525972
3237+635072791+634868251+635463513+635932106+634959399+633350147+632801761
3223+633048268+632813374+632243172+631359522+629892692+628182643+626892005
3210+626974017+627899506+628758608+629426917+628901884+627259374+626286923
3196+626747618+627971742+628503605+626991521+624215225+622382606+622229852
3183+622917116+623266512+622464319+620713328+618644405+616889272+616542779
3169+617838583+618798482+617792048+616044814+615005336+613959625+611922465
3156+609279029+607268766+607013293+608236349+609250468+608977363+607359402
3142+604522867+601658284+600282858+600038614+599389303+597910861+596749539
3129+596343575+595580660+594154089+592928856+592190019+591310638+589713553
3115+587787821+585991874+584219152+582808505+581847155+580785861+579827627
3102+578951875+577515058+576127892+575408395+574659610+573519378+572392167
3088+571749474+571705799+571671731+571043980+569860244+568652387+568344232
3075+569188690+570011546+569419059+567016964+563980201+561657343+559740277
3061+557562531+554953847+552271005+550339168+548887622+547250192+545782210
3047+544805703+544105375+543354669+542388153+541563034+540915133+539835652
3034+538572636+537597624+536607541+535738577+535221357+534732442+534152294
3020+533579829+533375119+533904293+534650345+535268405+536374568+538173546
3007+540412513+543126649+546190692+549269208+552838602+558077617+565812180
2993+576457777+589505726+603313430+615690423+623958814+626722344+625635307
2980+623323208+620338573+616386738+611896465+606273773+599227072+592187457
2966+585609007+579255077+573910911+569733063+565726795+561761171+558911957
2953+557638908+556970002+556309762+556377088+557461136+558887366+559917323
2939+560173735+559724524+558417492+556156965+553904123+552338118+550838969
2926+548776963+545732473+541184864+535481440+529572665+523738560+518231351
2912+513922052+510898610+508176149+505263323+502522420+500324181+498818458
2899+497775266+496614371+495543087+495130762+494893691+494389705+493891270
2885+493246954+492073294+490323540+488006574+485311907+482620270+479885088
2872+476698474+473172583+470024137+467492641+465088282+462775329+460887935
2858+458916009+456399327+453847167+451168296+447713488+444142386+441324849
2845+438766969+436214809+434246385+432562847+430332205+427785723+425444892
2831+423286613+421298934+419295843+417260434+415662495+414470221+413283283
2818+411894410+410482824+409628674+409073031+407787089+405751936+403801954
2804+402255802+400793113+399073457+397160917+395381578+393893359+392689258
2791+391577033+390130097+388240995+386327516+384667886+383113665+381623951
2777+380367425+379280985+378126451+376801915+375373423+373977163+372791421
2764+371902392+371180717+370557918+370156395+369887987+369277697+368139472
2750+366891569+365805215+364863844+364115530+363491023+362753979+361825886
2737+361029286+360475265+359774425+358981283+358353233+357620309+356741590
2723+356073452+355557278+354944704+354339281+353737487+353009814+352368508
2710+351934965+351581322+351197793+350570704+349724303+349031894+348491813
2696+347812404+347026968+346173160+345135304+344033495+342943747+341760054
2683+340551492+339392369+338216936+337041120+335945565+334885403+333789144
2669+332749175+331740564+330646397+329552892+328469526+327490437+326786736
2656+326064891+325179512+324480144+324035117+323682711+323453196+323292544
2642+323093341+322992394+323068558+323164595+323162972+323182590+323360511
2629+323526948+323573184+323640830+323755310+323929346+324238205+324557716
2615+324693671+324732542+324796752+324753654+324609844+324513316+324369784
2602+324106755+323944886+323991677+324000152+323845135+323624884+323264602
2588+322654206+321808701+320750951+319701974+318942260+318357373+317654205
2575+316694840+315505554+314259850+313113171+312080354+311063268+310046417
2561+309176087+308449225+307696001+306845139+305977349+305255674+304816603
2548+304673113+304616290+304426159+304226187+304236561+304440887+304720566
2534+304994951+305258065+305521841+305800922+306247209+306850582+307297616
2521+307537633+307752078+307969404+308215697+308550919+308904456+309049803
2507+308904755+308694579+308533821+308382881+308270813+308133621+307851701
2494+307404134+306858331+306340214+305855867+305226579+304435401+303739620
2480+303225602+302732951+302262650+301908943+301530580+300979484+300404394
2467+299927988+299392367+298730889+298114516+297612046+297153186+296711746
2453+296262770+295752658+295214326+294745349+294308860+293796507+293212409
2440+292564337+291900084+291410123+291117444+290772488+290314227+289984683
2426+289825717+289652172+289477709+289386774+289326919+289269690+289141143
2413+288854847+288580995+288452341+288349324+288282532+288330945+288375473
2399+288331351+288275936+288307528+288412573+288464295+288398335+288251452
2386+288101238+288006204+287875352+287553920+286978937+286204302+285441429
2372+284809665+284148251+283413021+282617595+281692683+280905155+280300394
2359+279559743+279076100+279266445+279841065+280733937+281754865+282135148
2345+281488912+280639223+280370282+280422153+280561395+280693507+280638903
2332+280485936+280459595+280606350+280921677+281339701+281703377+281949436
2318+282143537+282339027+282341140+281967794+281546120+281420838+281417423
2305+281315516+281180031+281119621+281123933+281143358+281162100+281093152
2291+280912520+280810122+280846325+280877554+280779468+280508990+280222245
2278+280070601+279952920+279709145+279299830+278863534+278565007+278378099
2264+278217959+278117525+278062345+277860601+277465076+277123365+276948966
2251+276721650+276411360+276301875+276301897+276094731+275759403+275475070
2237+275283509+275222907+275253133+275324878+275488412+275686996+275763117
2224+275750395+275785168+275894290+276032806+276114839+276141757+276322859
2210+276736443+277120078+277337980+277566364+277877144+278165554+278398356
2197+278605159+278815697+279089933+279436980+279720779+279774977+279655737
2183+279524180+279413585+279362332+279349674+279279936+279179373+279035734
2170+278772023+278412317+278069368+277887967+277806125+277582694+277266022
2156+277102083+277081206+276961795+276607618+276201420+275961317+275862164
2143+275798039+275681062+275446466+275046203+274537179+274137599+273897112
2129+273668514+273416266+273161839+272907392+272675379+272419224+272108294
2116+271837816+271624076+271403718+271255917+271249000+271322709+271436784
2102+271555234+271657098+271789787+272031192+272428937+272935227+273462843
2089+273888061+274166288+274526186+275168282+275900437+276425065+276795743
2075+277203520+277718520+278386018+279107949+279748209+280328294+280882293
2062+281396205+281883988+282455470+283132040+283746471+284208938+284587109
2048+285030129+285578344+286010371+286255618+286540249+286878716+287129791
2035+287296548+287432203+287662956+287975807+288157165+288196037+288241526
2021+288424420+288644159+288548549+288178746+287860324+287608886+287368933
2008+287147423+286931505+286737553+286505370+286147158+285763672+285566518
1994+285460342+285034975+284333387+283842466+283609642+283417333+283206453
1981+282986715+282777863+282605151+282464607+282309163+282119864+281906914
1967+281650759+281442953+281343223+281171727+280831511+280364967+279751582
1954+279037656+278327252+277609911+276819501+275989515+275057388+273966423
1940+273126084+272619708+272095529+271546418+271048751+270577255+270181516
1927+269869797+269515235+269064637+268712658+268471595+268312651+268414579
1913+268605607+268629707+268561932+268568592+268678270+268808631+268949260
1900+269164559+269372984+269416466+269410980+269600855+269830157+269998920
1886+270312006+270665159+270973079+271352765+271783191+272131797+272357192
1873+272606153+272713824+272292534+271984998+272484352+273189568+273513263
1859+273426960+273250213+273321915+273587142+273886887+274267384+274609031
1846+274538353+274201168+274518416+275283915+275826281+276220034+276676396
1832+276874425+276603199+276781505+277712202+278479771+279042160+279795405
1819+280629383+281276281+281694839+281936351+282067609+282471566+283203316
1805+283927744+284429082+284357551+283893782+284054583+284839464+285231104
1792+285090667+285727853+287165546+288404590+289083593+289683423+290626736
1778+291843751+292970364+293542252+293507052+294295690+296253164+298139939
1765+299637166+300788947+301908601+303531451+305248780+306811518+308380981
1751+309613558+310586456+312358858+314832229+317108296+318880890+320811596
1738+323368324+325870490+328200734+331229108+334769557+338412596+342042529
1724+345750909+349412691+352704520+355812301+359924190+365504915+371274385
1711+376777281+381921177+387088211+392839365+398673428+404795708+411388887
1697+417332499+423953300+430737827+436802344+443020255+449007841+454897233
1684+462879413+471633432+479510119+487169544+495394773+504678862+513785735
1670+523619704+534820688+544181965+552008104+559860243+567358205+574144995
1657+580257413+585694307+591707807+598209367+604189310+612033082+622734691
1643+632666255+641377411+649120043+656565536+666778828+678512444+688521581
1630+698716558+710285125+722010842+734031267+747071958+759024245+770300282
1616+781896087+791384417+798691586+804977891+810675466+816012630+820881116
1603+824931869+827256563+827187145+825821325+824198497+821831025+818142134
1589+813461324+808349406+802251290+794801698+786975645+780219893+772957722
1576+762633899+755930659+753559771+750182023+746335511+744887125+745472695
1562+747946386+750534835+749453518+749931931+754618461+761870983+771054745
1549+780858402+790326069+800555030+812470004+825181450+837683019+848418398
1535+859523153+872843907+885583530+895154342+902507704+908687790+913551836
1522+914208959+913498726+916224218+919356996+921230515+921608002+920638113
1508+918409051+914497049+915308890+919511287+923502782+925873157+927525358
1495+930740192+934332598+935006713+931891780+931198026+934461188+937868820
1481+939795193+941346469+942523843+941394882+936487461+931422845+932785591
1468+936174695+934926195+929845783+927769218+927823779+923365398+916775464
1454+919327111+923978719+924517840+920055531+914472628+912687910+914365470
1441+916455355+916262556+912061610+908674043+910767685+914613770+916731576
1427+917141083+917430965+917928504+918980192+919464410+917926967+918489569
1414+920808457+920898196+918179963+914713927+912189005+911503533+912447465
1400+912871061+911277348+908602917+905850103+904533721+904123360+901083823
1387+895013286+891862662+893380040+895611835+896153945+895553432+893968344
1373+892194213+892585959+893527074+893720983+894544607+894169169+892084749
1360+891947706+893093147+892678346+891038440+890360568+890108085+888720406
1346+886928430+885720829+884450385+882453826+880954122+880760981+880757053
1333+880713166+881196104+881562747+881370716+881942711+883834588+885993634
1319+887417260+888078396+888831919+890329573+892440805+894582689+897045194
1306+900789330+905272046+908528205+909766887+910473021+912237247+914829282
1292+917608566+920501668+922860089+924448678+926136058+928267013+930495051
1279+932044022+932760317+933716971+934653560+934170878+932855777+932385477
1265+932292065+930557041+927744883+926637354+927469431+928370585+928846095
1252+929584761+930488562+930990455+931290755+931590115+931804004+932193189
1238+932458908+932041033+931810664+932510395+933279800+933485663+933346485
1225+933577879+934609928+935544724+935846048+935747770+934608562+932714807
1211+932324255+933761030+934855410+934880172+934592766+934458028+934253616
1198+933139085+931182230+929528407+928727666+928744743+929661266+931127328
1184+932161085+932018491+931017181+930454237+931076353+932295224+933059079
1171+932978647+932984282+933836681+935006713+936183404+937168492+937246534
1157+936767865+936724575+937212209+938030710+938572479+938131038+937309633
1144+936848383+937349337+939237287+940354209+938927851+937206659+936985682
1130+936926340+935959439+934838931+934427717+933922493+931569708+928290750
1117+926529000+926469743+927424263+928661151+929845356+931018632+930659076
1103+929175596+929243221+930675384+932679457+935730266+938339890+939399945
1090+940173961+941063588+942311747+944650017+947408040+950231297+953824642
1076+957429088+959237714+960008058+962102298+964659495+965065245+963607295
1063+962759678+963670395+964668546+964646261+965714855+968574059+970111247
1049+968665763+966994435+968438638+972943811+977135108+978017221+976529984
1036+975630110+975785597+975123692+973656605+973488226+974638277+975314869
1022+974790946+973307124+971631015+970959206+971346256+971459391+971423274
1009+972780896+974751242+974399370+971357612+968789315+968172408+968162674
995+968232434+968238667+967623980+966593040+965554331+964785438+964128315
982+963531473+963629922+963874380+963227673+961775444+959907560+958509550
968+958502976+959314219+958975411+957048014+955515267+954504735+952420400
955+950057453+949176621+949540788+949846211+949700458+949609352+949756642
941+950175114+951396889+953411891+955259624+955493579+953875788+953406939
928+955407169+956387731+954868731+953140110+952923232+954720246+956922413
914+956629969+953922408+951662180+951570733+952397858+952262267+951950269
901+952249459+951607961+949959346+949263970+949843820+949742553+947916252
887+946563752+947171780+947036615+944855795+943691143+944658214+946397422
874+948633999+950078714+949683211+949677319+951502425+953887230+955977285
860+957073544+956337952+954826039+954588839+956369544+958518601+959390041
847+959407801+958828122+958153409+958676905+959476366+958127708+954916888
833+951731428+949160739+948683181+951722718+956380645+958471298+956712280
820+955509119+956807399+957966416+959783496+965030579+971555364+973459280
806+970196205+967527921+967493767+967841114+967177245+965682494+965843872
793+968165748+968957609+967774343+966927664+966991105+968625888+971171900
779+972323659+971419602+967831721+960817082+954198031+953067704+956385085
766+958754008+957410645+955118397+955498190+957408595+955800880+949555816
752+945812705+948948557+953940937+956265716+955784144+952857571+949999050
739+950070688+953307038+958523297+962664132+962747724+959092133+956048497
725+957616081+959982101+958243149+955388043+955009531+956474483+956387219
712+952995041+952055549+958495889+966928433+969475384+966260636+963896494
698+965736713+965944711+959182299+951025037+950985931+960110008+967981914
685+966305378+961067346+962427273+971691810+981804134+986112579+983904692
671+978089627+973098529+971125450+967449367+965036129+969091578+973656520
658+972063662+969450878+970573180+971564159+971272313+972665199+975164079
644+980496803+990025179+1003485623+1015893183+1016768039+1017219469+1028665679
631+1043361560+1053635433+1041470536+1015287291+1001740864+984158713+954068417
617+946769701+969980010+977863015+956705279+942434445+943966083+954169513
604+986759883+1040470763+1073741823
##END=
