##TITLE=Sample description
##JCAMP-DX=4.24
##DATA TYPE=INFRARED SPECTRUM
##DATE=24/8/2023
##SAMPLING PROCEDURE=Instrument type and / or accessory
##ORIGIN=Default
##XUNITS=1/CM
##YUNITS=ABSORBANCE
##RESOLUTION=4
##FIRSTX=4397.6552
##LASTX=599.8556
##DELTAX=-1.9287962
##MAXY=1.4402765
##MINY=0.5320487
##XFACTOR=1
##YFACTOR=1.341362e-009
##NPOINTS=1970
##FIRSTY=0.668428
##XYDATA=(X++(Y..Y))
4398+498320358+497908837+498593328+498567289+498020771+498004641+497625781
4384+496089498+494761042+495016859+496127935+496765146+497006077+497777263
4371+498784047+498886561+498148569+497274515+496614819+496235070+495830970
4357+495314447+494761664+493991056+493431608+493919737+494923100+494774728
4344+493918937+494153558+494212436+492948679+492524493+493673873+494970468
4330+495523873+495128927+494531841+494429017+494199994+493648411+493954441
4317+495195136+496197033+496698847+496309678+494375471+491953092+491046644
4303+492244058+493664052+493630414+492967608+492441532+491773749+491185017
4290+490899117+490148727+488788322+488559744+490053679+491538638+491835026
4276+491435680+490973636+490052924+489195533+489553108+490289100+490491773
4263+490429651+490174945+489943211+490305053+490861702+490389437+489078444
4249+488134048+487842726+487948217+488300371+488404174+487788470+487304607
4236+487828240+488739976+489459793+489852651+489824790+489758847+489752092
4222+489733874+490043103+489878602+488278198+486634958+486314397+486900907
4209+487406632+486678905+485375200+485404394+486252276+486214683+485110006
4195+484075183+484099711+484435691+483980712+483619537+484614101+486007611
4182+486007878+485228828+485315211+485641282+484912044+483484674+482467625
4168+482332273+482436431+482451494+482850795+483323816+483507736+483602340
4155+483193085+482314410+482166927+482749748+482877057+482742772+482713844
4141+482293925+481904488+481780956+481192803+480338122+480030137+480128918
4128+479848083+479192076+479040372+479714287+480729958+481355838+480815586
4114+479425853+478333174+477722136+477573675+478310956+479473088+480158335
4101+480102345+479449315+478743495+478283717+477655304+477058885+477082659
4087+477180462+476969080+477448677+478717011+479147329+478265498+477254403
4074+476682113+476531298+476928999+477280043+476996408+476753788+476440071
4060+475293313+474531371+475022210+475548509+475661198+475917949+475870491
4047+475206352+474933160+475312021+475271940+474351805+473431182+473401232
4033+473719527+473782670+473831016+473629366+473052544+472679282+472779396
4020+473425627+474466450+474938093+474484357+474028578+473653761+472680704
4006+471776611+471667432+471496887+471083366+471403171+472242699+473146126
3993+474185837+474348517+473009174+471574161+471345582+471801939+471959065
3979+472372941+473193494+472617560+470880072+470351062+470742943+470671312
3966+471152331+472608007+473046278+472151250+471171394+470277876+470154522
3952+471674319+473919355+474803718+474614955+474237516+472005278+468942977
3939+467877493+469005498+471473558+472959806+471866194+470908688+471453295
3925+471269197+469913324+469489628+469897905+469378849+467883892+467059783
3912+467198468+468178324+470317735+472100371+471935069+470905711+468840552
3898+466915100+467784400+469253584+467493344+465648632+468431298+471270974
3885+470350573+469114633+467310135+465473688+466513177+467884069+468425388
3871+468158283+466200393+466083171+466623734+464611364+463483936+465331670
3858+468304522+469237098+463155644+457195188+459041900+462924088+465555494
3844+466201015+465757322+464233792+461125811+459861476+460927183+461329061
3831+461428198+462254884+463093656+464419090+464709034+460893812+458959027
3817+459845524+459188317+459963679+462733547+464431977+462934931+461388383
3804+461961207+460685452+459853345+461351279+461389539+460990904+461725830
3790+462571134+463079259+463010605+462674136+462951416+462499725+461164959
3777+461740493+463567609+464304579+463097522+462019773+462495104+462551004
3763+463047665+464450417+464533779+464433487+466252516+468213650+466772149
3750+464787508+467947613+470257925+468075544+469390758+475103883+481153966
3736+483285467+479122222+476107201+478727498+483605850+486368875+485067747
3723+481323178+477507333+475580103+476250685+478881513+480923077+480627756
3709+481965321+485938736+490793404+495664157+500018032+504653364+510068191
3696+515628457+520658691+523957036+523812663+523433847+526305340+529613283
3682+531247902+531611344+531811572+528829167+523642963+523791112+524011025
3669+521715066+522340857+524554343+526151014+528362767+531906709+534957412
3655+538055173+543453692+549176993+550279537+547589564+547851070+550430974
3642+552245071+551894738+551000909+550945276+551388657+552637662+552205700
3628+546579536+543598597+544941806+546353846+544743133+540214669+537797489
3615+537015462+535505663+535176126+535545033+534374857+533695299+534288785
3601+534395520+534124194+534139703+533318171+532052237+532762589+534117396
3588+530618779+524302836+522142495+522342368+521856461+521079588+520656247
3574+520259701+521544432+526114977+530421794+527380689+520910421+517958276
3561+517017657+516330322+516830004+518413122+519116898+519011008+520582261
3547+522857425+521911251+518695113+516752552+516527085+516999483+516999483
3534+516672968+517332219+519141871+521159795+522139474+520778179+518172946
3520+517321999+517807550+516967933+515579000+516700740+519608137+520788888
3507+520953479+522092771+522220125+520055962+517883757+517307557+517760714
3493+518165881+517960898+517193623+517029299+518410412+520027212+519739623
3480+517877670+516656349+516667546+516636975+516212567+516371692+517025256
3466+517379321+517217219+517200466+517987693+518403569+517542712+516243983
3453+515236532+515129486+515772429+515908137+515497816+515513413+516180484
3439+516673412+516182840+515724261+515846726+515189741+513746596+512738212
3426+512803044+513591159+513842400+513574851+513847777+514298268+514349769
3412+514674196+515401923+515630190+515032216+513849243+512925820+513010782
3399+512979855+511996177+511511959+512085626+512473107+512515277+512921021
3385+513401640+512744700+511028096+510377243+511396159+512136328+511753868
3372+511453481+511586122+511158427+510513484+510784098+511362743+511454148
3358+511706055+512165655+511851138+510895944+510239758+509977631+509463730
3345+508517378+507949665+507908606+507533034+507251221+507823645+508476097
3331+508325371+507202253+505762707+504941309+505117364+506253768+507554141
3318+508157136+508050490+507689359+507185278+506150099+504918691+504517702
3304+504896873+504748635+504007622+503760425+504033217+504382572+504178433
3291+503040652+501575111+500752602+500927324+501279346+501230999+500822189
3277+500036918+499166774+498999561+499685918+500046871+499712980+499064704
3264+497792860+496140288+495299916+495799953+496493154+496418768+496239069
3250+496427344+496321498+495471483+494436882+494234387+494682746+494857290
3237+495175807+495568976+495062051+494084549+493705733+493815668+493230180
3223+492106929+491914744+493127755+494311039+493786251+492476636+492194335
3210+492295826+491163777+489488543+488859286+489541955+490408055+489947344
3196+489147364+489648335+490717240+490625836+489498141+489446640+490477020
3183+490436494+489046761+488976552+490991899+491776148+489763646+488032512
3169+490131309+493564027+492811194+489024632+488617777+492652158+494331391
3156+490567847+487446046+490566514+495606924+494450790+489063647+488651326
3142+495757784+499744840+493178901+485966508+488738198+497022652+497557660
3129+489749071+486389716+493975237+502013738+497343346+487130374+486690725
3115+497015453+501911224+492998891+484586507+488827115+499230628+498801022
3102+487747544+483175622+491405108+500866403+496569850+484800465+482142043
3088+492018546+500379074+493363044+481788466+480676902+488365914+491808898
3075+485107207+478535357+480584120+488517485+490774963+483350033+477024536
3061+479034373+486264807+488058329+481448709+475603120+475037629+477192504
3047+477387133+474759460+472575391+472503227+473867009+474624642+473761785
3034+472417332+472229546+473356574+473513833+471939513+471597712+479140530
3020+509818773+568904894+615785403+605795455+566933228+535064192+515100203
3007+501945351+492333375+485921584+482438475+479994366+476813910+473914511
2993+473458110+476880209+480829539+478688706+472737537+470902956+475835520
2980+482756991+482619995+475714788+471116826+472667684+478511140+481636184
2966+477281509+471419657+471205920+479568581+488747308+485579960+475332372
2953+470830703+475723231+484806242+485447452+476487573+469902615+471996480
2939+480671125+485265087+479201541+471439787+470258947+476899938+484984252
2926+482750770+472911459+467692284+471220629+479019309+480159534+472130854
2912+465245909+465518657+471214185+475214751+472064289+466847646+465642855
2899+469128408+474617887+475690348+470796888+466175953+465998387+469792814
2885+472805213+470658026+466490204+465098249+467168562+470005840+469642265
2872+466374448+464114260+464771156+467329242+468798427+467220819+464541378
2858+463376313+463975131+465065455+464718277+462449513+460203455+459846324
2845+461121634+461956407+461305510+460502020+460777078+461841585+462752388
2831+462775539+462018796+461378341+461486187+462093759+462444714+462172011
2818+461712588+461620428+461997644+462311850+461888776+461061024+460720645
2804+460840444+460845510+460801163+460910964+460799785+460377733+460193990
2791+460271309+460239537+460245136+460299970+460250779+460298504+460508997
2777+460753127+460859685+460791076+460890523+461248499+461386250+461089196
2764+460734287+460581738+460613065+460831068+461044938+461007923+460909275
2750+461045871+461213395+461154384+461191177+461544264+461744493+461486809
2737+461322085+461656776+461926324+461949964+462498792+463426481+463710648
2723+463441056+463249226+463161776+463202746+463407329+463635907+463664346
2710+463436834+463493090+463949092+464173182+464118081+464237836+464526892
2696+464735474+464915928+465117845+465279592+465353400+465323939+465486307
2683+465981190+466442479+466568500+466541127+466706340+467044053+467439710
2669+467800663+467979073+468016799+467966987+467955567+468242578+468744393
2656+468994700+468945688+469188397+469791836+470253925+470634608+471193923
2642+471728487+472011455+472099260+472226747+472574991+473010996+473275523
2629+473451400+473838704+474304214+474552344+474782567+475218039+475781753
2615+476342623+476784627+477178329+477576386+477845357+478108195+478613787
2602+479190432+479568359+479898829+480317637+480644641+480881618+481179339
2588+481513452+481845877+482165771+482578714+483270137+484134549+484949237
2575+485562364+485840977+485927405+486128522+486495651+486839985+487122642
2561+487498392+487935686+488280064+488519174+488787522+489253210+489823412
2548+490284035+490652808+490884897+490899472+491070017+491762418+492642871
2534+493194898+493524568+493974526+494331302+494354320+494447680+494853557
2521+495222020+495376035+495541559+495874783+496311855+496668587+496766212
2507+496815136+497141429+497459812+497510692+497767398+498470552+499047108
2494+499129936+499050574+499152110+499424102+499670144+499739775+499645615
2480+499622997+499887124+500209640+500290291+500217905+500200931+500237679
2467+500198931+500102327+500016655+499999458+500140364+500293402+500249588
2453+500279227+500564194+500553796+500144675+499922406+499825447+499543857
2440+499366024+499552655+499697338+499330653+498768894+498454777+498134394
2426+497629158+497345879+497336814+497197641+496940046+496713645+496371533
2413+495941437+495620388+495307648+494830584+494357519+494158091+494032648
2399+493587312+493212672+493793228+495958590+500550641+508961693+522289134
2386+540276658+561346079+583442369+604688645+623938371+641537392+658880284
2372+676833147+695444107+714053956+731356722+744507397+751385677+754286808
2359+753262738+744737353+729796800+712008171+694207411+683693430+686857800
2345+697832404+700088504+691577516+682107424+675055533+672076816+675048735
2332+680303770+680454319+676365459+675494916+679002020+680043598+673717746
2318+662854454+653416710+650712119+654047567+655337631+648944103+635979348
2305+620686373+608158290+600018253+593555316+586176511+577021158+566406840
2291+555805187+546396771+538165952+530893881+524666499+519534685+515301320
2278+511558661+508220857+505513777+503322464+501540718+500171470+498873008
2264+497508070+496332918+495470594+494741046+493989590+493470179+493236357
2251+492886335+492418247+492113683+491934829+491814807+491780547+491735712
2237+491676434+491785880+492197134+492809417+493373575+493822333+494186530
2224+494482162+494839693+495289207+495757428+496239247+496804161+497568680
2210+498451222+499312301+500122723+500668085+500951364+501408521+502149223
2197+502974887+503909952+504996721+505985464+506615077+507072056+507832399
2183+508920723+509778914+510271486+510934603+511954940+512935330+513528060
2170+513966243+514705879+515649786+516491047+517032276+517182825+517319955
2156+517695616+518000935+518055280+517959254+517867583+517780133+517546755
2143+517330930+517323732+517382742+517168606+516334010+515156814+514065779
2129+512944572+511878022+510981616+509777625+507959396+506022435+504578801
2116+503472436+502128338+500404314+498550981+496794474+495206556+493711288
2102+492197179+490593709+488940559+487358419+485969930+484919687+483958316
2089+482517748+480672014+479047792+477914810+477056041+476151771+474980173
2075+473660116+472519668+471492443+470479660+469786104+469223501+468174591
2062+466908568+465975591+465223025+464489121+463942293+463680521+463518419
2048+463331432+463361293+463844534+464561641+464947389+465047325+465351578
2035+465776563+466164622+466690743+467445976+468303811+469088727+469749178
2021+470404963+471099185+471391351+470928418+470052586+469178843+468382996
2008+467520628+466505623+465327049+463911721+462335135+460804984+459695908
1994+459164499+458203795+456012882+453516473+451553561+450181513+449084835
1981+447805525+446379354+445053564+443893565+442915441+442165674+441571566
1967+440610862+439043785+437606328+436721031+436091196+435521572+434826106
1954+433901572+433053335+432479845+432137511+432155508+432449229+432170705
1940+431158232+430354831+430062087+430051467+429966595+429609863+429275527
1927+429420610+430234232+431122861+431354506+431045454+430605183+430446725
1913+430572478+430787770+431030790+431087490+431104954+431429514+431829348
1900+432157463+432607821+432895721+432794807+432673053+432424789+431952569
1886+431812773+431926751+432219851+432935313+433334792+432907585+432748416
1873+433852471+435455274+435728155+434877652+435194568+436701124+437919201
1859+437957860+437359975+437154281+437687290+439118615+441322414+443131800
1846+443567983+442880826+442056362+441444924+440908938+440972392+441724559
1832+441528908+439312622+437495060+437546872+437179254+435677054+434515765
1819+434025771+432919405+430984977+429180701+427234586+425222705+423611993
1805+422798015+423239708+422562194+419156270+416407643+415274571+413839469
1792+411698547+409905069+409245684+409195650+408346524+406825171+405592519
1778+404397904+403025101+401150794+398799468+398761164+400472702+400590058
1765+399767460+399288130+399103765+399342297+399131138+398859679+400121081
1751+401577290+400677463+399142958+399021825+398947928+397823700+396648103
1738+396809095+397562328+397599121+397901241+398544850+398503925+398727482
1724+399657348+400498786+400962786+401127465+401274371+401634879+401981613
1711+402436947+402834116+402896504+403395430+404692070+404885544+403421425
1697+403152810+404118269+405862379+408179223+410394664+411851717+411952765
1684+411975649+414753960+417435490+418411969+418444851+418808915+419970203
1670+421286439+422987579+425420356+427599760+429284326+431622454+434644363
1657+437237421+437991276+436177046+437209248+439974006+441814719+444080151
1643+447362365+450197776+451958061+452198859+451580133+453529137+456814017
1630+459204936+460874304+462743501+464885712+467598791+470345597+471698937
1616+472597342+475690215+479470022+482168704+484130372+486463479+489196910
1603+491914877+494538285+497149383+499824736+502707960+506001328+509609835
1589+513186881+516614223+520324889+524362380+528102151+531218086+533754310
1576+537102156+542069691+546496485+550226036+554942153+560546988+565943151
1562+570487345+573708816+578272828+586827363+595358570+603606719+611598340
1549+618997320+626164921+633086970+636434460+636324792+644271800+656184934
1535+664905927+672072906+679393189+686461699+693173077+699265596+703983845
1522+709084199+716817603+726318312+735702332+743679867+751906999+760835862
1508+766038952+764872420+769305347+777483954+784054248+787968163+791977527
1495+798829989+806557838+813325250+818375124+823592789+829754006+835599106
1481+841020643+845917569+850057485+853394800+855910317+859285225+864887882
1468+870575146+874607527+878492648+883631483+887431998+888537474+893052252
1454+902381749+910474684+916437806+920620558+924631699+929270009+933927248
1441+938418563+941677048+943776201+948621493+955725106+961539901+966961704
1427+972917361+976753513+978921186+981392889+982539424+984118232+989498533
1414+995037558+997706290+998204239+999037679+1001584123+1004462504+1005620326
1400+1004827145+1003446432+1002799445+1002932842+1004409447+1005408811
1389+1003519840+1000264643+999625743+1001623760+1004540622+1007441665
1377+1008541187+1007569907+1007832523+1010397897+1012666351+1014234583
1366+1015049182+1013184740+1011093408+1012506470+1014734931+1015182578
1354+1013800711+1012260029+1012721273+1014381310+1014001472+1011309367
1342+1007685974+1003718646+1001971515+1002841482+1004114926+1005503548
1331+1006182440+1005214804+1003628886+1002869210+1003136358+1004013879
1319+1005180588+1007036409+1010318268+1014238582+1017858953+1022540899
1308+1030486751+1039286928+1043264031+1043141743+1043503363+1044684380
1296+1045511244+1046794997+1048896283+1051212549+1053532992+1055405877
1285+1057050450+1058638679+1059278378+1059278822+1059559746+1060189492
1273+1060873183+1061293013+1061270884+1060686019+1059021361+1056945048
1261+1056677366+1056828360+1055541851+1055741457+1057288182+1057231927
1250+1057286849+1058935244+1060215443+1060751251+1060519562+1059671369
1238+1060549423+1062588498+1063115241+1062474209+1061800383+1061387129
1227+1062077663+1064192190+1065493896+1064406815+1063000152+1062734425
1215+1062915902+1063566888+1064840777+1065905550+1066168433+1065977092
1204+1066204959+1066745211+1066741567+1067123894+1069541474+1072782452
1192+1073741823+1071888046+1069310052+1068043451+1068557752+1069568491
1180+1070763995+1071938880+1071956210+1071568285+1071307535+1070585185
1169+1069483263+1067768659+1066124263+1066270991+1067795676+1068380275
1157+1066750010+1064066436+1061817890+1059088548+1055965681+1054735695
1146+1054056003+1051436151+1048616781+1046838544+1044456335+1041484728
1134+1039459695+1037787305+1035207711+1031739310+1027717949+1024298517
1123+1021851698+1018342594+1012959272+1006848179+1000978817+996659202+993829612
1109+990413557+985909622+981338677+976852872+972484644+969194787+967859399
1096+967506400+966454157+964567409+961840821+958630504+956937940+956740556
1082+955340025+951979870+948530399+946230574+944179146+941187720+938311206
1069+937037939+936516173+935738811+934966426+933708090+931167689+928299528
1055+927252352+928149779+928257847+926311021+924040524+922377643+920942008
1042+920012497+919786852+919965395+920280890+920198506+919822756+920087061
1028+920624469+919823111+917549592+916036016+916708509+917862599+918180582
1015+918909509+920645887+922075212+922185769+921848500+922200610+922934070
1001+923442772+923743781+924323758+925342407+925874660+925315301+924413074
988+923501694+921997983+920201172+918775668+917654639+916629414+915407426
974+913879008+912049671+910013262+908335362+906854313+904867939+902579134
961+900631685+899504613+898903928+898116168+898044004+899577488+901187223
947+901708101+902151394+903992285+907324356+910425094+912124945+913021928
934+914487158+917179530+920102436+922927937+925920429+927753677+928024737
920+928861287+931770506+934951318+935884650+935220333+934889641+935120618
907+935182384+934983756+935118663+935669224+935430781+933314299+930948442
893+930821533+931592763+930449427+928667280+928597515+929003660+928423771
880+928743087+931068597+932231751+931186352+931677102+934428218+937482920
866+941098493+945429395+949690443+953545792+956774594+959185331+961663788
853+965452572+969270417+971725945+973545329+974863743+975835912+976640290
839+977170855+978920297+982608033+986010847+986297192+984575211+985367059
826+989271287+993382676+996738209+999566555+1002044568+1003971842+1005685291
812+1008053992+1010214910+1012941053+1017910410+1020903169+1018969140
800+1017411306+1019489040+1023034049+1026151939+1027398899+1027333223
789+1029012101+1032412426+1035236239+1038227931+1043203242+1049012527
777+1052331179+1052278567+1052085537+1053339696+1054204330+1054124879
766+1053747618+1052225421+1050615064+1052986519+1057917484+1059006875
754+1056238251+1054614651+1055245375+1055174633+1053156265+1051434729
743+1052511144+1055453424+1055884896+1053351072+1050992947+1047987391
731+1044545029+1044527433+1046989982+1047841107+1046939592+1045760885
719+1044813778+1044100492+1043182269+1041413186+1039274397+1038574087
708+1038700018+1038636297+1039268087+1039221429+1037108857+1034879419
696+1035761383+1038792178+1038066184+1033563227+1030781006+1030341979
685+1030603795+1031599782+1032447797+1032805861+1034276601+1036866148
673+1039856596+1041527564+1036083276+1028329565+1034418174+1046486968
662+1050297702+1043443285+1036308122+1035336842+1038760362+1046164629
650+1052400854+1046276875+1033632280+1029914505+1035077336+1044362131
638+1058465556+1068625472+1062618359+1043676840+1022586935+1005546918
627+1002307362+1018495631+1031079082+1022636347+1010825371+1002033548+990280782
613+980034483+981626977+994147062+1004072623+1012883376+1023479919+1021113529
600+1014653791
##END=
