##TITLE=Sample description
##JCAMP-DX=4.24
##DATA TYPE=INFRARED SPECTRUM
##DATE=24/8/2023
##SAMPLING PROCEDURE=Instrument type and / or accessory
##ORIGIN=Default
##XUNITS=1/CM
##YUNITS=ABSORBANCE
##RESOLUTION=4
##FIRSTX=4397.6552
##LASTX=599.8556
##DELTAX=-1.9287962
##MAXY=1.3785126
##MINY=0.21719863
##XFACTOR=1
##YFACTOR=1.2838399e-009
##NPOINTS=1970
##FIRSTY=0.24395038
##XYDATA=(X++(Y..Y))
4398+190016198+189865822+189703908+189707123+189898866+190235995+190435862
4384+189928695+188826197+188327979+189086721+190020087+189849027+188925783
4371+188267856+188243412+188735050+189421912+189990072+190165913+190002584
4357+189960626+189969783+189549922+189032483+189108159+189332018+188844199
4344+188150280+188122470+188468397+188485470+187764218+186682774+186383309
4330+187062244+187773248+187987264+187733762+187110586+186579787+186550945
4317+186634037+186388451+186066411+186166832+186680499+187025682+186879949
4303+186512759+186427345+186720658+186766180+186338983+186106814+186299532
4290+186530540+186722167+186783694+186563677+186522590+187138976+187842099
4276+187623614+186735085+186238585+186265965+186328386+186269424+186048130
4263+185517947+184858535+184657797+185266685+186213758+186669264+186497473
4249+186092770+185625994+185197614+185114486+185317766+185401253+185525561
4236+185837051+185858918+185459229+185144815+185250854+185538294+185868516
4222+186322409+186605926+186536773+186446066+186522381+186474828+186249530
4209+186137606+186131281+186352342+186881179+187209243+187182698+187090808
4195+187011522+187008690+187218261+187607945+187851024+187674869+187116958
4182+186522485+186458729+186914421+187368278+187692674+187821682+187461863
4168+186779527+186284559+185925389+185572174+185591859+185911345+186094232
4155+186126360+186119256+186068616+185927490+185642151+185338159+185156944
4141+185039182+185090194+185294402+185170222+184878034+185101348+185475002
4128+185337916+185126789+185269923+185414473+185402542+185356823+185138849
4114+184799585+184753843+184987590+185042594+184754678+184485321+184674789
4101+184959966+184690099+184231831+184204125+184370902+184326913+184277468
4087+184440067+184509881+184452590+184512110+184478090+184304419+184193668
4074+184006521+183908270+184211774+184546616+184482431+184150085+183925495
4060+183995263+184195432+184268844+184108660+183767864+183521082+183472241
4047+183368349+183403610+183833094+184159463+184125687+183982101+183743559
4033+183484591+183562599+183863608+183827360+183574775+183629210+183773691
4020+183717398+183730270+183837121+183885939+183929557+183806735+183544353
4006+183532979+183640074+183406733+182889770+182529451+182421346+182286743
3993+182271260+182698096+183108974+182973605+182662905+182546536+182358530
3979+182142030+182182944+182239538+182142448+182059658+181931821+181688893
3966+181567405+181455621+181020915+180697656+180821755+180923732+180706501
3952+180497684+180420001+180225344+180241629+180189317+179582913+179420372
3939+179978737+180492426+180238263+178866396+177923640+178651985+179308507
3925+178524195+177920089+178592326+178816034+178005700+178017376+179223151
3912+180253282+180653005+180283413+178279734+175530441+174459524+174650582
3898+175727604+177775875+179041982+177997749+176904583+177630083+177452489
3885+176097986+175715939+175256290+175717053+177228247+177070686+175696486
3871+174419005+173928471+175235131+175570797+174521701+175235433+177016436
3858+178168043+177063873+171333941+169178899+173653148+177940424+179689602
3844+178855717+176722984+174507785+172688641+173003427+174870657+176309530
3831+177360622+178055667+178085670+178262939+177244218+174113261+173968734
3817+175262918+175609123+177521015+179712711+179967849+178078636+177154069
3804+177385077+175465640+174806147+176659217+178194262+179988486+181785054
3790+182468864+182258481+181613832+181295657+181709077+181504543+181087619
3777+182189397+183555241+183723016+182373851+181068676+181143865+181651566
3763+182500016+182762908+181550541+181083382+181860196+181346936+178253677
3750+177234991+180433302+182102417+180634133+181851944+184784612+185231540
3736+182424874+180791090+183242486+187237052+190385129+191565869+191822714
3723+193078235+195659394+199400864+203929386+209024663+214925074+224961840
3709+242653163+265648777+292036569+321985486+352824800+375896461+388820628
3696+395086698+396693067+393307760+384611152+376144218+372069774+368335407
3682+362675695+355869357+348547657+337909942+327934529+324515169+320081636
3669+315701426+316233825+317295654+316796728+315974183+315393407+313860322
3655+312909849+313838989+312646214+307460242+306384833+310773633+315356056
3642+317965593+318772422+319414947+320507324+321604925+322675040+321829027
3628+319455524+321471331+325641252+328322054+328569718+328026106+329418169
3615+331697611+333550228+335455656+336993917+338708368+341690225+344251107
3601+345168176+345791271+347069658+348235947+349429744+351154083+351535433
3588+349113971+348155443+350453386+352858158+354278285+354989220+354958717
3574+354745525+355064803+355054798+352478061+348736312+348543269+350164309
3561+350818603+350896484+351478468+352215471+352007803+351184562+350746247
3547+349915925+348442430+347960032+348644874+349053918+348269095+347160910
3534+346957235+346945234+345938723+344389668+343385385+342736547+341975704
3520+341223565+340415274+339694706+339318509+338809973+337798308+336824668
3507+336154496+334927713+333013000+331788585+331229884+330241805+328956779
3493+327821759+326760441+325682409+324539752+323495008+322761928+322138392
3480+321432658+320739087+319782137+318371643+316977607+316014598+315514140
3466+314980301+313717606+312099375+311100455+310530821+309886091+309315227
3453+308626066+307664636+306556984+305604444+305499032+305902598+305993176
3439+305747834+305263137+304703810+304108618+303295776+302738260+302979099
3426+303709834+304440709+305061436+305605002+306350663+307787458+309977389
3412+312444419+314590013+316202766+317625052+319119277+320876441+323054580
3399+325236549+327061705+328602681+330061436+331796779+334001706+336567927
3385+339204996+341787327+344421331+346775033+348568317+350180767+351960146
3372+354033593+356158642+357579234+358153302+358647516+359597572+360902259
3358+362075141+362761098+363278873+363838363+363936417+363462282+363022342
3345+362955046+363092423+363078448+362367677+360970646+359880729+359301415
3331+358383440+356898802+355266341+353950605+352847294+351662295+350738145
3318+349844126+348647080+347904900+347692729+347445065+347410825+347822260
3304+348557244+349859122+352151100+355158863+358094967+360863261+363722087
3291+366585718+369575120+372803086+375804907+377863427+378715314+379022520
3277+379360508+379378962+379000351+378774415+378876392+379024749+378920776
3264+378435917+377544336+376504374+375911991+375865100+375829188+375528226
3250+375034593+374338817+373420819+372672766+372596881+372649599+371923065
3237+370866715+370410478+370416537+370301283+369891473+369321722+368783658
3223+368178136+367369822+366654964+366225144+365740216+364835844+363837667
3210+363304756+363274811+363461656+363414347+363174738+363162017+363231634
3196+363236137+363121672+362823635+362732754+362905857+362670890+361784068
3183+360930696+360619125+360550576+360280024+359756839+359057419+358269509
3169+357750457+357589146+357353252+356686701+355710554+354910248+354601138
3156+354803512+355025456+354618710+353798069+353107075+352655388+352285389
3142+351861652+351234193+350340151+349764644+349815365+349674668+348968284
3129+348405776+348453155+348760593+348642901+347930597+347100160+346587933
3115+346554343+346672430+346405452+345739645+344992567+344238595+343302165
3102+342447911+342308747+342889825+343226768+342444847+341147100+340485170
3088+340714704+341203254+341214466+340756117+340409146+340653629+341004408
3075+340762291+340335304+340068024+339545838+338348722+336699431+335147475
3061+333729784+332486821+331511927+330557043+329530568+328579398+327882787
3047+327401085+326874720+326369295+326082678+325852680+325577856+325328915
3034+325021732+324697881+324589521+324732330+324920893+324960634+325106600
3020+326420619+329231881+331461206+331429636+330504209+330502561+331716205
3007+333800353+336268683+338824574+341862956+346097712+351916505+359318825
2993+368223611+378399263+389043570+399216041+408837960+418606308+428538683
2980+436774621+440810786+439960617+435350570+428459804+420659072+412757593
2966+405106448+398458448+393634884+390758648+389063743+387838956+387400617
2953+387793481+388372075+389058055+390005372+391117388+392314922+393542494
2939+394403202+393991256+392053771+389255671+386006813+382572224+379111590
2926+375446028+371945211+369271303+367167540+364762838+361772159+358793134
2912+356279979+353924025+351501820+349191017+346936877+344696967+342720112
2899+341116250+339785076+338552281+337432418+336643742+336207353+335964703
2885+335733985+335341980+334499449+333034589+331211035+329159595+326792034
2872+324090549+321206605+318644400+316535577+314507954+312531934+310714950
2858+308939494+307109440+305162298+303056353+300960459+299099927+297415909
2845+295879992+294726471+293907106+293181548+292449837+291531328+290528392
2831+289758333+289225957+288939549+288773411+288485541+288256262+288091331
2818+287686698+287258967+287118271+286984027+286594947+286132698+285782779
2804+285543449+285415473+285367700+285218786+284825341+284349164+284122717
2791+284132978+283968441+283473879+283019383+282895818+282912207+282896863
2777+282899718+282819469+282568532+282254129+282001080+281923617+281971367
2764+281933854+281947201+282256892+282510057+282358706+282079286+282012687
2750+282132329+282163713+282046926+282034646+282150226+282140593+281951357
2737+281802234+281851910+282047739+282307195+282624244+282873417+282912950
2723+282911348+283040809+283223545+283365124+283454263+283468238+283384739
2710+283362826+283441798+283335991+282995241+282698620+282554558+282442599
2696+282361979+282336305+282212995+281941468+281565898+281170968+280920100
2683+280787227+280562521+280098995+279514342+279135359+279013628+278820516
2669+278361702+277837334+277554850+277462971+277182251+276725597+276407317
2656+276155359+275874059+275606408+275225313+274828874+274691079+274765943
2642+274858657+274854595+274748416+274640938+274575732+274574153+274700852
2629+274921101+275117672+275249362+275425436+275726468+276010391+276106611
2615+276107679+276229503+276474683+276722347+276879780+276926579+276916574
2602+276763365+276462658+276234610+276108584+275899640+275503433+275112612
2588+274931129+274765362+274409686+273975409+273607778+273270418+272904528
2575+272596834+272393275+272217666+272041127+271787846+271332886+270771933
2561+270275445+269869720+269505873+269119277+268812836+268751112+268797121
2548+268738670+268594352+268393556+268191459+268189602+268318507+268290209
2534+268211353+268410200+268803203+269056183+269194419+269436140+269747525
2521+270023115+270287446+270556420+270783053+270991672+271234484+271500092
2507+271779280+272021094+272137301+272135699+272126414+272185190+272262119
2494+272309776+272397964+272526010+272610297+272674947+272682561+272608858
2480+272553564+272465747+272402282+272590705+272939208+273167118+273179978
2467+273078350+273049751+273184180+273323414+273357677+273444170+273605434
2453+273639233+273565367+273629645+273849430+274027431+274135118+274249212
2440+274359661+274494137+274733328+275022497+275220020+275281188+275279888
2426+275372370+275671823+276089967+276399634+276555930+276741916+276994455
2413+277236408+277500484+277819251+278195169+278582137+278879919+279106366
2399+279368817+279720848+280130728+280473474+280741009+281073471+281357302
2386+281347111+281040810+280476190+279610538+278336701+276584018+274625153
2372+272672672+270652152+268684768+266856664+265299229+264355836+264109704
2359+264452078+265339435+266993740+269709757+273028139+275473209+275719504
2345+273852982+271827332+271197993+271493871+271938153+272387216+272814808
2332+273141258+273639325+274672485+275961248+276933705+277675420+278640310
2318+279862984+281068852+282050524+282823485+283494864+284080469+284643580
2305+285241001+285755387+286164663+286619043+287096659+287406372+287527245
2291+287611092+287733983+287869480+288015191+288167030+288151059+287915652
2278+287806827+287919714+287907202+287718105+287606356+287591546+287564688
2264+287558583+287630777+287705756+287621375+287454912+287457535+287578871
2251+287652736+287677714+287681405+287736351+287881087+287989145+287980951
2237+287945922+287965050+287996759+287943949+287837492+287841601+287962729
2224+288047040+288110203+288269981+288433381+288470313+288518528+288716817
2210+288908792+288941314+288873623+288826314+288910417+289128994+289385619
2197+289590709+289696029+289719822+289661023+289571396+289600204+289751648
2183+289823238+289712951+289615269+289688972+289834497+289917276+289958410
2170+290012381+290010013+289979325+290020645+290047689+289957389+289814208
2156+289688391+289480469+289152370+288830029+288504228+288094929+287681057
2143+287372249+287124004+286802429+286366898+285908248+285477383+284995774
2129+284469247+283993210+283489385+282825806+282087666+281469632+281026719
2116+280620020+280067726+279385321+278817080+278478001+278173441+277784500
2102+277441986+277238985+277077768+276836835+276628495+276545878+276385543
2089+276114550+275975408+276020651+276146863+276254782+276246031+276190481
2075+276240459+276349887+276448289+276593536+276730588+276781657+276835327
2062+276919081+277059011+277358395+277696359+277900335+278011342+278102176
2048+278189876+278279782+278371220+278479417+278610852+278702290+278716798
2035+278744329+278883795+279066323+279121849+279056109+278965205+278882310
2021+278865828+278832610+278703822+278726385+279005294+279221295+279140791
2008+278893847+278705772+278615773+278473939+278188112+277918001+277801516
1994+277602020+277170227+276883727+276872770+276810163+276637014+276510176
1981+276405043+276212812+276002545+275851495+275705018+275490944+275110755
1967+274723880+274750459+275055716+275141791+274965021+274685160+274380252
1954+274200162+274120586+273925477+273564230+273080950+272375192+271801936
1940+271989965+272480070+272676409+272696489+272705449+272746491+272905410
1927+273084246+272892108+272493348+272535481+272762995+273035637+273820692
1913+274693238+275020339+275053835+275468613+276311562+277167232+277840514
1900+278264716+278474009+278684740+279134686+279701070+280102779+280738037
1886+281780692+282721857+283502153+284241779+284918009+285567033+286248765
1873+286717839+286281868+285273662+285794966+287847102+289598625+290543203
1859+291101369+291680219+292453435+293282967+294029813+294544338+294666139
1846+294358120+294369448+295869407+297800184+299040129+299951581+300945324
1832+301418832+301107957+301465862+302833899+304292979+305989021+307700199
1819+308912450+309679004+310148821+310267557+310308808+310985061+312221431
1805+313276319+313637915+313348675+313356545+314182525+314856666+314429887
1792+313988275+315622686+317988668+319306076+319663447+319808554+320157568
1778+320936819+321504248+320754617+319065353+319574702+322390885+325035428
1765+326517675+326754730+327020686+328263533+329597098+330999398+331994650
1751+331218092+329819599+330672646+332846258+334559362+335538110+336446614
1738+337811703+338365691+337630777+339133638+342907978+346663075+349489982
1724+351341624+352778373+353472942+352284554+351526635+355144123+360091716
1711+363944216+366108265+366712255+367557734+369672965+371187919+371931329
1697+374593607+379776724+385554290+389827836+392841263+395177277+396504574
1684+398871368+405276324+412290864+418034515+422781475+427585819+432128779
1670+436990784+444594435+452624098+458541014+463435101+468963796+474290256
1657+477941449+479492291+482601312+490317176+496781279+503819590+514851120
1643+526202068+535922132+543960524+551063089+561573432+575468942+587061123
1630+597018800+606770575+616171919+625819837+636745421+646316595+653696468
1616+662114584+672006011+680403467+687097801+693063838+698765844+704122481
1603+709415514+714553759+719054378+723093514+727202105+731254194+734950653
1589+738417625+741785475+744784557+746964344+748696576+750111852+749801349
1576+749015203+751970922+755655636+758269143+762738888+768560025+773369151
1562+776693778+776703574+775346145+783054860+793432561+802593414+810534820
1549+818225149+825212947+830774513+835001028+840859539+856915615+874035052
1535+886411894+898652519+912124755+923420037+932339656+940219593+947282045
1522+954167054+961445949+968131415+975378275+983376600+989551650+992994201
1508+992317948+990501822+998732931+1008830121+1015102946+1016654160+1016990940
1495+1021257847+1026355700+1026813191+1024051814+1026821269+1032789719
1483+1036560415+1037822390+1038175234+1037512816+1033912692+1027082374
1472+1022598840+1024975337+1028082686+1026389592+1022566434+1022744713
1460+1023173883+1015205735+1004834905+1006696158+1011552035+1014426414
1449+1014868119+1014244049+1014432542+1014569409+1013964745+1012140727
1437+1008169374+1006802289+1009724581+1011266974+1011021840+1012473886
1425+1014238571+1014406543+1013077714+1008886855+1005550993+1007984596
1414+1011372177+1012458844+1012157070+1011634489+1010585149+1009476383
1402+1009203579+1007789789+1004480111+1000741450+997729090+997572910+998065313
1389+994899281+989075218+986593331+988785050+992643771+994725644+992607094
1375+987339596+984725486+987279706+989947578+990876115+991507985+990830803
1362+989563257+989598448+989833275+989523051+988666104+986854529+983800013
1348+980575018+978668639+978804484+979771277+979061225+977473891+977558573
1335+978851561+980341584+981648500+982444813+982601551+982612229+983385143
1321+985051031+987080813+989627419+992700041+995379241+997748961+1000637361
1308+1003597815+1006439324+1009479540+1011327700+1011946570+1013989537
1296+1018032852+1022354542+1025561059+1027749992+1030325753+1032701601
1285+1033339320+1033597082+1034789045+1036199214+1037409934+1038264931
1273+1038650181+1038657516+1037604648+1035193702+1032753878+1031802499
1261+1032466867+1033515092+1033694486+1033633109+1034768153+1036443791
1250+1037235926+1037103331+1036767200+1037230169+1038412568+1039146576
1238+1039262365+1039509170+1040319504+1041129096+1040848121+1040065457
1227+1040736603+1042260240+1042790991+1043078745+1043532521+1043203819
1215+1042548365+1042311031+1042146772+1041817977+1041749451+1041411928
1204+1040090713+1039290035+1039705834+1039273879+1037353200+1035515532
1192+1034725440+1034755525+1034372225+1032901794+1031559222+1031655697
1180+1032228419+1030973779+1028476479+1027469388+1027766520+1026894531
1169+1024643757+1023337955+1023991552+1025022971+1025241642+1025520946
1157+1026169436+1025726710+1024261942+1023951811+1024462414+1023511777
1146+1022524742+1023232102+1023357269+1022158156+1021395549+1020908809
1134+1019854920+1018816816+1018257279+1017422246+1015688296+1013700484
1123+1011904415+1009903510+1008081999+1006746391+1005707451+1004906495
1111+1003546931+1001840373+1001475737+1003037629+1005014206+1005967535
1099+1006818353+1008588330+1010817005+1013227301+1016425368+1020002557
1088+1022535978+1024446071+1026688302+1029344847+1032366213+1034806130
1076+1035945538+1036620213+1037963713+1040633257+1043923714+1045827493
1065+1046841920+1048670581+1050242780+1051010865+1052249719+1054009297
1053+1055246108+1055966653+1056546617+1056412351+1055879185+1056191359
1042+1057722331+1059667616+1060979453+1061002481+1060035224+1060241823
1030+1062464555+1064637053+1065537363+1065202161+1063502288+1061693220
1018+1061459507+1061742711+1061094127+1059981740+1058916987+1058627655
1007+1059563063+1060896256+1061699534+1061896848+1061857849+1061064043
995+1060109692+1061126533+1062323975+1060368940+1057282483+1056003887
984+1055852350+1055669243+1055662836+1056024315+1055531541+1054070581
972+1053496373+1053590805+1052392807+1049443588+1046513775+1045243536
961+1045129326+1045123569+1044413888+1043122851+1042455140+1042458947
949+1041991428+1040573645+1039276293+1038581190+1037640025+1037086246
937+1037509194+1037971513+1038950841+1040736046+1041321396+1040396852
926+1040524897+1042813555+1044457158+1043276988+1041270791+1039685778
914+1038596325+1039052980+1039689306+1038544977+1036406185+1034263957
903+1032428425+1031645669+1031867682+1031845026+1030936081+1029726661
891+1029624244+1030948152+1031771207+1031442412+1031896745+1033310443
880+1033396425+1031312974+1028909270+1028918091+1030794015+1030711653
868+1028623745+1028677322+1032330929+1036300332+1037822390+1038083494
856+1038653245+1039724034+1040941346+1042045098+1043410697+1045188845
845+1047208135+1048199998+1046744145+1045831672+1049394561+1054224068
833+1054126107+1049067716+1043169835+1039102657+1037859438+1040356182
822+1045420144+1048539378+1047892838+1047116303+1048772255+1051205672
810+1052811484+1052826527+1050151969+1047321416+1046894382+1046928645
799+1047416870+1049667365+1052086390+1053495909+1053927679+1053637511
787+1052404414+1049855765+1047740279+1048040383+1050045837+1051738374
775+1052776664+1053316980+1051774587+1048024040+1043734942+1039371468
764+1036492446+1037717187+1041355752+1043430753+1044204596+1044940926
752+1043784897+1040158310+1036624391+1034934918+1035019044+1036521045
741+1038551384+1040516819+1042482810+1044263651+1045185224+1043588419
729+1040692405+1040729639+1043229447+1044119078+1042461732+1040173817
718+1038968669+1039447515+1041227614+1042915230+1044390304+1047525323
706+1050317341+1047240169+1038954091+1032042061+1030359552+1032045590
694+1033675822+1035162410+1037493595+1040098884+1041533288+1040643007
683+1040123305+1043377641+1048349493+1050579838+1048299816+1044129013
671+1041004765+1040724161+1048976534+1060454830+1064436861+1062083019
660+1058651796+1057732266+1058458382+1058373885+1058473796+1059269552
648+1059304837+1057961615+1053472046+1048127201+1047255583+1049732548
637+1049399018+1042640104+1036770357+1042232755+1055348897+1062695947
625+1056010294+1045243443+1045003695+1049598189+1049076908+1047387900
613+1049893650+1061081314+1073741823+1066571660+1045628786+1038507279
602+1047300524+1052878153
##END=
