##TITLE=Sample description
##JCAMP-DX=4.24
##DATA TYPE=INFRARED SPECTRUM
##DATE=24/8/2023
##SAMPLING PROCEDURE=Instrument type and / or accessory
##ORIGIN=Default
##XUNITS=1/CM
##YUNITS=ABSORBANCE
##RESOLUTION=4
##FIRSTX=4397.6552
##LASTX=599.8556
##DELTAX=-1.9287962
##MAXY=1.5169574
##MINY=0.58272564
##XFACTOR=1
##YFACTOR=1.4127767e-009
##NPOINTS=1970
##FIRSTY=0.82802176
##XYDATA=(X++(Y..Y))
4398+586095297+585066037+584794166+584893059+584659708+584889346+585900085
4384+586466524+586200898+585788620+585303987+585070635+585306434+584753453
4371+582780029+581315498+582450949+584946935+585785498+585061860+584788386
4357+584446481+582934865+581247741+580844660+582016100+583161888+583117294
4344+582850275+583287529+583942482+582959040+580636412+579966988+580541612
4330+580217806+580184771+581557962+583091221+583585431+583349801+583962649
4317+585404187+585160415+582487612+579793630+578569496+578107729+578369137
4303+579210526+579404388+579775657+581084551+581615002+581553194+582577772
4290+583646901+583473628+582685102+581299128+579708365+579104503+579348276
4276+580288516+581189308+580258434+578073471+576472414+575721901+575884289
4263+576764240+577131375+577216725+577899650+578176625+577735405+577387551
4249+576931902+576713908+577770296+579037633+578885539+578267375+578177005
4236+577808351+577363629+577753251+578240332+578422000+578977512+579003881
4222+577420248+575125085+573949848+575065851+577664611+579854383+580278053
4209+579161122+578003647+577473576+577313128+577365823+577501421+577127915
4195+576021574+575172211+575387927+575901334+575071125+573508038+572894093
4182+572361617+571614563+572111643+573703081+574842372+575067792+575202588
4168+574856337+573303333+571769400+571448927+572299302+573769825+574940590
4155+575124748+574268845+572502783+570615933+569949589+570417346+570976992
4141+571727969+572849794+573005643+571727210+570958049+571456014+571956342
4128+571953516+571629414+571248821+570791273+569899931+569084446+568972517
4114+569039556+569040316+569838630+570862996+570720563+570471053+571176592
4101+572002329+572321241+571688775+570201250+569400574+570006376+570791948
4087+571037408+570815786+569556338+567402469+565959201+566323045+567638014
4074+568551295+568943954+568838016+568084170+567571439+568007765+568715413
4060+569114823+569195490+568712291+567924356+567876597+568766589+569120772
4047+568292166+567806098+568165723+568186354+567778759+567992703+568833460
4033+568915265+568083917+567672778+567848330+567762938+567455670+567366354
4020+566788566+565584008+565171097+565684040+565956248+565614975+564914330
4006+564505596+565534055+567338636+567172704+565501822+565235479+566078724
3993+566733931+566977112+566306338+565224130+564259799+563343439+563267202
3979+564151034+564547449+563495068+562525633+563334874+564395017+564324729
3966+564405607+564915849+564620268+563807441+563651339+563971686+563665895
3952+562402692+561379718+561884265+563398201+563794573+562052349+560750543
3939+561753477+563367402+563500342+561675890+560043317+560748560+562206637
3925+562481292+562577611+563358078+563181388+561737023+561292428+561920000
3912+562103145+562462180+563235897+562213725+558823190+555986185+555149015
3898+556624431+559872491+561801700+560039604+558729445+560760711+561034480
3885+558596336+557754905+557596609+558686580+561223490+561805750+560394040
3871+557468310+553821304+553685580+554937897+554985023+555284612+556228734
3858+557467382+556591397+549393199+546242386+551490196+556724210+559309975
3844+559394777+558412600+556492715+552938485+551763543+553750805+555618417
3831+557307441+558903773+559314912+559398827+557240443+551161580+550043680
3817+552730616+554284041+557608042+561195729+561183241+557520752+555930115
3804+556195362+552441701+549653931+551477328+554487860+558118580+560761934
3790+560981405+560065382+559059242+558825426+559652682+558931112+557135180
3777+558062974+560539510+561228510+558584692+556002091+556588739+558053397
3763+559324404+559004100+555950957+554669275+556402176+555994370+550453173
3750+547464411+550979954+551993941+548503797+550072200+554737496+554758633
3736+548160035+544431224+548625725+554074822+557031056+556659111+554752094
3723+554386267+555488262+557257277+559239898+559869917+556357117+550567887
3709+550587210+554470731+557545897+558013317+556410740+556138110+557273436
3696+557984459+557647869+555184201+550659565+549890109+553659169+556802725
3682+557660906+557055062+554745301+548542232+544548385+546555518+546201209
3669+545012134+548044098+550811237+551058005+550413430+549476143+546925564
3655+544696555+544425824+541015756+532208442+529475181+533681496+537274751
3642+537634208+535426969+532532965+529497710+527122176+526153922+521989587
3628+513212143+510975160+513602820+514816154+511175688+504382384+501245284
3615+500621635+499256629+497553051+494908009+492389494+492212550+491790864
3601+488864248+485643738+483588255+481178590+479129688+478910471+477634443
3588+472924805+470238375+471328768+471819772+470856496+470012196+469528786
3574+468894928+468392912+467545236+463548985+457792789+456726739+457676218
3561+456807152+455657947+455596983+455093027+453292918+451837626+451150060
3547+449800285+448113329+447473606+447739191+447868671+447075546+445826857
3534+445026054+444213902+442902182+441981138+441800482+441111735+439815836
3520+439505699+439999234+439736097+438841169+437967715+436507529+434716449
3507+433809033+433009580+431491805+430599703+430794620+431001181+430745849
3493+430405293+430001706+429026365+427805943+427463109+427637395+427131371
3480+426270364+425480825+424715082+424384104+424185053+423425385+422382328
3466+421631984+420918261+420032024+419658138+420015865+420177789+419320663
3453+418039741+417223497+416591916+416145338+416275620+416565253+416730468
3439+416275705+414720254+413198682+412885592+413185224+413072957+412888630
3426+413251208+413552949+413462368+413462663+413439417+413210242+413366217
3412+413973496+414229335+414136349+414071039+413733521+413238762+413175225
3399+413459035+413520505+413025578+412468336+413206065+415398538+417243452
3385+417553294+416943315+416583225+417323992+418873832+420144923+421147351
3372+422174544+422832535+423344001+424109364+425173304+426481565+427861802
3358+429459737+431264951+432770955+433519400+433739167+434289489+435563239
3345+437235977+438567062+439152065+439649060+440449525+441040730+441197549
3331+441329940+441805165+442160149+441926081+441822083+441901484+441260411
3318+440536773+440753544+441473765+441950340+442049443+442028981+441932240
3304+442014637+442693385+443660542+444734861+445618018+445677717+445690120
3291+446600701+447364335+447053101+446949568+448073544+449711728+451091417
3277+451694983+451752656+452268256+453241868+454195947+454970508+455280855
3264+455346713+455628920+456055711+456292902+456144394+456238604+456903387
3250+457464342+458073097+458806607+459032449+458987390+459059324+459158934
3237+459298244+459845656+460853779+461446502+461444857+462098376+463665892
3223+464673551+464604445+464330591+464273424+464358099+464368013+464239208
3210+464046992+463658467+463403472+463767949+464466864+465098824+465601936
3196+465911313+466213181+466628538+466903657+467250373+467741208+467841071
3183+468082944+469022467+469424662+468878896+469186121+471095712+472514130
3169+471897949+471049556+471558533+472334908+472360602+472103287+472059283
3156+472424814+473444456+474474686+474972904+475493737+476037562+476301163
3142+476493548+476815245+477084458+476843554+476500510+476950927+477745739
3129+477817208+477353206+476909708+476658426+476957931+477264523+476840053
3115+476347403+476509918+477127238+477704689+478028157+477874333+477379659
3102+477427755+478038156+478375885+478316946+478207421+478507179+479578671
3088+480550469+480245227+479343717+478993500+479209596+479601622+479818773
3075+480038117+480639068+481198672+481148635+480754245+480500938+480379685
3061+480352768+480472249+480734880+481211793+481562010+481114503+480100094
3047+479693638+480090897+480461449+480735344+480970805+480936927+481092269
3034+481537751+481492228+480873896+480640713+481257062+482051537+482527353
3020+482804075+482711131+482236539+482048668+482460271+482975914+483310647
3007+483657868+483885777+483770683+483662551+484066307+485082741+486413616
2993+487493757+488008007+488298104+488634694+488915508+489434273+490728907
2980+492385865+493208776+493126211+493060184+493096129+492828984+492406285
2966+492149603+491926504+491692435+491706358+491672522+491523845+491683533
2953+491829341+491841281+492330048+493244975+493879888+493892713+493688304
2939+493814704+494010887+493843773+493694126+493836179+493932920+493757369
2926+493278009+492852020+492780002+492320851+491344033+490955465+491056805
2912+490935763+490905850+491138273+491527853+492198965+493032760+493764541
2899+494164499+494282884+494524715+494771441+494686344+494483411+494243521
2885+494100455+494444808+495015466+495251180+495200468+495424833+496106112
2872+496749548+496910248+496533114+495939843+495580386+495608147+495746445
2858+495638271+495439304+495346866+495055420+494460798+494072948+494367769
2845+495011163+495399308+495764544+496361698+496643651+496622599+496954505
2831+497441121+497638822+497903563+498591129+499458001+500008619+500044817
2818+500054605+500394444+500865028+501627396+502636489+503224023+503432820
2804+503717770+503946227+504024742+504123846+504105451+503882689+503966394
2791+504763442+505800929+506415928+506615148+506608693+506489212+506658013
2777+507358615+508116090+508410574+508170261+507757561+507835022+508683415
2764+509787984+510440827+510684220+510900358+510989251+510983978+511188893
2750+511603112+512022477+512364552+512725147+513081481+513247456+513147171
2737+513076967+513392757+513963457+514616934+515327704+515764705+515781286
2723+515868872+516271530+516726420+517162071+517563843+517905833+518196562
2710+518416160+518728744+519111742+519381629+519631308+519932374+520136319
2696+520334231+520883836+521573174+521826776+521776866+521899385+522122695
2683+522408277+522999355+523391171+523256755+523438086+524093545+524517046
2669+524668929+524793009+524974804+525274478+525567443+525896523+526519834
2656+527259799+527635920+527574323+527226047+526920763+527263976+528065243
2642+528674505+529207487+529637569+529517371+529257524+529539689+529986985
2629+530204641+530585319+531185299+531663983+532110224+532812809+533494342
2615+533743261+533899659+534356067+534983006+535526832+535895063+536252242
2602+536676670+537107090+537656020+538300552+538714222+538980946+539450939
2588+539903972+540212632+540661489+541237800+541802552+542362114+542885140
2575+543133384+543061577+543080267+543243499+543270501+543300835+543566925
2561+544006627+544487378+544950242+545407916+545698308+545586505+545504699
2548+546038399+546777394+547105672+547269706+547706833+548325166+548816170
2534+549081417+549246378+549427372+549693631+550122026+550623451+551070619
2521+551532175+552045624+552388120+552423559+552556879+553076276+553619173
2507+554092205+554775509+555379202+555457000+555305918+555417679+555751948
2494+556147477+556402007+556220212+556075248+556556590+557196228+557505648
2480+557506028+557314191+557211121+557254914+557431014+557853375+558125499
2467+557865104+557436541+557249894+557252510+557197410+557120709+557288540
2453+557431942+557102019+556525074+556186671+556236244+556450610+556533470
2440+556309654+555870712+555579054+555559352+555584750+555282039+554706402
2426+554419892+554387870+554221643+553850711+553355952+552928823+552463850
2413+551846699+551329749+550991134+550700700+550361452+549962591+549503820
2399+549043277+548727192+548452748+547975076+547339867+546829878+546469409
2386+545843272+544624200+542903450+540698320+537790647+534349148+530826475
2372+527455264+524024397+519937605+515459800+511850765+509681497+508561613
2359+508256244+509193531+511605095+515200882+519296955+522048652+521573427
2345+518285583+515183922+513896249+513621890+513736308+514219127+514909857
2332+515383394+515909374+516906232+517981268+518575595+518820844+519592873
2318+521287128+523114491+524414820+525547108+526784068+527813159+528659359
2305+529561248+530285435+530637676+530928786+531289676+531491807+531678792
2291+532047868+532311511+532449008+532802093+533302505+533667236+533799416
2278+533728157+533604795+533511851+533499869+533797855+534316071+534620470
2264+534704174+534855129+535050889+535204080+535576194+536234986+536812183
2251+537194633+537590499+538189973+538877918+539384195+539691294+539821112
2237+539958945+540347597+541005419+541901993+542784095+543454406+543863308
2224+544035105+544310857+544807809+545354082+545928073+546574166+547237557
2210+547776742+548219438+548752126+549426697+550110888+550812334+551643893
2197+552480262+553313678+554190928+554861872+555375236+556044955+556746528
2183+557243607+557785197+558717421+559873714+560773790+561202184+561448403
2170+562069900+563163879+564174871+564958123+565894018+566781774+567288177
2156+567711804+568219515+568599138+568877421+569274469+569785049+570220025
2143+570489912+570702844+570932187+570950582+570585050+570017556+569425297
2129+568774732+567941822+566975931+566098427+565311167+564415268+563327997
2116+562240220+561357738+560376363+558940858+557359207+556009643+554895623
2102+553880159+552680621+551235919+549818893+548498102+547150309+545786737
2089+544527670+543253667+541839468+540610312+539550338+538157360+536562631
2075+535267787+534204395+532989416+531599982+530315263+529132769+527942091
2062+526911101+525956053+524833764+523644309+522474979+521307759+520235591
2048+519269995+518211245+516992341+515781919+514624528+513485659+512328184
2035+511266016+510546555+509898352+508903814+507738998+506675648+505706171
2021+504836978+504020439+503074292+502065916+501199930+500443595+499671143
2008+498849752+498028149+497221397+496435192+495664302+494836371+493928532
1994+492873536+491686571+490778142+490273806+489735761+488944113+488088843
1981+487452496+487051398+486629248+486120862+485576867+484831122+483721068
1967+482507017+481794686+481588716+481261197+480617255+479964960+479450077
1954+478956710+478399637+477758143+477035855+476309432+475406108+474485740
1940+474273441+474432496+474271163+473739024+472933496+472167668+471675989
1927+471182159+470232932+469098198+468465057+467880265+467290959+467547430
1913+467930766+467340194+466274229+465852754+466031259+466136184+465968101
1900+465653070+465158522+464437373+463902830+463591005+462956683+462510442
1886+462777208+463039080+462945629+462725652+462573263+462452600+462241399
1873+461821991+460471245+458300584+457907502+459514424+460726155+460828760
1859+460480695+460313582+460347334+460174018+459740519+459090544+458072000
1846+456499041+455175634+455776458+457082398+457544587+457568635+457542604
1832+456560047+454393099+453324813+453775821+454083300+454588016+455357345
1819+455608205+455304524+454763609+453863450+452696693+452324369+452824022
1805+452974597+451959006+450033256+448802709+448902488+448794904+447190851
1792+445521741+446524042+448419373+448896665+448093837+446936152+446111975
1778+446085987+445790490+443615568+440155547+439546834+441794871+443693113
1765+444401942+443778926+442859655+443002931+443239531+443364539+443050648
1751+440849104+438039227+437686183+438816994+439412839+438779066+437825662
1738+437845196+437040427+434217387+434263753+437076162+439459459+440796746
1724+440993772+440636088+439334071+435074007+430598016+432245187+436088121
1711+438333036+438396489+436292530+433975007+433317269+431344183+427409106
1697+426807186+429727811+433464596+435399923+435032999+433607071+430259190
1684+425889095+427714180+431866365+433981926+433247741+431238498+429846954
1670+428402590+428925236+431558127+432358677+430990296+430928910+431966650
1657+431345955+426763899+419601140+420377178+422358660+421608442+423783871
1643+428437776+430995527+430693407+427860663+426155776+431017803+436888291
1630+440298191+442392024+444691574+447217177+450920801+455051934+457385025
1616+459975263+465783183+471575451+475597354+478913297+482608948+486309787
1603+489775081+493362515+496986738+500108482+502862331+506013607+509583153
1589+513219231+516955172+520739716+524244458+527235160+529106781+529300178
1576+531107712+536995245+541837527+544433629+548131389+553314986+557954293
1562+560903903+560056522+558620891+566837717+576782086+584796866+590894166
1549+596043716+599741982+600626321+598860512+598201340+608019013+620846881
1535+628979075+635655344+643508495+649772318+653519482+656674935+659676438
1522+663462416+670583449+679072610+687762721+695825134+701351142+703449490
1508+702450142+706526470+719062089+728646327+734033531+736863364+740923281
1495+747870998+753292039+755031099+756808805+763743528+772550969+779613612
1481+784509053+788043538+790857339+792581464+793988491+799349454+808063908
1468+814983443+818990707+823276591+828984606+832575879+832622203+837034235
1454+848205396+857760523+864477969+870278971+877939020+886809154+894306520
1441+900250713+905102446+910266720+917819607+925189897+930458464+935872923
1427+942739721+948914186+954399102+959379851+962193399+966000683+972701000
1414+977634750+979588387+980905212+982746540+984982004+988485607+992085402
1400+991958496+989043777+987936888+988706344+990983238+993241654+992085740
1387+988742964+989411671+994126119+998132285+1000280164+1001988594+1003263398
1373+1004704093+1006510909+1007394531+1007441193+1006654523+1005189950
1362+1005178811+1005961768+1005602818+1004937993+1004961619+1005528311
1350+1005217457+1003559992+1002438927+1002514868+1001121258+997645585+997131545
1337+1000673878+1003627074+1004681648+1004726285+1004800370+1006197777
1325+1008031174+1008692540+1009773525+1012322374+1014326217+1015394713
1314+1017278653+1020933042+1025237658+1028654772+1031742806+1035384875
1302+1038657700+1040779168+1043023661+1046323824+1049637573+1052541745
1290+1055106964+1056894711+1058446026+1060145934+1061978571+1064480252
1279+1066773263+1067236760+1066230704+1064978344+1063528284+1062175766
1267+1062404940+1063535962+1062893835+1061072674+1060985341+1062103790
1256+1062248670+1061850905+1061855546+1061988697+1062038396+1062833672
1244+1064932273+1066063211+1064623951+1062119063+1059444319+1057484776
1233+1057509077+1058773419+1059995992+1060519820+1059940133+1059699230
1221+1061221941+1063187560+1064693395+1065640216+1065562925+1065771595
1209+1067070870+1068230074+1068741414+1069539306+1071004554+1071863959
1198+1071426873+1070505366+1069993436+1069643345+1069106355+1069874545
1186+1071385443+1070389681+1067679499+1066768369+1067999972+1068985776
1175+1068350484+1067493273+1067344175+1066772757+1066017393+1065828973
1163+1065140184+1063646077+1062614876+1062775872+1063438082+1063016101
1151+1061666620+1061642657+1062160999+1059885539+1056267518+1055062833
1140+1054872811+1052166087+1047436873+1043727301+1041536979+1039305987
1128+1037233122+1035163042+1031720277+1027729130+1024682863+1022338550
1117+1019359028+1015086138+1010429153+1007797190+1008528169+1008288193
1105+1003784019+999217236+997188164+995592971+992872831+989428210+986990825
1092+986167029+984824890+981884182+978974864+976453438+973968717+972755594
1078+972757113+971397929+967252621+962218459+958658744+956852434+955277408
1065+952496262+948949625+945822018+943743415+942487089+940820258+938449618
1051+936505010+934597275+931533036+928928581+928242407+927199899+924383820
1038+921414339+919442814+918972146+920320276+922028369+921391726+918166069
1024+915095248+912974962+910857713+909289775+908198918+907020137+906621191
1011+907046801+906998789+906083357+905019248+904631608+904918752+904553051
997+903125689+902683034+904259158+906101582+906940061+907237751+907144765
984+905956619+903911092+902511913+901542646+899462862+897210438+896232564
970+895364806+893326621+890563954+888472948+888014599+888071555+887200675
957+885849169+884984618+884939897+885617042+886784937+887940007+888770385
943+889805468+891497360+894116328+897584323+901128259+904597772+908156475
930+911358927+914313895+917443275+920455705+923496149+926753954+929609860
916+931871482+933713232+935398795+936674528+936929354+937041832+937205950
903+935853432+933412757+931385710+929428107+927562140+926263288+924643287
889+922695472+921469777+920567086+919243510+918396762+918580119+918921602
876+919045893+919605835+921583351+923964792+925134628+926324632+928894576
862+932975924+937392428+940401145+942358579+944521224+947910577+952229032
849+956210897+959330742+961459213+963526003+966445447+970720278+975822786
835+978887025+978889388+978167184+978198067+978564696+980328057+985201307
822+990998511+994430222+995762658+996485283+996732177+997179895+999163824
808+1002296157+1006201406+1010919482+1014889365+1016869835+1017055554
797+1017827710+1019865389+1018817987+1016989485+1021200693+1028962335
785+1036265375+1043284646+1047778357+1048106846+1046269990+1044315510
773+1043271061+1043345990+1044401408+1047017592+1050447953+1053033677
762+1054139300+1053102868+1051520500+1050965115+1050847996+1052035046
750+1054134491+1054419946+1051246773+1045825986+1043132172+1044914688
739+1046200546+1045901590+1046476804+1046299186+1045177699+1044686526
727+1044542153+1043212502+1039722484+1037156084+1036864131+1035989876
716+1036053413+1039535246+1041999294+1039671856+1034235712+1029191341
704+1029370731+1031926837+1029323901+1025097335+1025774480+1029343139
692+1029590033+1026631522+1027337862+1031705848+1032328652+1026372477
681+1019250684+1019060746+1027045572+1036167579+1039099764+1034294187
669+1027341322+1025459914+1025824517+1026763407+1033079460+1038538894
658+1031962192+1026086093+1034494250+1048004747+1057311545+1055223998
646+1039873692+1025357814+1019922345+1019983773+1024082841+1019596218+981763267
633+947259843+962567200+991686963+992500971+992774613+1005597249+1013543260
619+1013776485+1012667992+1019667772+1038749336+1051493752+1057380736
608+1070764326+1073741823+1056952679+1036799243+1029822836
##END=
