##TITLE=Sample description
##JCAMP-DX=4.24
##DATA TYPE=INFRARED SPECTRUM
##DATE=24/8/2023
##SAMPLING PROCEDURE=Instrument type and / or accessory
##ORIGIN=Default
##XUNITS=1/CM
##YUNITS=ABSORBANCE
##RESOLUTION=4
##FIRSTX=4397.6552
##LASTX=599.8556
##DELTAX=-1.9287962
##MAXY=1.4560863
##MINY=0.4129751
##XFACTOR=1
##YFACTOR=1.356086e-009
##NPOINTS=1970
##FIRSTY=0.59813714
##XYDATA=(X++(Y..Y))
4398+441076105+441003493+440608792+440316853+439936612+439639486+439668759
4384+440060165+440390299+440167499+439705153+439109276+438440744+438777120
4371+439838068+439739393+438565132+437969959+438732551+440445065+441738439
4357+441412700+439908438+438956010+439228742+439599005+439320209+438638798
4344+437860779+437382389+437279934+437088649+436841103+436933273+437171281
4330+437264726+437213037+437281472+437598992+437722062+437785486+438100149
4317+437992419+437370566+436859519+436318452+435819537+436018778+436417040
4303+436138551+435603286+435591287+436110421+436397129+436124574+436044710
4290+436420996+436640675+436691002+437059332+437485548+437411662+436869673
4276+436076093+435316666+435233813+435980143+436495761+436289311+436178241
4263+436405480+436927779+437797442+438292577+438019494+437248287+436236084
4249+435835668+436699792+437864075+438004550+437185522+436515979+436662300
4236+437230047+437548226+437129130+435957946+434560491+433510663+433495587
4222+434396588+435217770+435963616+436684541+436465696+435491161+435057033
4209+435384793+435527422+435170477+434925304+435027408+435495952+436271378
4195+436625423+436420996+436184966+435771232+435395342+435593265+435799802
4182+435333236+434499747+433943516+433890684+434098320+434012875+433567890
4168+433506839+433730298+433588636+433638040+434276595+434651035+434523042
4155+434523086+434255718+433481038+433337838+434002106+434628882+434760743
4141+434367755+434077882+433930286+433265271+432551247+432697700+433562000
4128+434379139+434889262+435070131+434526559+433521080+432915797+433026120
4114+433729859+434458123+434348152+433419415+432751895+432852812+433154728
4101+433213230+432957069+432614057+432417717+432191356+431894187+431770107
4087+431867112+431642905+430931563+430661601+431220513+431972600+432104372
4074+431385118+430710433+430698082+430950727+431095158+431219194+431421116
4060+431254401+430611274+430123479+430119743+430489128+430795000+430948529
4047+431154978+431063159+430987560+431410084+431475003+430626350+429573446
4033+429179842+429599774+430019089+429572918+429010754+429466419+430288656
4020+430486666+430106249+429965422+430622394+431259543+430859435+429791586
4006+429511867+430297227+430787659+430688017+430720850+430632943+430040055
3993+429782752+430529784+431322617+431051951+430075833+429410554+429061520
3979+428442611+427872447+427934466+428331981+428348068+427916577+427644065
3966+427828142+428036086+428215328+428787734+429226741+429088331+428927550
3952+429022401+428788349+428116697+428133443+428189659+427036321+426462465
3939+427544335+428903859+429191666+427691139+426073609+426918790+428397867
3925+427744455+426736735+426973072+426573623+425634338+425996383+427138337
3912+427955651+428561593+428675653+426981599+424018170+422449428+422396552
3898+423751373+426365108+427647713+425701455+424407290+426434379+427061419
3885+425188123+424510932+423915100+424480297+426776864+427105020+425404857
3871+423156551+421874122+423565758+424516998+423567120+424425795+426681177
3858+428443183+427516161+419967333+416044885+421144275+426122441+427879392
3844+427393794+425948474+423329288+420559167+421106607+423503827+424894734
3831+425835249+426524483+426585359+427410892+427018212+423054008+422532368
3817+424427069+424598839+426724252+430120358+430969143+427981848+426153297
3804+426656959+424357491+423187890+425204474+426496177+428186978+430606747
3790+432087275+432436001+431945788+431416545+431198492+429713261+428372989
3777+429873120+431970974+432162347+430032012+428338749+428987107+430077416
3763+431404106+431883331+429983575+428880739+429996453+429703724+425061845
3750+422414925+426160373+428359276+425789186+425948693+428927550+429511032
3736+425625636+422332908+424479110+429252673+432626891+432687679+431424237
3723+431578953+432888018+434795993+437022103+438597878+437133613+434020435
3709+436606963+443642678+451170100+458913157+469039151+482032227+495478024
3696+507226075+515532835+519592814+519685468+519655228+522062778+523689407
3682+522051965+517495049+510977325+499413219+488269308+484944450+479133981
3669+471937529+471218055+471289435+468622824+464977941+461360265+456166947
3655+451736879+450463944+446316058+435640646+431475135+435530060+438770395
3642+439245312+438705300+438049471+436361483+433943472+432158567+427886908
3628+420948418+420058141+422029189+422042375+418775580+413804402+411346614
3615+410114291+408121574+406020424+402737981+399259550+397842666+396344030
3601+393434796+390917846+389045166+386505316+384353136+383778269+382082018
3588+377015329+373357348+373365787+373695306+372934780+371575608+369961198
3574+368152646+366822153+365789709+362038371+355465595+352760854+353693898
3561+354325443+354003045+353538259+352789314+351499479+350422158+349653654
3547+348129964+346114941+345071618+344985008+344978854+344217866+342674991
3534+341763023+341648194+340861977+339346902+338195102+337116529+335764301
3520+334863256+334525957+334442248+334212789+333233792+331546947+330062002
3507+329481509+328947870+327943050+327400643+326949087+325728193+324482047
3493+324014514+323702313+322987212+322198863+321565033+321003747+320439341
3480+320109075+319980643+319575744+318864072+318036407+317217356+316505684
3466+315917697+315428935+314950502+314484947+313849226+312822056+311608963
3453+310765848+310623000+310321084+309282090+308577692+308447305+308229581
3439+307978102+307838659+307768817+307588784+307143997+306540363+305749772
3426+304883999+304534591+304844133+305214485+305503809+305959738+306224645
3412+305853876+305270218+305071175+305090734+305098580+305098668+304972434
3399+304733898+304604082+304791104+305367597+306139397+306432633+306020240
3385+305969957+307025433+308303533+308948044+309443487+310186234+310764288
3372+311160814+311732494+312533919+313527795+314610280+315685359+316896145
3358+318020210+318798647+319857881+321514508+322990179+323616625+323856523
3345+324682035+326128872+327693395+329137177+330108790+330585377+331061349
3331+331581318+331830622+331916441+332038588+332083970+331850555+331196022
3318+330674383+331146047+332198886+332726305+332482100+332034412+331983492
3304+332397468+333074263+333946145+334729989+334895298+334543978+334650565
3291+335699470+336976999+337830420+338298437+338730961+339515507+340476483
3277+341250064+342100695+343151292+344048008+344796645+345548249+346148521
3264+346563134+347009261+347755283+348713160+349272929+349281786+349353012
3250+349854411+350507559+350975971+351247735+351392650+351526686+351642195
3237+351701445+352112058+352804236+352969370+352510737+352038897+351819108
3223+351887456+352308222+352728527+352794808+352745405+352931745+353611200
3210+354487367+354745308+354286171+353626781+353422815+354213208+355577457
3196+356368816+356006860+355311626+355452343+356242890+356951925+357731351
3183+358644550+359074239+359004682+359001474+359341058+360196304+361359334
3169+362029800+361997692+362058545+362617435+363158744+363291088+363368775
3156+363876635+364503279+364735551+364903563+365362635+365621631+365475222
3142+365569810+365936315+365988598+365752436+365494759+365263190+365152494
3129+365277629+365711801+366412639+366936850+366938498+366872172+367121190
3115+367423744+367722649+368082672+368244069+368180226+368143152+368324152
3102+368749489+369279919+369763583+369763100+369186299+368876735+369208407
3088+369612515+369762308+369929859+370319374+371022585+371960640+372421316
3075+372166913+371951497+372022878+372018922+372036503+372288093+372568824
3061+372716375+372828149+372997941+373004754+372686355+372353100+372141948
3047+371992682+372038130+372248139+372440611+372663983+372919440+372873509
3034+372489883+372117290+371988990+372132234+372309630+372411866+372532430
3020+372738308+373137933+373522701+373772972+374292458+375132628+375784237
3007+376179027+376698381+376924390+376161578+375091399+375133814+376386795
2993+377696036+378954775+380380229+380817697+380050182+379925443+381805595
2980+384390672+385361868+384800318+384292832+384385134+384807922+385390437
2966+385908692+385970183+385603172+385000702+384219957+383747809+384080976
2953+384932662+385832741+386706887+387263425+387187166+386795057+386578411
2939+386755104+387120928+387182859+386921907+386879316+387093150+386951883
2926+386422684+386123537+386067276+385807248+385427095+385188823+385143331
2912+385312200+385731252+386388356+386944060+387052097+386811848+386743280
2899+387347201+388252553+388685231+388523614+388132648+387966373+388279497
2885+388731558+388872297+388879857+388888516+388694901+388502429+388525197
2872+388612180+388796301+389064198+389022881+388635827+388404588+388701318
2858+389391079+389766178+389376135+388688088+388249301+388009755+387928133
2845+388352460+389091493+389600122+390002604+390466005+390881013+391386522
2831+392086085+392806877+393366932+393686253+393953227+394577585+395406899
2818+395857817+396071870+396593422+397254438+397630855+397862489+398142033
2804+398459641+398874561+399254803+399483624+399674030+399783431+399843691
2791+400206834+400954262+401668638+402133094+402543838+402896565+403159011
2777+403581711+404062430+404321711+404470845+404605343+404803748+405291148
2764+406053345+406883362+407613648+408148737+408487530+408677013+408957436
2750+409496569+409966300+410238899+410633073+411141263+411488012+411761314
2737+412346466+413160001+413865673+414512887+414900161+414846714+415011979
2723+415811008+416746425+417433066+417920510+418275082+418644906+419113758
2710+419543974+419838286+420002628+420107984+420243625+420482951+420976680
2696+421677342+422103339+422067736+422028662+422267109+422639087+422961705
2683+423212548+423503168+423829786+424152580+424486318+424695097+424686526
2669+424630090+424636991+424643320+424733732+425076657+425547486+425878544
2656+426007986+426026755+426198569+426622236+426890352+426942568+427062649
2642+427118206+427072890+427141634+427470098+428034548+428520673+428842456
2629+429108374+429267486+429532701+430030034+430463107+430720498+430905982
2615+431128035+431494211+431879155+432052156+432131668+432361676+432670844
2602+432918830+432980760+432766223+432543907+432616782+432870701+433018824
2588+432970475+432812902+432772509+433052448+433437656+433679927+433891783
2575+434153350+434332548+434256816+433922682+433431283+432927972+432665922
2561+432748950+433038251+433348475+433495807+433359067+433166815+433248612
2548+433495455+433613294+433438623+433080227+432860679+432856767+433018033
2534+433431898+433996129+434298089+434166228+433977448+434039071+434122670
2521+434050719+434135461+434475133+434772566+434944512+434971016+434834584
2507+434829793+435148412+435509709+435615945+435475294+435202343+434953434
2494+434889482+434952731+434926711+434831068+434775335+434638772+434386479
2480+434120165+433936660+433875344+433809766+433717200+433655050+433533519
2467+433349090+433303115+433445744+433442359+433056536+432515865+432195268
2453+432230255+432427298+432477098+432291526+432146963+432120591+431885572
2440+431540098+431403359+431363625+431343758+431376108+431352505+431261961
2426+431199635+431187196+431124870+430980175+430905982+430940441+430935958
2413+430802516+430593825+430434713+430354278+430348081+430485084+430694038
2399+430830030+430844711+430698873+430478095+430296699+430130643+430001069
2386+429718184+428871377+427450187+425650074+423420535+420828381+418056018
2372+414917874+411350130+407830778+404785464+402474963+400888728+399951596
2359+400123235+401641123+404243562+407940090+412326028+415475731+415510543
2345+412813779+410137235+409086440+409237771+410023791+410679093+410926507
2332+411366788+412326951+413463851+414506778+415577088+416914547+418518013
2318+420209033+421759535+422959508+423918660+425020221+426338033+427454978
2305+428262007+429051367+429706581+430115172+430587407+431135243+431513287
2291+431779996+432108724+432538457+433008714+433381176+433578175+433655489
2278+433690257+433813370+434116913+434430037+434603433+434736436+434851199
2264+434896778+435044022+435383431+435634405+435720202+436030645+436650565
2251+437152821+437289208+437220685+437238310+437501459+437928950+438340311
2237+438639897+438814568+438901816+439073718+439392820+439640322+439846947
2224+440262175+440772650+441175703+441578317+442038509+442386576+442617288
2210+442912216+443339267+443739024+443960945+444196183+444608730+445070154
2197+445481030+445861887+446260413+446640039+446978392+447328657+447728150
2183+448289172+448977790+449466465+449658761+449859848+450281933+450911566
2170+451655697+452373369+453000277+453496555+453809460+454091949+454570733
2156+455156061+455631857+456006033+456304521+456508377+456725243+457058718
2143+457391797+457549150+457614861+457739161+457890669+457919150+457725272
2129+457380105+456864795+456170111+455590937+455226519+454804434+454153747
2116+453295908+452348272+451422656+450559718+449750448+448883158+447928006
2102+446940460+445889490+444862254+443949121+442992343+441854828+440661492
2089+439665331+438895047+438121598+437243189+436304036+435282558+434197655
2075+433197758+432440484+431828960+431061665+430118204+429211621+428485774
2062+427941586+427352742+426597270+425875467+425330576+424838737+424264661
2048+423660917+423029086+422286405+421521835+420931057+420558463+420182002
2035+419645506+419103517+418661169+418184230+417607210+417031068+416515890
2021+416070202+415612734+415061382+414635605+414409685+414038630+413470795
2008+413044491+412807494+412469668+411945963+411410126+410962944+410598614
1994+410140180+409478944+408999983+408869046+408798457+408660531+408371713
1981+407911081+407438142+407138643+406957775+406619113+406124330+405513684
1967+404851042+404624770+404739357+404526842+404010784+403558548+403166615
1954+402787516+402522565+402302314+401888888+401278243+400515695+399848658
1940+399789628+399997748+399968255+399767695+399481910+399177488+398942294
1927+398705648+398091619+397171058+396611750+396161843+395801029+396244256
1913+396742204+396337525+395680685+395748725+396226982+396464902+396449562
1900+396350227+396048179+395491553+395142343+395037822+394713401+394683117
1886+395234997+395636951+395804765+396037103+396313658+396451408+396318361
1873+395813160+394405639+392424922+392313939+394204596+395807095+396370050
1859+396456902+396482747+396535096+396619970+396638958+396395280+395752241
1846+394498733+393401919+394191762+395732682+396463364+396700273+396891118
1832+396174194+394198838+393216567+393881758+394670503+395660202+396641859
1819+396946368+396842066+396701811+396173623+395263742+395083182+395816809
1805+396445431+396180611+395022218+394345775+394884732+395280313+394228155
1792+392951791+394185696+396416993+397425988+397314830+396875823+396599180
1778+396906898+397000475+395470675+392858786+392962692+395683058+398113420
1765+399459494+399487536+399085186+399538126+400231316+401047268+401341712
1751+399473779+396795564+396871252+398715626+399958805+400007505+399794858
1738+400354737+400087852+397778319+397901740+400972020+404006873+405907200
1724+406358426+406214742+405531222+402458217+399027827+400810579+404573169
1711+406973730+407406671+405879289+404350720+404530490+403534593+400567252
1697+400376319+403392623+407333093+409763586+410028933+409100329+406321944
1684+402616142+404635539+408877705+411238092+411126846+410287775+409983486
1670+409194741+410338849+413806336+415584648+415364969+416337263+418201856
1657+418660026+416019523+411245696+412655855+415232757+416007480+419553468
1643+425269305+429419916+431189877+430583408+431154846+437974750+445441472
1630+450382366+453951605+457609279+461641655+466984723+472506330+476302237
1616+480816914+488361742+495505539+500838805+505617027+511013059+516375730
1603+521333854+526415355+531501559+536168711+540600888+545007660+549331712
1589+553785470+558408009+562937367+567316448+571431545+574635179+576705958
1576+580536456+587521580+593641086+598867238+605882470+613917643+621037440
1562+626024002+627845389+632261083+645757822+659480217+671559106+682260186
1549+692799210+702440045+710115151+715600584+722966477+741760880+759886224
1535+772368912+785657356+801303110+814691503+825617713+835461262+843763803
1522+852710789+865214575+878460120+892301762+906502854+917538244+923609005
1508+925604667+933456685+951397864+966269686+975834394+980467174+984612335
1495+992375040+999286455+1001541706+1001544343+1006665270+1015272760+1022132134
1481+1025327989+1026356323+1026089614+1022839784+1017368197+1015737963
1470+1020497418+1025077102+1024840457+1023045223+1024542980+1024840897
1458+1016205276+1007367383+1013200004+1020998751+1023087594+1020322923
1447+1018841428+1021021167+1023655033+1025094772+1024256052+1020131725
1435+1018682229+1021734619+1023273693+1023583037+1024928364+1024777692
1423+1024023890+1025225225+1025032534+1023911369+1026827592+1030029776
1412+1030225984+1028568939+1026847019+1025048357+1022735703+1019975515
1400+1015663594+1011570035+1010758478+1011867863+1013943345+1015036906
1389+1011882983+1006153037+1003917741+1005131911+1006908684+1008669899
1377+1009707903+1008445473+1006072338+1005969839+1007224622+1007866606
1366+1007501441+1005429739+1003982440+1005686251+1007508649+1006957033
1354+1004866608+1002953578+1002076092+1002361965+1002147560+1000286308
1342+998418990+997093794+995795585+995448792+996317224+998264010+1000655956
1329+1002570304+1004488520+1005595268+1004865992+1004405712+1006072866
1317+1009414206+1012624390+1014897134+1017683431+1021168938+1024016418
1306+1026276855+1029062361+1033028895+1037072787+1040190756+1042892574
1294+1044909685+1046799156+1050136980+1053812894+1056192094+1057787428
1283+1058682320+1058432401+1058229336+1058986829+1059672239+1060108961
1271+1061362952+1063013228+1063667695+1062581429+1059829417+1056570269
1260+1054688710+1055220283+1056815969+1057782857+1058515736+1059550224
1248+1060476587+1061130175+1061847495+1062702653+1063357559+1063840695
1236+1064037958+1063607742+1062617647+1061950610+1062706433+1064459736
1225+1066313516+1067997372+1068931559+1068546614+1067619636+1067451734
1213+1067637657+1068101366+1069796738+1071509340+1072002146+1072372410
1202+1073103355+1073580778+1073507727+1072610813+1071632234+1071859561
1190+1072955760+1073741823+1073685826+1073100103+1072662502+1072280811
1178+1071215731+1070058525+1070185199+1070861027+1069871723+1067274074
1167+1065872839+1066633409+1067877819+1068410974+1067350202+1065069282
1155+1062959429+1061002534+1058859364+1056394807+1054256736+1053872759
1144+1054400727+1053570623+1051461649+1049450515+1047321235+1044743541
1132+1042500949+1040503353+1038444574+1036392652+1033049817+1027964668
1121+1022747834+1018188104+1014617239+1012119804+1009596789+1006070317
1109+1001366683+998408441+1000633540+1005527931+1009124114+1010460386
1097+1009810754+1008813978+1008222189+1008313964+1009803722+1011640009
1086+1012946481+1014538122+1016906334+1019341970+1021325588+1021979352
1074+1020207061+1018244101+1019415636+1022628544+1023693536+1022257226
1063+1022434973+1025888131+1030018084+1032193780+1033312746+1034767605
1051+1035417061+1034990097+1034234538+1034295721+1036199696+1038357195
1040+1040145045+1041873206+1041997155+1041049255+1039788055+1037186890
1028+1034802944+1034675654+1036486097+1038388050+1037467137+1034581770
1016+1034049845+1035679815+1036661383+1036890556+1036685997+1036240836
1005+1035653355+1034255460+1033110648+1033021071+1032404932+1031110064
993+1030594490+1031314799+1032508222+1032845961+1032210394+1031650515
982+1031167818+1029807987+1028076749+1027813116+1028687174+1028887250
970+1028220213+1027132365+1025815872+1024070305+1022067962+1021155137
959+1021362685+1021555377+1021172630+1020734942+1022203866+1023995320
947+1021892588+1018165951+1017090938+1017496365+1017223766+1016264262
935+1015227928+1014683433+1015276804+1016945716+1018320228+1019012671
924+1019666522+1019502839+1018373500+1018713787+1021754662+1024713695
912+1024948670+1023389730+1021490414+1019930858+1019553474+1020200996
901+1020142977+1018624034+1018339743+1019838204+1019527981+1018438111
889+1019548727+1020570644+1019961713+1019861236+1020724833+1020885263
878+1019949670+1018664735+1017683694+1017342176+1017622247+1018567510
866+1020122231+1022917142+1027420260+1031411233+1032622501+1032849829
854+1034798460+1037330530+1038506373+1038605444+1038821870+1040515836
843+1043449376+1045937668+1046519085+1046190225+1047775450+1049557410
831+1048552898+1047639018+1048939073+1049328676+1047974119+1048531712
820+1052192507+1057257965+1062732278+1066451530+1065811304+1062642261
808+1061444442+1063019118+1064859624+1065854290+1066143328+1065276303
797+1062660106+1060376637+1062391375+1066556051+1066616355+1062930332
785+1059241056+1057339982+1058842047+1061604608+1061575511+1060478609
773+1060188868+1058910878+1058179668+1059777288+1060158980+1057851248
762+1056462319+1056694394+1057160036+1058505100+1058910790+1056969806
750+1055525935+1055439787+1055585448+1055410162+1054935201+1055334474
739+1056586180+1057493291+1057705323+1057807295+1057735211+1055940328
727+1053060763+1051432727+1050162033+1048318099+1048350712+1049683381
716+1048866022+1046754060+1046526293+1049398035+1052317598+1050128014
704+1044742311+1043180118+1046554071+1049766101+1049932860+1049222133
692+1049353993+1049008432+1048384381+1049873347+1052121742+1052464578
681+1052142312+1051805189+1049654723+1048345965+1052415614+1056600245
669+1052586241+1046281912+1049586419+1055752823+1057713586+1059305140
658+1065626699+1070526014+1066423575+1056625563+1051085583+1055816819
646+1063805621+1060768526+1049091679+1043303627+1047650710+1054101492
635+1051255947+1046553808+1057212165+1066004787+1056676549+1035011019
623+1009479433+990901545+994069797+1009291400+1013305756+1015095892+1020703823
609+1022567976+1027286466+1034640404+1041170390+1050721473+1055111718
##END=
