##TITLE=Sample description
##JCAMP-DX=4.24
##DATA TYPE=INFRARED SPECTRUM
##DATE=24/8/2023
##SAMPLING PROCEDURE=Instrument type and / or accessory
##ORIGIN=Default
##XUNITS=1/CM
##YUNITS=ABSORBANCE
##RESOLUTION=4
##FIRSTX=4397.6552
##LASTX=599.8556
##DELTAX=-1.9287962
##MAXY=1.4336913
##MINY=0.38857228
##XFACTOR=1
##YFACTOR=1.335229e-009
##NPOINTS=1970
##FIRSTY=0.55992782
##XYDATA=(X++(Y..Y))
4398+419349643+418686248+418309932+418657455+419230811+419403345+419206483
4384+419236257+419649222+419938222+420257130+420744777+420551263+419632036
4371+418588263+417507394+416725123+416790163+417574310+418020933+417779698
4357+418080661+419312681+420095354+419606011+418943330+418996139+418612458
4344+417396910+417043406+417852908+418334663+418080304+418247436+419203536
4330+419370981+418413408+417716354+417394767+417190405+417361377+417480833
4317+417139962+417209958+417817017+417422489+416466925+416546830+417205985
4303+417553329+417488422+417431015+417525786+417017381+416071459+415980125
4290+416904263+417791037+417715997+416626959+415790227+416144222+416447149
4276+415826028+415721972+416582408+416935511+416258724+415319676+415160847
4263+415826519+416009632+415526315+415663047+416460050+416533706+415727374
4249+415369048+415885980+416426079+416574016+416890514+417479494+417578238
4236+416856989+415678136+414680164+414487631+415116743+415927852+416149266
4222+415515021+414839082+414978403+415275349+414953985+414731410+414994340
4209+414960190+414656861+414611239+414280278+413468946+413186866+413862582
4195+414835913+415245619+414891891+414701948+414922603+414698823+414485131
4182+415049292+415717419+415630103+414603338+413640899+414105379+415551849
4168+416492414+416326978+415504040+415233119+415800985+415899104+415325792
4155+414969833+414898900+414890284+414809709+414789398+414954342+414573786
4141+413489927+413046160+413427208+413094997+412169073+412130103+412693415
4128+412934114+413151645+413444171+413576082+413780533+413688887+412950586
4114+412337545+412460930+412875011+412940899+412785061+412611679+412306386
4101+412232507+412803810+413547021+413740759+413509524+413321143+413211239
4087+412818586+412063723+411751957+412350312+413034733+413054865+412721940
4074+412295896+411595226+410874468+410490430+410379768+410412801+410779430
4060+411543711+412297904+412809925+412905410+412381560+411429835+410469896
4047+409771324+409401392+409803063+411097133+412187688+412270942+411813426
4033+411437736+411258863+411015174+410409275+409742889+409290998+408856293
4020+409010837+410186521+411091329+410782063+410174557+410194601+410728942
4006+411137130+411012540+410773894+410670151+410394588+410125007+410199243
3993+410337047+410195806+410244910+410633368+410334681+409297292+408918745
3979+409694097+410577032+410765502+410669794+410508643+409954036+409262160
3966+408981285+408901915+408545242+408463193+409190111+409899307+409752799
3952+409279257+409113821+409209485+409674098+409783065+409283900+409685615
3939+410577969+410409096+409240510+408085851+408026569+408855713+409039496
3925+408215620+408158838+408954769+408584034+407111895+406575590+407753640
3912+409604147+410766841+410373161+408047282+405198981+404097087+404340643
3898+405695111+408025319+409301711+407820288+406500595+407855375+408078753
3885+406242843+405639578+405025823+405515925+407936218+408561223+407195104
3871+405131887+403381285+404604644+406006609+406196641+407696099+409572765
3858+410715014+409914440+403224375+399066470+403397891+408596310+410969462
3844+409683249+406387611+403104874+401078663+402363582+404759858+405790462
3831+406679423+407736989+407836046+407777790+406344980+402521027+402884888
3817+405221078+405772695+408279009+411578486+412124790+409129222+407252601
3804+407354157+404681113+403592834+406335025+408830714+411070170+412926927
3790+413640096+413640721+412809702+411823961+411732315+411157486+410570470
3777+412075106+414038195+414243629+412344419+410880941+411308905+412261969
3763+413879723+414441161+411935472+410199556+411264801+411084633+406217667
3750+402730612+405601545+407605837+405910231+407043105+410613771+411952391
3736+408440784+404317520+405799345+410541677+414201801+414698778+413859546
3723+414411565+415959412+417963392+420139593+421642265+420744197+419111310
3709+423004723+431332630+441106829+452081443+465712897+481673354+497417575
3696+511151745+521165170+525878352+525149292+524151453+526015620+526949936
3682+524682580+519717227+512355910+498639819+484984125+480779036+475563475
3669+468623604+466885188+466149208+463306934+459332857+455198655+449744896
3655+445179963+443644168+439488138+428834843+422985974+425132043+427856557
3642+428589457+427765625+426474904+425114142+423620576+422090629+417579220
3628+410900226+410695373+413287083+413581841+409800876+404045126+401647199
3615+400973447+399422787+397608036+394482923+391011179+390240380+389910624
3601+387200172+384005822+381700388+378473183+375478061+374953987+374040295
3588+369307449+365071781+364725978+365043078+363830700+361791901+360065515
3574+358638887+357659352+356466191+352442541+346804440+345287840+346217669
3561+346163186+345431581+345100687+344319754+342109761+339953604+338898649
3547+337518379+335674613+334657133+334134800+333469686+332665407+331864654
3534+331135237+330148402+328742264+327479219+326844483+326113592+324832267
3520+323974532+323594734+322998322+322306669+321562833+320391791+319124506
3507+318729821+318592263+317364662+315925535+315321779+314907296+314266288
3493+313410472+312055023+310459678+309459429+309389032+309523644+308902589
3480+307927183+307383289+307039762+306402057+305406473+304435240+303702318
3466+303160700+302601830+301811657+301169399+300710834+299785514+298509389
3453+297631834+297329889+296963930+296219312+295753694+295648322+295543261
3439+295533641+295400748+294964124+294505292+294038781+293285481+292517115
3426+292215995+291981658+291421872+291015447+291303397+292212223+293061321
3412+293137187+292457699+291790844+291541887+291529253+291845148+292407367
3399+292779531+292847786+292537962+291950209+291815775+292495487+293511806
3385+294313875+294732710+295109293+295855808+296859338+297553714+297779079
3372+298127717+298907556+299843077+300804578+301814291+302742200+303696671
3358+304979781+306307330+307204081+307895131+309026912+310490569+311481800
3345+312131759+313078641+314316798+315638433+316752893+317331272+317459299
3331+317723702+318274493+318531485+318530659+318756828+319021052+318987662
3318+318820195+318832180+319173922+319523297+319393841+319179346+319309271
3304+319488099+319791182+320503012+321351016+321864889+322185784+322888976
3291+323721289+324107604+324668796+325839792+326608583+326684248+327090449
3277+328203749+329525495+330662119+331771825+332933292+333762257+334061791
3264+333980725+334017397+334609413+335255956+335323831+335207879+335604372
3250+336631181+337743008+338143540+337823516+337531370+337651898+337714059
3237+337147823+336607946+336796171+337023946+336933662+337235674+338224629
3223+339145887+339341567+339268424+339349892+339392367+339367146+339462296
3210+339834616+340251844+340522027+340867921+341208189+341417194+341553971
3196+341442504+341321642+341677065+342186229+342511744+342800030+342891452
3183+342943570+343531032+344401981+344939960+345316387+345898605+346536176
3169+347119264+347740831+348282672+348552878+348492480+348205534+348180446
3156+348848640+349699881+349864379+349311088+348991667+349531989+350139362
3142+350204157+350053943+349776594+349552502+349627720+349930513+350495745
3129+351240564+351944581+352454259+352700091+352729398+352534499+352291390
3115+352393236+352963267+353658736+353993938+354016749+354123505+354360745
3102+354618161+354910263+355185536+355408200+355698494+355996913+356205828
3088+356484850+356802397+356963168+357059167+357468337+358295360+358854900
3075+358623152+358242015+358352700+358437315+358136553+358100998+358474367
3061+358582708+358314221+358189608+358413478+358673193+358686764+358386158
3047+357795638+357357072+357621921+358223445+358496106+358682947+359077364
3034+359226417+358964938+358709285+358605720+358560031+358491174+358492848
3020+358906549+359704489+360228652+359881174+359129704+359041384+359903651
3007+361101342+361657468+361554014+361834130+362646668+363325352+363608593
2993+363874402+364950561+366788837+368059806+368411971+368999634+370078405
2980+370945738+371516349+372008148+372328284+372255677+371849319+371270717
2966+370570851+370084610+369972340+370092890+370408183+370663501+370705642
2953+370655980+370590716+370768071+371553601+372729843+373409688+373360562
2939+373269742+373396876+373552246+373727971+373964809+374093997+373830286
2926+373172739+372518495+372209363+372210613+372396003+372456267+372244472
2912+372300451+372635876+372712657+372700202+372951124+373279429+373379445
2899+373369267+373432767+373500129+373627799+373803726+373867070+373907023
2885+374014382+374074557+374117924+374337977+374750518+375129735+375153171
2872+374698423+374110581+373781249+373725271+373974117+374540264+374956219
2858+374878590+374520086+374071142+373684693+373458569+373095289+372672213
2845+372803298+373446851+374080739+374615884+375220131+375918613+376627809
2831+377239601+377734524+378174675+378529563+378906682+379494100+380114150
2818+380601038+381026592+381392327+381759625+382225578+382692780+382979503
2804+383028339+383115432+383560761+384134117+384486461+384689260+384903532
2791+385215700+385671519+386197245+386531732+386507359+386489994+386882960
2777+387476627+387914992+388289433+388777795+389300886+389840316+390358498
2764+390690218+390938461+391277725+391685199+392098298+392362968+392615765
2750+393270768+394161247+394847051+395335190+395771457+396006665+395967426
2737+396192546+396951248+397657944+398077872+398572037+399116020+399497068
2723+399946503+400627799+401299765+401782369+402018603+402093599+402314924
2710+402827882+403475921+403967453+404134406+404251854+404595448+405022921
2696+405418967+405696762+405686718+405509810+405451465+405632391+405940765
2683+406265521+406664156+407009045+407098682+407069443+407202113+407549591
2669+407846982+408009517+408242270+408462077+408518100+408552116+408637334
2656+408835670+409325326+409854622+410034700+410074832+410195851+410346868
2642+410587969+410846702+411008879+411140032+411303637+411554246+411844719
2629+412104836+412444725+412854208+413122138+413226194+413405959+413777319
2615+414160331+414551645+415110761+415624925+415904684+416087485+416201183
2602+416181318+416058335+415967626+416049987+416175158+416182389+416248412
2588+416446569+416479424+416282651+416174131+416200602+416232966+416307917
2575+416252117+415992000+415863169+415935307+415923745+415725409+415532966
2561+415448195+415372441+415374093+415524395+415645772+415667511+415651173
2548+415570107+415392931+415097592+414834797+414806986+414854840+414884704
2534+415076969+415453686+415928566+416327380+416339879+416010213+415837724
2521+416013293+416246448+416410455+416611112+416793154+416805118+416726239
2507+416679277+416522100+416237073+416132526+416372824+416777441+416962250
2494+416749139+416412509+416128286+415869418+415709518+415586624+415441454
2480+415454846+415674877+415842098+415702554+415289678+414943361+414854304
2467+414769176+414623828+414660388+414734758+414516960+414169080+414060917
2453+414144082+414176937+414108861+414034267+414051052+414145867+414180776
2440+414061676+413979092+414038865+414012751+413832048+413629829+413469125
2426+413328151+413239005+413328910+413543718+413631525+413543941+413433279
2413+413334669+413345740+413528228+413675808+413772275+413887491+413860350
2399+413676567+413520773+413477606+413487650+413420288+413255611+413156600
2386+413026519+412377364+410978346+409133151+407050426+404556567+401625191
2372+398433564+395356394+392836688+390554065+388245909+386422007+385403768
2359+385309935+386354690+388708424+392467917+397054902+400371565+400369601
2345+397549602+395096053+394530018+394791474+395309745+396046885+396824782
2332+397465634+398054704+398818227+399753614+400719981+401854775+403361911
2318+405106130+406767319+408135000+409219841+410120454+411045440+412176662
2305+413252844+413947085+414368085+414806986+415414001+416094716+416600756
2291+416863551+417132641+417537169+417926609+418235830+418413810+418361715
2278+418169182+418120793+418446531+418928509+419182689+419273800+419443432
2264+419730779+420053304+420266504+420332438+420451939+420769419+421106585
2251+421298492+421500578+421746856+421828012+421841806+422071613+422532923
2237+423012847+423292249+423343674+423336130+423516074+423928682+424328255
2224+424623236+424857551+424924913+424878041+424943885+425203288+425632368
2210+426141666+426640786+427058393+427305878+427529658+427927445+428421967
2197+428893410+429294947+429630774+429905042+430124493+430346979+430521789
2183+430683832+431022248+431486370+431939734+432422784+432953688+433457406
2170+433904922+434283916+434575683+434936999+435542094+436298787+436936470
2156+437298322+437559644+437935424+438455346+439008168+439338772+439449658
2143+439612371+439872756+440030648+439924181+439669510+439532510+439536126
2129+439394349+438904157+438232012+437621516+436984592+436117013+435211133
2116+434476537+433718148+432843695+431982321+431155454+430248056+429231559
2102+428314072+427487384+426449861+425353547+424528778+423778334+422901694
2089+421978494+421045026+420104952+419119122+418109052+417222368+416501030
2075+415841250+415127590+414306080+413434841+412592350+411687274+410741396
2062+410024121+409496520+408849374+408038131+407304115+406799728+406377121
2048+405859207+405321563+404869672+404375284+403778715+403252141+402813330
2035+402375411+401935886+401449265+400950725+400542894+400105199+399524789
2021+398958620+398409994+397799274+397446975+397422825+397296226+396933034
2008+396452038+395915331+395412685+395008871+394707239+394404088+394000855
1994+393379511+392570276+392133295+392182846+392205389+392071871+391858447
1981+391606052+391389191+391159116+390785524+390301358+389814827+389206607
1967+388522097+388161405+388151317+388099400+387833926+387453147+387057458
1954+386778547+386622039+386375760+385976723+385493405+384713053+383843957
1940+383765926+384169115+384212014+383968101+383662629+383357916+383231585
1927+383089228+382376104+381395675+380989496+380724468+380411497+380778259
1913+381314430+381185823+380707103+380631572+380961328+381279076+381472233
1900+381530354+381331438+380939544+380749288+380660677+380277934+380236151
1886+380769599+381155869+381405318+381678604+381870333+381978986+381988629
1873+381772526+380673802+378853784+378727363+380443414+381796587+382240130
1859+382313429+382343695+382478151+382640641+382693048+382507346+381920553
1846+380770179+379837471+380631751+381966041+382413111+382503730+382808130
1832+382352980+380660588+379881441+380632063+381384471+382315840+383422466
1819+383948459+383907971+383703341+383229085+382576538+382653631+383481525
1805+384097021+383867170+382802952+382013538+382319322+382683317+381813952
1792+380813837+382199999+384393029+385267840+385076200+384757604+384687475
1778+385137357+385409973+384127867+381593788+381515221+384118582+386559722
1765+387930259+387996594+387697104+388333939+389209062+390091907+390411530
1751+388665748+386220279+386448523+388253230+389384051+389322671+388987469
1738+389576315+389599171+387537874+387558765+390562815+393651547+395634055
1724+396260756+396341108+395703648+392481800+389189509+391427537+395529329
1711+398140770+398676941+397257255+395755743+395708202+394669562+392231950
1697+392490326+395594995+399536440+402048646+402532901+401963518+399716473
1684+396423960+398301742+402379830+404829005+404987745+404359303+404319082
1670+404150477+405766535+409220645+411071777+411260604+412698236+414907247
1657+415648495+413309626+409238189+411372562+414187248+415014785+418821909
1643+424954465+429538057+431980714+432543625+434267667+441134908+448498502
1630+453959225+458337831+462517163+467031920+473033011+479024282+483139243
1616+487869299+495390561+502496894+507909050+512836459+518397177+523992267
1603+529208721+534457271+539768495+544638676+548844747+552790746+556950526
1589+561474033+566064008+570443239+574794569+579056083+582278378+584031436
1576+587758967+595258221+601681071+606889311+614127645+622605052+630297241
1562+636129057+639180782+644798282+658060875+671392660+683626033+694965981
1549+706360657+716342165+723639423+729068453+737670896+758493767+777854052
1535+790595563+803616341+819199277+832735469+843635936+853413528+862345459
1522+872796312+886131624+899003661+911997120+925455013+936452170+942476429
1508+942910330+949493483+968055605+982470223+990920131+994977105+999124609
1495+1006870544+1013702074+1016142454+1016113438+1019660444+1025968346
1483+1031399072+1034901974+1037297536+1037728401+1033730888+1026019325
1472+1022213050+1026594824+1031023203+1029880597+1027755643+1029804352
1460+1029551422+1019500187+1011784607+1018336779+1025040727+1027563513
1449+1026699728+1024520581+1023821162+1024969749+1026635179+1026653660
1437+1023885711+1023517699+1026975693+1028756026+1029422144+1031991177
1425+1033370375+1031442373+1028176956+1024292382+1023291910+1026626697
1414+1028438546+1027664131+1027043457+1026565719+1024625039+1022080201
1402+1020577529+1018632831+1015948181+1013762070+1011962095+1011931383
1391+1012800524+1010693605+1005002003+1001862917+1003398712+1006440215
1379+1009244679+1010468083+1008622665+1006190231+1006780818+1008317506
1368+1008929253+1008806760+1006930273+1005201901+1005815165+1006327990
1356+1005918194+1005403941+1003861004+1001049844+999946610+1001483119
1344+1002397436+1000559875+997094292+995735360+997834155+999831528+1000005178
1331+999736891+1000126063+1001385001+1003111766+1004448556+1005441796
1319+1007123921+1009579033+1011627117+1014012590+1018118489+1021937978
1308+1023879551+1025949687+1029682842+1033742584+1036537674+1038746997
1296+1042097141+1046586141+1049766474+1050573655+1051615553+1054583578
1285+1057922205+1059463446+1059349525+1060041892+1061909719+1062599050
1273+1061624112+1060920853+1060529361+1059088470+1058007200+1057832122
1261+1056655500+1055850283+1057028780+1058158261+1058183081+1058275397
1250+1059102755+1060118583+1060868803+1062001588+1063508278+1063814687
1238+1062767432+1062378707+1063399892+1064438844+1064306709+1063134373
1227+1062624763+1064092437+1065675372+1066116326+1066980736+1068026830
1215+1068259315+1068597508+1069548072+1070967803+1072091035+1072323699
1204+1072764742+1073168556+1072146032+1070728354+1070540330+1070973249
1192+1070711837+1070373555+1071014140+1072072644+1073058384+1073741823
1180+1072797955+1070177228+1068080487+1067450081+1067593375+1067916301
1169+1067721760+1066534603+1064650705+1062625566+1060835323+1059374345
1157+1057879976+1056894860+1057196716+1057380632+1056216421+1053597480
1146+1049881199+1046619889+1044495917+1043895687+1044659835+1043888813
1134+1040007185+1034714129+1030518414+1028765490+1027387899+1024438622
1123+1021698975+1020345669+1018676846+1015736766+1012575628+1009205306
1111+1005428047+1002424399+1000855034+1001243492+1002767859+1002963382
1099+1001568114+1000862088+1002210216+1003817435+1004634169+1006075684
1088+1007576660+1007920120+1008554812+1010742798+1013412896+1016149418
1076+1019049590+1020566458+1020399058+1020327456+1021757007+1024269705
1065+1025926921+1026373767+1027413790+1029739446+1032540874+1034819122
1053+1035743528+1036352775+1037559930+1037820003+1037154688+1037369139
1042+1038554331+1039431954+1038869311+1037518683+1037759917+1040074859
1030+1042206777+1043037885+1042505597+1040453853+1038969483+1039525698
1018+1040562685+1041195234+1041246749+1040303148+1039684616+1040220118
1007+1041305941+1043228587+1044533504+1043025028+1040515010+1039687919
995+1040392160+1040297791+1038512726+1037474132+1037925264+1038051059
984+1037411279+1036463393+1035524524+1035088927+1035288021+1035280075
972+1034184520+1032573730+1031416839+1030466274+1029368487+1028488007
961+1027396470+1025480877+1023755452+1023373958+1023524216+1023012195
949+1022837742+1023481719+1022925237+1021005448+1019873199+1019876324
937+1020055866+1020377363+1020958398+1021645943+1022811315+1024279883
926+1024446122+1023035765+1022048328+1022117788+1022650076+1023626353
914+1024168640+1024319701+1025659795+1026742315+1024689410+1021342927
903+1020517533+1022230192+1024441479+1025800500+1025595692+1024246045
891+1022939879+1022702661+1023390832+1023637602+1023053978+1022736142
880+1022872561+1022497407+1021931371+1021930389+1022121538+1022218585
868+1022328667+1023505468+1026533578+1030130849+1033234045+1035873966
856+1037705814+1037773845+1036368577+1036271708+1039293748+1043131807
845+1045072220+1046391778+1047608397+1047039684+1046903353+1048442630
833+1047991230+1046154472+1047007364+1048815374+1048580925+1048745646
822+1051248612+1054071468+1056333735+1058440922+1058652069+1057898367
810+1059517818+1061042006+1059685664+1059075435+1061067630+1062971437
799+1064099490+1065846879+1067541682+1067827914+1066931632+1065355839
787+1064047262+1064144041+1064643384+1063733353+1061297437+1059383094
775+1060242593+1061628487+1059878598+1057501071+1057681774+1057461788
764+1055166666+1053681939+1052670397+1051158618+1051221828+1051995886
752+1051490472+1051135851+1052443536+1054201103+1054242886+1051694834
741+1047881416+1046760326+1049383195+1051079694+1050608296+1050253854
729+1049754332+1050674809+1052344882+1049599164+1044701618+1043188768
718+1044019251+1044513862+1043844976+1042706299+1042179636+1041832872
706+1042502205+1044870893+1046210272+1046054568+1045743605+1045798066
694+1047474567+1047369573+1043047973+1040174317+1040165032+1038647629
683+1037545824+1040974445+1046065103+1048512893+1049171155+1051219685
671+1051874465+1045997607+1043387059+1049407122+1050858101+1048870638
660+1049838880+1050969701+1050157342+1046547036+1038475229+1035131156
648+1040705533+1043510176+1038423804+1028823165+1020475214+1022695073
637+1031029185+1025159380+1009492431+1010403712+1021627819+1023257537
625+1023931065+1032913886+1038839491+1036011100+1037908926+1049669427
613+1050139665+1029020831+1006388611+1002717148+1021380781+1043682308
602+1044199150+1032551320
##END=
