##TITLE=Sample description
##JCAMP-DX=4.24
##DATA TYPE=INFRARED SPECTRUM
##DATE=24/8/2023
##SAMPLING PROCEDURE=Instrument type and / or accessory
##ORIGIN=Default
##XUNITS=1/CM
##YUNITS=ABSORBANCE
##RESOLUTION=4
##FIRSTX=4397.6552
##LASTX=599.8556
##DELTAX=-1.9287962
##MAXY=1.5761421
##MINY=0.52940279
##XFACTOR=1
##YFACTOR=1.4678967e-009
##NPOINTS=1970
##FIRSTY=0.75195736
##XYDATA=(X++(Y..Y))
4398+512268581+512060640+512903854+513383283+513182448+513049384+512674798
4384+511673630+510833259+510744617+511103448+511315977+511127202+510760331
4371+510854739+512122807+513496450+513242463+512370501+511883316+510909069
4357+510024885+510084981+510087377+509342144+508539902+508233128+507790934
4344+506773848+506172278+506635505+507425322+508053936+508773952+509621348
4330+509949887+509235149+508738179+509497785+509974818+509468509+509254193
4317+509471229+509650056+509772847+509712548+509854870+510463546+510773650
4303+510315864+509486538+508836931+508815979+509063469+508746097+508178026
4290+508058808+508387185+508439200+507439737+506579104+506762194+506686587
4276+506356830+506330924+505900993+505651066+506657838+507931226+508082806
4263+507679959+507686578+507840067+507932282+507947631+507858420+508099251
4249+508338661+507857852+507182664+506809581+506609518+506927053+507434865
4236+506877554+505368939+503984658+502966232+502558715+503262286+504305847
4222+504624194+504725342+505189057+505294794+504309542+502724467+501690286
4209+501674734+502496427+503626639+504224514+503931383+503208241+503019303
4195+503878637+505079991+505549715+505266613+504974213+504554678+503801568
4182+503584938+504057870+504100383+503380286+502753622+502194768+501015707
4168+500058068+500305599+501123555+501551375+501399429+501424767+502377737
4155+503284701+502844862+501919179+501498019+501376000+501953613+502843319
4141+502592865+501528798+500950535+501174962+501599127+501588894+501357768
4128+501493187+502126998+502581333+502510029+502563263+502467678+501794155
4114+501302991+501026346+500649649+500518574+500759487+501275298+501379938
4101+500384901+499422227+499815369+500504850+500455514+500643761+500970554
4087+500282900+499326763+499379307+500250781+501012256+500921340+499868481
4074+498980358+499230528+499394087+498580800+498083545+498432509+498658275
4060+498143966+497504795+497839872+498760560+499022628+498838523+499350314
4047+500408980+500328175+498973942+498516075+499246445+499293588+498514491
4033+498114690+498050939+497701894+497055739+496740316+497302946+498170238
4020+498418987+497915723+497329989+497570779+498456669+498477946+497349967
4006+496902291+497504186+497640986+497136179+496570301+496092456+496281515
3993+497025448+497205898+496971442+496965798+496598644+495627888+494729776
3979+494652626+495286599+495671377+495878627+496007387+495436149+494951685
3966+495438870+495997073+495676615+495233000+495483698+495623625+495080567
3952+494488011+494206088+494902269+496679286+496733535+494607757+494352714
3939+496234859+497439827+496866396+494292821+491566569+491682335+493435883
3925+493856921+493372092+493536422+493515104+493008023+493152985+493916936
3912+494232684+494290344+494612427+493775832+491405812+490100387+489737455
3898+489977149+492122945+494313570+493423295+492024924+493523266+493676592
3885+491667839+491772398+491488647+491000001+492859732+494053655+493480224
3871+491442601+489168004+490308896+491671697+490776915+490935520+492429882
3858+493599482+492256213+485078992+481917936+486810328+491232873+492543090
3844+492162008+492061712+491173305+488441978+487867167+489823701+490765180
3831+490834493+491238721+491715997+492807310+491686234+485850821+484333516
3817+486623340+487270753+489570932+493189895+494538240+492618901+491599744
3804+492163876+489965252+488329622+489267731+490094783+491858766+494135800
3790+495226016+495215053+494490407+493922134+494266103+493858017+492948983
3777+493959409+495655622+495879724+493755692+491614484+492082340+493431457
3763+494192241+493119201+490257205+490061568+492969935+494069734+489209340
3750+484337617+486212615+487789407+485340978+485991965+490038951+491974939
3736+488772425+485000542+485836243+489506775+492890917+493348784+491613184
3723+491182238+492547922+494498366+496429278+497370229+494474368+488485832
3709+487920522+492187305+496245051+498178115+499087516+501832202+505874153
3696+509218379+510909678+510023220+507000467+507166138+511356866+514712950
3682+514914921+512925821+510045269+503757470+497958846+497934523+495923374
3669+492676479+494217944+496377181+496145608+494527845+492292189+488622632
3655+486038174+486436676+484756990+477532261+474254465+477656107+481391243
3642+482864328+482216306+480285109+477356358+474428906+472160034+466595582
3628+458352183+457008304+458813948+458892114+455943263+451384283+449092875
3615+447681997+445691761+444095072+441532582+438404539+437211429+436575466
3601+434664531+432573024+431015804+428849868+427083448+427306372+426677597
3588+422157476+418464327+418475940+418633652+417209090+415072308+413372725
3574+412437053+412060681+411190465+407420977+402026337+400814344+402004491
3561+402064871+401558358+401415711+400734555+399124953+398036158+397919499
3547+397117134+394933737+393242113+393336399+393896227+393374812+392512920
3534+392613134+392711887+391527060+389991564+388911214+387497738+386115568
3520+385837948+386302191+386472693+385782359+384635986+383641030+382780193
3507+382256545+381546761+379641390+378004543+377951959+378051604+377451090
3493+377041909+377034803+376959845+376605562+375829226+374889859+374015948
3480+372827223+371507057+370815018+370645044+370541662+370476369+370249546
3466+369710021+368999223+368471189+368209202+367565078+366599723+366296319
3453+366577350+366418257+365392522+364000323+363297158+363471315+363714948
3439+363765826+363734804+363497059+363140015+362991317+363122026+363203075
3426+362997774+362561590+362200120+362153505+362054427+361715818+361677527
3412+361913729+361764991+361475434+361599362+361878484+362085450+362300618
3399+362238126+361589495+360764635+360653985+361671721+363166774+364150279
3385+364256706+364030330+364406012+365387122+366149408+366296075+366136090
3372+366481967+367697127+368955734+369733857+370784199+372359691+373499974
3358+373911673+374554701+375965539+377431518+378241313+378605910+378975217
3345+379402386+379952428+380934106+382105249+382824047+383237655+383893108
3331+384577798+384653811+384230459+384151522+384878400+385822437+386015800
3318+385491015+385020722+385025392+385403185+385730059+386139728+387042835
3304+387661378+387308719+386863237+386973846+387406497+388164723+389004363
3291+389568820+390111715+390756408+391345878+392010671+392920315+393837917
3277+394654372+395448737+395834367+395807405+396140979+397341033+399033469
3264+400219880+400567666+400695939+400998531+401432157+401766299+401847226
3250+402235008+403068273+403260743+402839177+403095804+403940195+404268327
3237+403864993+403434210+403652017+404585943+405291870+405011529+404670362
3223+404995084+405462859+405811945+406030727+406125175+406357723+406797521
3210+407223838+407285517+407032342+407190541+408001189+408659079+408566173
3196+408266464+408577868+409402362+410152345+410645011+410930509+411133739
3183+411466095+411884494+412546079+413760873+414748520+414692525+414201564
3169+413925568+413971981+414593691+415552386+416001280+415874306+415993565
3156+416607235+417294889+417848139+418425508+419216056+420010543+420373150
3142+420252795+420100321+420093906+420059107+420307897+420849736+420975654
3129+420756790+420834712+420934683+420713505+420979227+421913315+422611405
3115+423064887+423514267+423535626+423301048+423236323+422986153+422509729
3102+422391323+422551471+422627281+422815122+423226659+423502370+423394116
3088+423178014+423358952+424039256+424600139+424584790+424523354+424756064
3075+424799309+424646876+424775311+425032181+425139461+425364253+425664734
3061+425557819+425314430+425516564+425924690+426197559+426405377+426610435
3047+426774278+426780572+426552572+426123088+425578650+425066412+424896153
3034+425041358+424911421+424610859+424931723+425730717+426138559+426102176
3020+426305447+426976453+427563364+427582246+427510902+427712183+427753236
3007+427784055+428224381+428691547+428938794+429336443+429964853+430721130
2993+431531535+432150281+432693785+433347127+434273176+435800470+437363131
2980+438146370+438537522+438771653+438003966+436599464+436205306+436550250
2966+436223416+435688480+435732983+435921799+436198444+436473059+436427905
2953+436521379+437021679+437994505+439016748+439052278+438277444+437495099
2939+437075847+437125061+437313430+437436870+437563031+437785428+438062479
2926+437897499+437257191+436889305+436850893+436673528+436491494+436504772
2912+436600438+436623299+436582572+436904614+437736660+438533787+438979350
2899+439129469+439096782+439163009+439377731+439790242+440404359+440751617
2885+440935357+441168148+440988144+440496655+440183019+440202875+440470140
2872+440530480+440237065+440182937+440721772+441382748+441506514+441124091
2858+440804120+440813337+441093069+441350589+441221057+440947945+440917328
2845+440986926+440964349+440992205+441274088+441681401+442139269+442896520
2831+443831583+444430839+444613604+444743460+445108422+445828195+446668282
2818+447045669+446874030+446846580+447231074+447429147+447333887+447572566
2804+448253763+448908323+449288553+449498605+449761323+450197060+450664592
2791+450892916+450853123+450923817+451397967+452122125+452834792+453411714
2777+453766119+453808917+453835473+454181269+454493201+454660089+455049942
2764+455566444+456047497+456487051+456819894+457168858+457497803+457598911
2750+457636674+457836859+458226671+458830272+459499531+459908956+459999181
2737+460210898+460751723+461215478+461493382+461756952+461977074+462265414
2723+462751502+463339835+463831405+464096030+464302509+464644245+465023297
2710+465417373+465960675+466601104+467104734+467277794+467291966+467462468
2696+467742565+468044872+468498030+469138865+469692399+469895589+469916663
2683+470094393+470551083+471004809+471097958+471014879+471155577+471516641
2669+471818542+471941739+471961677+471995136+472226912+472746296+473267508
2656+473369103+473170827+473071952+473193525+473650905+474230102+474526197
2642+474729346+475070432+475472020+475884369+476275034+476645884+477040082
2629+477417632+477717909+478067969+478462573+478591820+478342706+478088434
2615+478379656+479191157+480047323+480695833+481101645+481410449+481641779
2602+481655585+481663381+481923134+482364069+482835052+483162697+483256334
2588+483371450+483622757+483694710+483554134+483492414+483644522+484028731
2575+484514210+484929239+485291033+485560573+485659244+485701474+485730872
2561+485672847+485606376+485687018+485870068+485990585+486031312+486043412
2548+486183745+486534454+486774839+486753034+486738375+486953056+487357324
2534+487710227+487964945+488297341+488717324+489077941+489233582+489183190
2521+489190296+489476808+489739972+489627780+489481234+489669400+489968703
2507+490143835+490294440+490599428+491027166+491299954+491344782+491413365
2494+491461888+491356436+491376414+491570711+491681605+491611235+491305720
2480+490898853+490730381+490923257+491100215+490885818+490608077+490556427
2467+490468597+490317017+490275356+490234101+490097382+489857485+489500441
2453+489302002+489387801+489369935+489156675+488970052+488727150+488424761
2440+488300468+488290763+488137599+487859776+487608023+487440647+487395290
2426+487330240+487049210+486760464+486628172+486412841+486090312+485840547
2413+485620222+485303824+484850342+484413630+484186118+484043105+483869761
2399+483763861+483607571+483275459+482905665+482567665+482243998+481910424
2386+481447075+480748093+479752365+478282366+476109973+473324315+470269322
2372+466846483+462970609+459562185+457254820+455537655+453919120+452607929
2359+452301195+453319256+455401180+458430754+462216484+465158919+465199687
2345+462368105+459491207+458600363+458945916+459222155+459091933+458777403
2332+458568204+459187965+460765204+462262612+463131529+463964550+465233796
2318+466762186+468201772+469313388+470201104+471167961+472255782+473274330
2305+474059153+474563960+474969730+475505276+476165927+476717187+476945918
2291+477084667+477416576+477768747+477975064+478049290+478111701+478266530
2278+478358704+478334178+478322240+478400162+478657642+478983054+479179260
2264+479395768+479821963+480264116+480488218+480585711+480685560+480837425
2251+481082032+481410530+481912414+482427819+482533028+482390625+482533353
2237+482987160+483408767+483747660+484202644+484679068+484970656+485137342
2224+485267401+485416301+485747317+486319814+486817962+486945544+487045352
2210+487544069+488215521+488635057+488819528+489084641+489475306+489858825
2197+490336345+490915948+491355827+491738818+492404747+493153391+493538249
2183+493630018+493793942+494317671+495055717+495586674+495974253+496399189
2170+496722653+497058866+497616298+498189119+498601509+499109402+499906893
2156+500724485+501256132+501501836+501663121+501957754+502358368+502642160
2143+502725035+502737136+502727553+502579465+502354876+502215802+502033849
2129+501639367+501146416+500593979+499932272+499310358+498739973+498057233
2116+497131509+495945870+494883996+494273574+493701808+492682205+491489500
2102+490522359+489644306+488651868+487590075+486535673+485490081+484476934
2089+483497733+482423718+481308205+480395028+479642649+478879835+478079217
2075+477244327+476426533+475613814+474771251+473944239+473063669+472167425
2062+471424710+470780951+470199602+469673477+468955288+467938324+466852939
2048+465939154+465309931+464798992+464069596+463218993+462580675+462017233
2035+461335264+460718548+460211548+459687331+459209892+458787839+458270525
2021+457633141+456915967+456147833+455596533+455410032+455167495+454584604
2008+453993510+453642232+453350887+453001883+452610974+452080220+451406738
1994+450611764+449683726+448993920+448740745+448608493+448390076+448037417
1981+447611141+447216293+446806300+446352209+445940469+445490560+444740699
1967+443866341+443454561+443481808+443460571+443206868+442703319+442057043
1954+441595764+441370769+441111747+440690871+440072369+439166785+438423462
1940+438501546+438895013+438993278+438866630+438540243+438061707+437609606
1927+437104961+436223822+435191509+434623845+434165734+433716678+433886855
1913+434186686+433949144+433441616+433170372+433132162+433062645+432899371
1900+432608960+432054208+431375650+430998710+430821913+430399048+430154847
1886+430474858+430832674+430948196+430880913+430770223+430648284+430397383
1873+430034736+429049525+427274944+426740210+427995528+429227945+429708308
1859+429698725+429526802+429418182+429367953+429218565+428768088+427992321
1846+426749549+425538613+425988075+427253423+427790065+427785476+427732405
1832+426898653+424910406+423931123+424612443+425206013+425699045+426324248
1819+426643001+426660380+426398515+425593430+424570903+424316672+424717124
1805+424900417+424345624+422986681+422011256+422284531+422501851+421275728
1792+419814012+420725971+422595487+423339623+423016932+422477650+422162958
1778+422237672+421982629+420184618+417275236+417015889+419473332+421616449
1765+422564181+422185575+421595334+422158816+422881106+423418682+423466678
1751+421648649+419118928+419024804+420401167+421303908+421404610+421263628
1738+421580432+421013417+418351159+418014215+420713789+423304053+424754278
1724+424999413+424783189+423904283+420519857+416812334+418343972+421931669
1711+424262748+424695440+423281964+421678453+421267891+419430737+415836868
1697+415536753+418521459+422051658+423967912+423940950+422969992+420213854
1684+416267814+417763679+421580919+423683633+423272868+421758202+420806776
1670+419645865+420014035+422481508+423630927+422962561+423315301+424511376
1657+424424236+421220383+415366982+415643627+417366111+417112164+419459445
1643+424029226+427030864+427747632+426297001+425492729+430153588+436054822
1630+440113502+442952596+445620011+448356860+452398080+457080703+460317122
1616+463554556+469016480+474346842+478313551+482053193+486575060+491095546
1603+495085602+498990590+502885183+506431666+509887923+513641249+517416625
1589+521139741+524948453+528860750+532920161+536860679+539892568+541372800
1576+543553598+548796618+553779682+557723570+562806198+568773416+574289711
1562+578345102+579166835+580392552+590345969+601625236+611099469+619076699
1549+626897720+633559292+638062195+640763231+644084597+657039043+672439929
1535+683293042+693562004+705642621+716379034+725116195+733224622+740610352
1522+748439656+758653314+770163180+782806832+795206202+805234861+811914056
1508+815336935+823339056+838489284+850269502+858001597+863515171+870721587
1495+880558751+888555106+892993447+896869808+905004628+914193242+920620033
1481+925176048+929797683+933319396+932489826+927755714+928170053+935859268
1468+941751123+942578662+942679120+944913477+945184966+939710292+937219633
1454+944463650+950790795+952780382+951433255+951115477+954283678+957879131
1441+959975998+960596043+959835259+960540820+963363956+965551130+967483625
1427+970093908+971725761+972116385+972270443+971089960+969894535+971935204
1414+974454855+975234724+974733896+972933043+970232616+969412548+970418021
1400+968760424+965093668+964113696+964858319+965574924+965293934+961550434
1387+955656712+953704238+955895391+958126093+959261341+960468055+961532406
1373+961411807+961250604+961861066+962432467+962572799+961550516+960137689
1360+960482835+960921943+959770778+958336836+957199639+955250657+953267323
1346+952940936+953509657+952868090+950806794+950206401+952231396+953626519
1333+952695111+951880890+953786992+957156272+959029728+959218299+959945544
1319+962173241+964912811+967133850+968603768+970510114+973931694+977667966
1306+980376676+982615337+985765835+990213109+994727058+997726503+999224277
1292+1000279857+1000857429+1001617320+1004035701+1006870044+1008739033
1281+1010330362+1011659460+1012516073+1013305525+1014163519+1014907167
1269+1014893443+1013831528+1011975533+1009473018+1007503165+1007936669
1258+1010155271+1011477954+1011110393+1010219590+1009804034+1010715545
1246+1012497232+1012819396+1011207359+1010082506+1010545896+1011363446
1234+1011573864+1011287433+1011136949+1011772100+1013072450+1013902669
1223+1014098063+1014942900+1016426624+1017539377+1017829868+1017572186
1211+1017726812+1018532587+1019476664+1020301930+1020681023+1020605334
1200+1020725445+1021162522+1021729294+1022544408+1022959071+1022528247
1188+1021805307+1021332497+1021628592+1022572751+1023138953+1022697409
1177+1021516034+1020286500+1019526446+1018975105+1018391686+1018061726
1165+1017851958+1017958425+1018868963+1019098627+1016450906+1012734774
1153+1011686422+1012579174+1012572271+1011334535+1009733055+1008327781
1142+1007571463+1007445830+1006523680+1004188296+1001814987+999281368+995541116
1128+992019403+990151551+988151326+984436737+980631435+978764964+978486004
1115+977030460+972172746+966126509+962826827+961822897+961190670+961241021
1101+960614316+958496334+957553800+958487076+959466886+959659519+958907261
1088+957616007+956852056+956735681+957003108+957658887+957616576+956521121
1074+956111250+956810557+957081883+956676072+956844016+958030102+959594875
1061+960824571+961672007+962137427+961096384+959119141+959052467+960279402
1047+959832904+958656807+959384051+961824846+964100052+964822505+963960451
1034+962706472+961895418+960994139+959322899+958064048+958655589+959368134
1020+958077935+956502118+956554743+956698161+956173620+956417821+956469146
1007+955108132+953980193+953635290+953142015+952678869+952410142+951906309
993+951301450+951095580+951379575+951386640+949803757+947154331+945740854
980+945914240+946541594+947217188+947067354+945830105+945105541+945020188
966+943373961+940227849+938975901+940076472+939917379+937782993+936016655
953+935058934+934015698+932665566+931942220+932889952+934160579+933627104
939+932310431+932477157+933971682+935383291+936450646+937291748+937405281
926+937210618+938163629+940649983+943657712+946056197+947158717+946933437
912+946303890+946033620+946205868+947039986+948164189+948571219+948357471
899+948829307+949377887+947534398+944590745+943402791+943255718+943524202
885+944881237+946794079+948145430+948100845+946860185+946033539+946401830
872+946609162+946877077+948845224+951416038+952996403+953884851+954740327
858+955498594+956486038+959494660+964461685+968969055+972152199+974612566
845+976887285+979299332+980431331+978742143+977007234+978456768+981789260
831+984217548+983971560+982577656+983945898+986704471+987574322+988863221
818+991936649+994240523+994232402+992345384+991065418+992479382+994791458
804+995161049+994843352+997741283+1003156836+1006399833+1007151440+1007528990
791+1006392199+1003881075+1003150664+1004814433+1006474385+1007195944
779+1007782612+1008253067+1008094137+1006669047+1005152351+1005775889
768+1006944758+1007197000+1007837429+1007416107+1004453450+1001788106
756+1001135495+1000971693+1001368246+1003113713+1004735739+1004261305
745+1002902240+1004404805+1007320927+1007202684+1005300643+1004425595
733+1003601547+1001159859+997370149+992345953+987344414+986248634+989893219
719+994609545+997875850+999676459+999254893+997096631+995617049+994877217
706+994421136+995970560+998074086+995451135+989887859+987762488+987659999
692+986955088+987191006+987120596+985792066+985944986+988490463+992727969
679+996802647+996601488+993626812+992869844+992439183+990298624+993596358
665+1003356940+1009049503+1009211600+1009849837+1011958723+1012372574
654+1011612195+1008823411+1004020514+1000222765+1000859540+1007812822
642+1007551404+991363219+977745441+976905801+990603328+1012702046+1015148039
629+1003262004+1000020875+992435447+980167233+981858939+978579884+951186455
615+934807018+951378925+985191836+1029400155+1070441572+1073741823+1058385319
602+1045582656+1019841220
##END=
