##TITLE=Sample description
##JCAMP-DX=4.24
##DATA TYPE=INFRARED SPECTRUM
##DATE=24/8/2023
##SAMPLING PROCEDURE=Instrument type and / or accessory
##ORIGIN=Default
##XUNITS=1/CM
##YUNITS=ABSORBANCE
##RESOLUTION=4
##FIRSTX=4397.6552
##LASTX=599.8556
##DELTAX=-1.9287962
##MAXY=1.2843347
##MINY=0.34273389
##XFACTOR=1
##YFACTOR=1.1961299e-009
##NPOINTS=1970
##FIRSTY=0.48864281
##XYDATA=(X++(Y..Y))
4398+408519866+408481471+408529060+408654959+409064647+409544796+409602326
4384+408861559+407473535+406211359+405881999+406906331+408176280+407705848
4371+405801173+404514306+404615214+405243512+405549451+405611142+405696353
4357+405736990+405383089+404501250+403923681+404229346+404612847+404301925
4344+403613008+403301513+403495207+403560237+403271415+403479685+404299110
4330+404098713+402889782+402721228+403538785+403654991+402886219+402402931
4317+402675583+403039999+402810027+401684888+400268659+399574759+399646416
4303+400285900+401254794+401792149+401864504+401715883+400926057+399755472
4290+399106644+399334672+399890290+400015092+399903221+400026354+400181280
4276+399978192+399455662+398715842+398055728+398397221+399435704+399706338
4263+399068000+398343952+397980134+398090535+398464892+398401058+397679402
4249+396962829+396817471+397309380+397827924+397788757+397627877+397977941
4236+398547936+398355238+396840468+395063187+394821580+395910916+396675676
4222+396521174+395928232+395644418+395816735+395816162+395343612+394762032
4209+394447372+394582340+395057481+395438067+395663105+395788306+395705487
4195+395399847+394747107+394223256+394451010+395162525+395819800+395958754
4182+395685081+395703967+395988154+395937875+395432063+394647544+394052509
4168+393790746+393271579+392771921+392999999+393756362+394469796+394701113
4155+394608252+394443436+394138693+393788653+393394687+392938407+392319403
4141+391738720+392255445+393768571+394568462+394170933+393764186+394017079
4128+394162138+393107211+391000370+389442048+389478200+390242611+390834432
4114+391267565+391329032+390930357+390369407+389873387+389826695+390171751
4101+390085269+389609854+389395007+389102971+388722086+388830294+389287122
4087+389710389+389808382+389674859+389385863+388398108+387119064+386649853
4074+386952628+387615035+388148528+387718709+386816738+386445072+386260571
4060+386088554+386256560+386470710+386447713+386230224+385821184+385194407
4047+384636696+384708253+385241448+385588796+385703059+385630057+385134261
4033+384236850+383597415+383507719+383153170+382718317+383078273+383339713
4020+382900600+382887619+383621409+384140725+383868323+383054728+382411481
4006+382247561+382077188+381599680+381053007+380845210+381133634+381561584
3993+381759589+381541801+380951849+380354921+380139849+380439360+380775073
3979+380824082+380846954+380783270+380588530+380412202+380174556+380046590
3966+380136685+380022471+379573816+379243385+379212265+379358595+379481180
3952+379260701+378659039+378054760+377739577+377197912+376407464+376733584
3939+378199096+379130816+378181556+375822719+374538343+375080781+375471857
3925+374974965+374933605+375580838+375328617+374248724+374589246+376395579
3912+377841457+378422639+377984573+375615994+372204671+370187079+370050466
3898+372082261+375120472+376528653+375275497+374491901+375890614+375774806
3885+373588385+372663816+372390666+373188440+374781445+374500795+372958742
3871+371159884+369686499+370552043+371269214+370938733+372345295+374586306
3858+375462140+372947107+365651712+364156850+369954740+374830728+376463449
3844+375389237+373448110+371150491+368340906+368018373+370357950+372857959
3831+375051929+376507624+376452262+375921086+374136429+370135179+369673368
3817+371466845+372524214+375297547+378479746+379291422+377218193+376236542
3804+377034615+375345709+374078600+375550291+377336492+379534399+381548803
3790+382360853+382109205+380937099+379911373+380259145+380465397+380205103
3777+381266235+382681791+382903988+381569258+380378865+380828442+382104695
3763+383654796+383812786+381993945+381528845+382924942+382569770+378248429
3750+376103468+379495332+382203635+382696217+385145423+388559511+389613367
3736+387345971+386557292+390657058+395811528+399498592+402020227+404971234
3723+409348759+415815859+425183685+436235160+447012612+457508519+471195668
3709+489614792+508165920+523838296+536835830+549285520+562115023+573744192
3696+582699266+587724648+587953871+583745274+579588002+579186761+579763757
3682+578589533+575383092+571050813+562889451+554080083+551456070+547449039
3669+542481163+542600160+543528615+542571457+541218239+540103714+536657883
3655+532464484+531080421+527587250+517734267+513516002+518282510+523223528
3642+525032402+524828243+524368849+523886582+523831818+524513111+522499031
3628+517573013+518096690+521847288+523864607+522074917+518653454+518401009
3615+519373516+519066655+518416506+517103154+516486692+518227845+519307938
3601+518086175+516920572+516458886+515111050+514200833+515103825+515211410
3588+512832068+512308043+515136265+517908327+519047968+518671493+517490193
3574+516998608+517811256+518135259+515028430+510601322+511621169+515784868
3561+518283756+519437349+521241340+522749483+522696313+522274541+522773053
3547+523509709+524094678+526071085+529249720+531492774+532169533+532141776
3534+532469766+533490958+534231998+534300068+535115357+536908983+538184613
3520+538661747+539257380+540379081+541873720+543257783+543786143+544008191
3507+544879291+545124461+544401111+544761740+546200766+547547605+548844912
3493+550148597+551189423+551476650+550957259+550595135+550406524+550335165
3480+551335279+552556045+552996005+553699273+555153000+556534621+557032685
3466+556584154+555842665+555153748+554750962+555259639+556522861+557662601
3453+558538336+558936936+558223602+556940048+556380344+556958984+557933434
3439+558265261+558230478+558877437+559597549+559379188+559407592+560366295
3426+560896749+560710729+560905519+561524125+561742485+561918788+562555930
3412+562763378+562392085+562663367+563258202+562663367+561308555+560864010
3399+561803877+563308083+563964161+563117828+562275331+563135318+564783836
3385+565416543+565245472+565603460+566897727+568565429+569103956+567773561
3372+566860154+567993616+569590807+570610404+571670714+572403781+572158063
3358+571943540+572307158+572845834+573699144+574430219+574243601+573287887
3345+572504640+572144310+571942992+572358634+573067284+573570580+574420850
3331+575277450+575225924+574622468+574251623+574408393+575270672+576310451
3318+576832085+576863130+576896218+577207364+577169592+577360296+578460321
3304+578864701+578330510+578042735+578118180+578719443+579482659+579335956
3291+578405457+577903108+578647686+580002349+580811708+581190874+581598045
3277+582098052+582707538+583057204+583380658+584602720+586392957+586976930
3264+585997845+585637316+587139330+589282472+590656419+590936521+590850662
3250+591552784+593001279+593976526+594310445+594818176+595259232+595310409
3237+595794370+596663776+597077026+597179230+596856473+596116180+596106463
3223+596688442+596634375+596478403+597097856+597272714+596019956+594470653
3210+593969500+594553572+595184635+594936226+593689897+591984372+590720502
3196+590546442+590943796+590747361+590072945+589821148+590075736+590261208
3183+589390755+587101259+584852026+583800536+582970398+582324784+583184822
3169+584709508+584874599+583306559+581488367+580975752+581144033+580333826
3156+579041553+578622522+578060874+576270287+574714606+574678578+575080616
3142+574320889+572324848+569920491+568171065+567642654+567448412+566572778
3129+565098620+563590278+562260082+561054266+560004072+559236023+558968479
3115+558972017+558586871+557428793+556059929+555305334+554553580+553084953
3102+551894933+552070638+552909846+553018279+552402265+551938735+551730889
3088+551243689+550340298+549494512+548879146+548292931+548021002+547996286
3075+547244532+545858376+544978755+544397772+543035137+541134423+539872397
3061+539594040+539637592+539272429+538499048+537698858+536718976+535346424
3047+534098998+533510143+533222267+532574511+531337550+529649317+527842536
3034+526113043+524501948+523197665+522301500+521608148+520976736+520127263
3020+518682456+517283992+516444285+515275394+513393417+511640852+510411216
3007+509067168+507489112+506467172+505962133+505300872+504594514+504253718
2993+503954282+503270199+502494526+501747356+500758355+499737761+499081434
2980+498610279+497969001+497319849+496708320+495771692+494596920+493590977
2966+492858109+492120905+490957146+489332947+487400341+485470975+484367960
2953+483978081+483264049+482218539+481281363+480612329+480340798+480209044
2939+479967911+479346017+477980342+476265001+474954837+474344903+473986467
2926+473026667+471522013+470210255+469084467+467787260+466456317+465324450
2912+464449663+463905456+463594060+463259045+462770848+462160714+461671571
2899+461477627+461272472+460693034+459864191+458976049+458043258+457441097
2885+457327183+457029640+456193023+455237061+454448382+453618442+452439036
2872+451053877+450043798+449604435+449389364+449092967+448307826+446995670
2858+445845066+444952240+443990895+443082522+442084900+440810615+439646757
2845+438915134+438647989+438817465+439089145+438979018+438417769+437734183
2831+437081992+436298296+435399988+434561577+434033266+433948852+433698550
2818+432961845+432300335+431892067+431589791+431315321+430913681+430396432
2804+429785252+429170634+428809606+428607092+428140572+427408351+426953890
2791+426845408+426536803+425981334+425537437+425207654+424787925+424363014
2777+424175101+423953401+423446468+423035211+422776935+422444212+422152600
2764+421855456+421430096+421056910+420958045+421011962+420719553+420037114
2750+419422794+419009444+418792877+418659031+418351522+418006191+417872419
2737+417868732+417633030+417061142+416633590+416520498+416333880+415941334
2723+415617680+415607041+415791466+415872492+415612796+414974408+414268972
2710+413807560+413704409+413886019+413988273+413781224+413496862+413511487
2696+413810600+414010722+413937196+413658265+413234775+412749044+412421404
2683+412408847+412505494+412514613+412398731+412176010+411987897+411779901
2669+411498928+411380330+411471272+411519134+411366775+411182101+411096117
2656+410950859+410876037+411110444+411333164+411320133+411411175+411785134
2642+412097999+411993329+411553892+411131148+411021545+411268608+411693145
2629+412085018+412329316+412513268+412753455+413052716+413424233+413825175
2615+414170879+414593698+415176051+415600090+415721055+415818649+416132985
2602+416687980+417259719+417662779+418059062+418587274+419097595+419502175
2588+419769271+419818155+419883883+420206191+420541456+420628112+420652530
2575+420840991+421133202+421486904+421803083+421911217+421931249+422126986
2561+422478994+422702737+422702089+422573674+422383418+422213045+422072870
2548+421855655+421532948+421270188+421154530+421160061+421374634+421686179
2534+421713387+421557316+421706461+422035945+422194657+422234024+422188977
2521+422058668+421835324+421597978+421629222+421936332+422273939+422514125
2507+422659533+422758797+422765923+422665164+422678818+422883724+422984433
2494+422920599+423008900+423254369+423314216+423054346+422690229+422586530
2480+422749130+422804243+422743549+422735426+422633073+422409580+422214889
2467+422057970+421942113+421939222+421989552+421861336+421403885+420721446
2453+420007763+419444919+419188488+419150666+419041834+418774041+418499820
2440+418176963+417664797+417214572+417054788+416877489+416354211+415689462
2426+415269659+415066397+414727345+414138589+413543504+413050798+412567908
2413+412122491+411748757+411369018+410881992+410322462+409846075+409458214
2399+409046408+408574805+408118999+407663840+407095365+406583922+406336485
2386+406030546+405113278+403478040+401497198+399349895+396751793+393697985
2372+390679607+387978753+385630729+383551496+381683571+380306186+379511053
2359+379184883+379702978+381248868+383302140+385623653+387563833+387754512
2345+385929891+383789240+382588382+382036551+381923608+382304618+382811526
2332+382903116+382778289+382922177+383213939+383512253+384073428+384855953
2318+385632000+386487628+387433275+388221904+388698740+389077358+389671695
2305+390351169+390724928+390764594+390767011+390949318+391284807+391524794
2291+391574950+391705433+392005716+392182392+392117039+392024303+392057540
2278+392077822+391948285+391839828+391901743+392071169+392256591+392369260
2264+392424298+392551617+392771448+392960009+393164591+393571613+394065266
2251+394375366+394561884+394961755+395579065+395989301+396133687+396431578
2237+396982811+397479454+397873844+398338445+398865685+399438819+400114007
2224+400893119+401723208+402630261+403646819+404575549+405410048+406464003
2210+407709037+408939171+410230299+411660057+413186513+414747552+416299471
2197+417974474+419988777+422239904+424348862+426364088+428654332+431169664
2183+433745640+436463935+439342537+442255373+445076270+447790578+450572358
2170+453511205+456335441+458956465+461681886+464522566+467180066+469480775
2156+471394893+473070269+474633027+475826535+476415740+476546697+476324997
2143+475611165+474282564+472333215+469668788+466328400+462618613+458581286
2129+454148148+449487182+444734776+439830136+434666422+429436184+424397199
2116+419541193+414966734+410717150+406464427+402063605+397806821+394023209
2102+390657332+387241674+383641665+380351956+377655637+375229577+372660203
2089+369950878+367366655+364988010+362763045+360612502+358477732+356430415
2075+354539020+352780425+351057734+349320492+347623315+346003400+344518753
2062+343139524+341677027+340129791+338645318+337160372+335600579+334164243
2048+332967446+331763548+330406319+329133928+328109572+327225416+326336576
2035+325387191+324489481+323743184+323136912+322727000+322450387+322112655
2021+321587409+320689849+319506332+318521865+317813863+317036446+316037130
2008+314913012+313792606+312665024+311512527+310449353+309571924+308749260
1994+307617443+306198299+305099769+304513753+304145276+303770097+303228057
1981+302555958+301825906+301089798+300519554+300019847+299220055+298033623
1967+296948971+296526203+296464611+296091101+295348416+294551764+293892596
1954+293463450+293176795+292792721+292183135+291262030+289983310+289098481
1940+289393308+289972945+289947257+289554811+289146294+288821121+288578318
1927+288170549+287306575+286535685+286544082+286709945+286827522+287375491
1913+287805311+287603544+287300645+287537717+288037450+288296148+288341096
1900+288334344+288153805+287754832+287571602+287544369+287233647+287259434
1886+287897648+288448931+288770965+289049697+289408855+289816674+290071337
1873+289861772+288615617+286953994+287322222+289428613+291091756+291860054
1859+292280979+292767531+293336031+293748833+293925061+293833870+293437263
1846+292651300+292291444+293746416+295681463+296759388+297494299+298216977
1832+298014737+296906764+296983429+298288659+299394689+300551895+301716028
1819+302361342+302533136+302294568+301440386+300329473+299863327+299929004
1805+299736307+298781042+297253814+296363728+296500191+296450409+295260589
1792+294288979+295769166+297800338+298371877+298039428+297855028+298099076
1778+298897223+299328114+298020069+295446484+295197627+297509174+299756439
1765+300859055+300643335+300364529+300892018+301353730+301679476+301077689
1751+298351173+295455279+295381903+296670240+297415392+297298537+296954751
1738+297118073+296225347+293433850+293328158+296141157+298985774+300776584
1724+301315335+301294954+300443836+297388956+295049155+298257415+303037901
1711+306224734+307282128+306747912+306610876+307804086+308361448+308184223
1697+310477881+316075649+322348706+326538742+329002224+330593710+331010523
1684+332990842+340156850+347899579+353899860+358443523+363013447+367499505
1670+372236937+379776255+387739937+393595482+399210343+406432909+413360349
1657+418032951+420272616+425147607+434462712+440670241+447228980+458615420
1643+469551486+477509038+483011803+486651677+492256197+502210338+511018808
1630+517358739+522283212+526490415+530454839+535479723+540498278+543640786
1616+546815883+552264681+557345575+560549824+562639248+564869496+567238274
1603+569444303+571798830+574348695+576630468+578905762+581931466+585585143
1589+589570397+594015544+598978537+604390808+609968619+614739563+618713904
1576+625690129+635667691+643791430+651481837+661639289+672630219+682832519
1562+690581278+694815440+703004906+719051814+733468593+745928797+756828535
1549+767404969+776620859+783200029+787253154+791467582+804858334+819493025
1535+828594254+836975222+847799865+856941408+863100450+868154136+872894782
1522+878173307+885442988+893062485+901136443+909786351+916031003+918263443
1508+916536890+917133669+926308100+934127022+937532191+936948966+936264783
1495+939491655+942582289+940891116+936555996+937563285+941857244+943762691
1481+941846480+938483270+935246830+930867361+924750675+921227207+923512468
1468+925845069+924144826+921540147+921961620+921668014+915934231+912297048
1454+918777403+926629113+932809882+937897852+944216853+952201314+959991334
1441+966362259+970110565+972131023+977867298+986696299+993362524+997792023
1427+1002591769+1007564230+1012312152+1014925502+1012317932+1011034080
1416+1017237672+1023414355+1025429829+1025342525+1025395944+1025808945
1404+1026122683+1025745062+1022984610+1018503585+1014865605+1012619312
1393+1013853333+1016556080+1015489193+1010629849+1008149349+1010212263
1381+1014164678+1017677482+1019286533+1018049821+1015843692+1015635896
1369+1016403895+1016697302+1015914552+1013624109+1012816643+1014912247
1358+1016479838+1016088663+1014505424+1012712097+1011290212+1009955831
1346+1007990487+1006048065+1004161753+1000595231+997028609+996810547+998703836
1333+1000158509+1000407765+1000431286+1001440269+1003091975+1003770677
1321+1003521620+1004919786+1008996480+1013427873+1016905297+1020507200
1310+1024507951+1028321138+1032480951+1037075293+1040347113+1041792916
1298+1043241611+1046098635+1050454086+1054673497+1056777173+1057682009
1287+1059269732+1061054687+1061790994+1061501574+1060665406+1059291658
1275+1057717090+1056962844+1057103867+1056725149+1055172607+1053102816
1263+1050976118+1049511279+1049875645+1051748104+1053421836+1054131233
1252+1054565164+1055395153+1056469316+1057299404+1057923690+1059063331
1240+1060894330+1062120179+1061913778+1061564162+1061944076+1062126757
1229+1061710965+1061359954+1061474466+1062178382+1063109030+1063558708
1217+1064176117+1066035321+1068289587+1069584003+1070268685+1071232321
1205+1072335286+1073071692+1073200755+1073228960+1073741823+1073638971
1194+1071980189+1070135237+1069504473+1069247443+1068371210+1067822867
1182+1068143880+1067938575+1066158005+1064336673+1064218174+1064714494
1171+1064274284+1062728320+1060730087+1059477429+1058883640+1057454978
1159+1054466299+1050916918+1048168924+1045912067+1043548073+1041151887
1148+1037732866+1033125269+1028772808+1024708373+1020463149+1016460803
1136+1012206310+1006767329+1000359030+993644469+987522202+981989438+975132858
1123+966973190+960474896+956434878+952194936+946501118+941467663+938348626
1109+935663020+931921591+927675370+924104264+921382680+919560850+918060730
1096+916129570+915168325+916456064+918447321+919331726+919417535+919668186
1082+920805335+923350716+926123725+927664507+929304852+932068493+934459396
1069+936094559+937706500+939953391+943734586+948026951+950984336+952305860
1055+952574650+953288632+955179329+957030062+958189735+958701900+959162042
1042+961363288+964872504+967174010+967411107+966383487+966180774+967830288
1028+969243801+968955975+968163758+968569185+970541307+972423433+972754512
1015+972617277+972907992+972790988+972769162+973718448+974142412+973106320
1001+972070528+972049599+972477450+972278723+971055466+969348845+967353502
988+965032064+962709927+960773086+959733607+959101647+957521697+954951700
974+952233107+949540425+947116633+945533295+944539560+943748440+942823771
961+941139873+939450793+939129980+940102586+941388731+942420536+942944363
947+942640591+942216428+942783208+944382891+946583040+948952915+950978057
934+952566876+954495944+956589554+957910580+959207688+960758237+961719481
920+962465954+962973734+962252975+960760429+959440499+958068147+956828943
907+955926599+954861107+953668745+952060093+950172385+948980820+948063327
893+947097996+946514772+945664351+944087790+942420138+941452315+941513408
880+942447246+944214661+946633071+949460197+953048645+957484324+962462864
866+967910416+973374014+978204755+981699420+983193361+983694265+984638667
853+985318265+984071487+980974675+978393516+977804211+978117052+978364016
839+978206449+977328024+977807699+981487040+983784260+980163023+974954960
826+973326076+974764007+976917614+978153927+978477930+979680457+983018553
812+986762375+988364051+988032175+987436691+987917065+989720756+991799118
799+993654435+995361355+996493222+997795213+1000936375+1005524637+1010025794
785+1013808883+1016839420+1019688871+1022712133+1025640516+1027778476
773+1028575975+1029384338+1031470573+1033884498+1035785460+1037617656
762+1039386964+1040136227+1039643695+1038381768+1037642671+1039114686
750+1040658458+1039694124+1038809221+1039362547+1038935194+1037276112
739+1036359915+1036408949+1035559227+1033402729+1031273440+1029572999
727+1028840479+1029513002+1030436275+1030357841+1029065318+1027186381
716+1025394848+1024095747+1023605707+1023519499+1022308300+1019571070
704+1017401517+1016793576+1016500867+1015033536+1011805368+1008432191
692+1006487875+1005532710+1005171932+1005716986+1007029043+1008527369
681+1009386958+1007818569+1004277660+1003928542+1007389024+1007195280
669+1003156756+1006677035+1015553874+1020360197+1021110257+1019576551
658+1020061011+1021479806+1019583029+1017624462+1016625644+1013799216
646+1012519151+1015130508+1017285410+1015757484+1011556012+1008621849
635+1010403515+1011465718+1005938037+999184109+995743561+993085562+987087175
621+978817480+977864407+984746402+985016388+982511670+993857547+1010903522
608+1018757226+1020890302+1019824412+1016057967+1012951088
##END=
