##TITLE=Sample description
##JCAMP-DX=4.24
##DATA TYPE=INFRARED SPECTRUM
##DATE=24/8/2023
##SAMPLING PROCEDURE=Instrument type and / or accessory
##ORIGIN=Default
##XUNITS=1/CM
##YUNITS=ABSORBANCE
##RESOLUTION=4
##FIRSTX=4397.6552
##LASTX=599.8556
##DELTAX=-1.9287962
##MAXY=1.2941368
##MINY=0.32866308
##XFACTOR=1
##YFACTOR=1.2052588e-009
##NPOINTS=1970
##FIRSTY=0.48827466
##XYDATA=(X++(Y..Y))
4398+405120187+405075530+405060966+405261106+405113016+405107008+405644843
4384+405538245+404513092+403963932+403694483+402288808+400964385+401537481
4371+402630138+402599205+402122099+402110329+402231911+401701321+401243997
4357+401963723+402700709+402116832+401270109+401757773+402631449+401661313
4344+399473625+398459920+398800633+399132789+399224402+399659027+400270252
4330+400406200+399902290+399120228+398612733+398522974+398568125+398827560
4317+399059622+398717105+398399216+398595226+398704470+398878671+399559229
4303+399729449+398694060+397483925+397264127+397601823+397074744+396326656
4290+396609705+396681512+395973383+395859787+396751835+397660945+397802111
4276+397590720+397467308+397018614+396378731+396036535+395586283+394902510
4263+394501909+394500846+394472731+393968624+393903493+395126585+396152752
4249+395785236+395030150+394974960+395450779+395749060+395638580+395337135
4236+394771507+393971863+393161661+392196125+391533296+392058718+393639731
4222+394922563+394713819+393736339+393191952+392884893+392181165+391359441
4209+391224951+391649561+392090417+392531521+393020347+393221352+392556520
4195+391325688+390629824+390959607+391607278+391735735+391778636+392100679
4182+392264272+392567251+393199147+393479822+393208791+392500513+391618010
4168+391183187+391004140+390591052+390360795+390650866+391242309+391944850
4155+392447523+392337044+391514478+390370488+389731446+389828672+389858789
4141+389469613+389433116+390260478+391038782+390898457+390353896+389954581
4128+389964447+390533661+390824153+390242872+389509967+389135082+388939839
4114+388759011+388316374+387665191+387399624+387507953+387448954+387191671
4101+386967719+386953007+387211700+387231110+386561976+385771605+385681574
4087+386083436+386195671+386242059+386619268+386527877+385601558+384502002
4074+383735344+383567201+383674664+383448042+383103522+383197608+383859572
4060+384788067+385225832+384588274+383334100+382473901+382514032+382986761
4047+382958004+382670257+383031295+383482091+383144865+382134821+380840144
4033+379857003+379670339+380081844+380380273+379958556+379176320+378921831
4020+379373666+379985459+380296573+380295683+380159932+380009098+379760395
4006+379350645+378801188+378023329+377377388+377456514+378196937+379100260
3993+379581644+379227752+378177328+376997039+376357255+376485538+376635729
3979+376306787+376198533+376477106+376482225+376325283+376298108+376128754
3966+375731565+375441197+375599524+376166339+376789704+376992786+376308172
3952+375133644+374279898+373990024+374465498+374830492+373954467+373423358
3939+374537132+376012043+376156744+374512652+373276579+374118852+374922550
3925+374090787+373334860+373835135+373896285+373050946+373193670+374197731
3912+374774857+375250899+375573981+374244341+371395059+369787241+370174564
3898+371525766+373028939+373433595+371719130+370690862+372377929+372893930
3885+371329162+371087308+371490851+372742972+374577041+374176045+372030442
3871+369511611+367597105+368360623+369192708+368945538+369867456+371330052
3858+372336981+371548292+366088244+363858051+368509305+373197280+375088567
3844+373906373+371517952+369479144+368157491+368872222+370468888+371351663
3831+372395411+373729057+374149167+374111681+372619635+368771312+368762880
3817+371061889+371888831+374162396+377170399+377787756+375038000+373264933
3804+374075604+372848556+371497775+373000553+375131963+377366212+379274461
3790+380082487+380197715+380100859+380168660+380564093+379808093+378589477
3777+379552689+381338169+381864036+380739926+380047251+381229247+382425411
3763+383193676+383217661+381781003+381332259+382737292+383100307+380563871
3750+379155475+381380007+382670801+381980352+384110402+387774756+389057761
3736+386993534+386037963+389628137+394960470+399283178+401554295+403444049
3723+407766807+414597838+423098949+432969782+443998971+456614788+472668832
3709+491215743+508293085+522371152+533472396+542461270+551187000+559594395
3696+566049503+569244714+568769265+564901878+561273649+560519676+559383129
3682+555849011+550706259+544664190+534766157+526355398+525984989+523810851
3669+519051565+518623196+519440420+519034800+518693717+519285382+519739566
3655+520826511+522135208+518101903+506676291+500783177+502738185+504992092
3642+505225168+504152910+503347852+503171054+503480932+504354435+501935748
3628+495303249+494530781+497532627+498454496+495166460+490140320+488654876
3615+489121077+488809815+487931367+485599521+482873132+482686790+483323804
3601+481878121+479074337+477202411+476119175+475662419+476234056+475399523
3588+471312660+468851937+470036702+471614476+472463944+472877082+472911650
3574+472748452+472693262+472182503+468886999+464040229+464091364+467498435
3561+469997089+471253661+472118955+472171029+471541433+471610025+472358410
3547+472699048+472598162+472998590+474362526+475763899+476262195+476454521
3534+477169277+478012712+478381489+478570452+478930822+478924393+478647699
3520+479280559+480791472+481772933+481782972+481752212+482160107+482881737
3507+483794110+483682295+482196356+482103630+484081041+485831756+486401562
3493+485824436+484499025+483748266+484242112+485306259+485767663+485347405
3480+485116555+485468171+485960484+486342515+486350576+486270658+486427229
3466+486701599+487246036+487580838+487237480+487006877+487219380+487566793
3453+487930773+487798534+486706495+485814298+486510707+487344894+487134715
3439+487225513+487877116+488430554+488792556+488448308+487607148+487097872
3426+487115379+487801551+488738799+489077953+489079239+489129188+488903629
3412+488446626+488160041+488517197+489528676+489866099+488579014+486972457
3399+486719105+487868016+489189027+489172559+487838196+487118148+488071024
3385+489347427+489281901+488368390+487898233+488207913+489126764+490204956
3372+490985486+491103483+490697962+490534665+490987711+491865121+492677746
3358+493055178+492748861+492226381+492618946+493464309+493525533+492664344
3345+491897217+492498624+493831603+494255521+493668652+493768697+495462490
3331+496663377+496292869+496044661+496251823+496153162+495906487+495566739
3318+494789622+493973189+494569305+496683110+498287886+498546529+498097686
3304+497020038+495796403+495453193+495845906+496212408+496532325+496695720
3291+496407948+496337427+496994718+497607302+497689445+497925439+498630749
3277+499403218+500169010+501228410+502509857+503398888+504319867+505849770
3264+506715360+506889882+508028012+509543673+509778282+509544563+510867107
3250+513103903+513914698+513169083+512327478+512038915+512217295+512893229
3237+513994467+514703931+514750121+515142092+515766447+515677133+515565763
3223+516066483+516401285+516058521+515061383+513624355+512601501+512696106
3210+513294893+513273727+512564411+512011072+511961767+512022743+511706239
3196+510740950+509637784+509132662+508968673+508528535+507950865+507741873
3183+507712448+507437237+507113958+506834692+506483619+506227300+505889234
3169+505075224+503844220+502576273+501962502+502228910+502267731+501273066
3156+500236317+499739405+498791672+497476003+496385348+495111171+494192615
3142+494210172+494364912+493917454+492811618+491496591+490507515+490052045
3129+489771395+489273791+488460720+487291138+486452352+486164085+485567326
3115+484731112+484199532+483801528+483292945+482774471+482400254+482188889
3102+481993744+481581546+481289917+481361329+481135869+480384022+479633907
3088+479311468+479381841+479410227+479092932+478367197+477637852+477447405
3075+477446663+477213291+477015476+476838678+476362339+475744513+475135242
3061+474331222+473533927+473105707+472778916+471952592+470559478+469296230
3047+468595865+468364371+468545026+468604124+467914737+466640708+465178557
3034+463768975+462667440+461864063+460924490+459761880+458848864+458414709
3020+458049690+457172775+455983955+455040624+454220432+453140311+451823900
3007+450632162+449589280+448596149+447943803+447744208+447821009+447717799
2993+447068372+446131024+445386398+445306135+445758143+446121480+446100116
2980+445387041+444112864+443106627+442625688+442273676+441821223+441181390
2966+440480679+439756230+438422164+436749932+435745328+434999515+434158305
2953+433958561+434025670+433456061+432698082+432259575+431793078+431141128
2939+430351054+429469638+428682037+427923663+427122857+426430207+425823062
2926+425235650+424601108+423636264+422515344+421807610+421264410+420472456
2912+419849833+419543565+419102536+418633121+418465373+418321364+418200697
2899+418384764+418499200+418166870+417612196+417218000+416951493+416473126
2885+415790367+415141484+414585029+414115589+413699806+413145750+412407776
2872+411699943+411102615+410581595+410194940+410084930+410017574+409424820
2858+408461658+407743564+407315788+406842095+406182035+405500808+404945516
2845+404569173+404410377+404287533+404050378+403908049+403932579+403792995
2831+403305826+402794399+402640029+402549479+402126080+401643065+401325275
2818+401167467+401230793+401347034+401216896+400759028+400165681+399578368
2804+399054405+398739384+398691785+398839380+398913239+398679223+398255553
2791+397825008+397522647+397432394+397467308+397478707+397355345+397066807
2777+396700032+396401158+396252970+396146545+395845124+395331274+394902411
2764+394808127+395020729+395241169+395200518+395052033+394986013+394948428
2750+394890146+394694458+394395707+394120126+393786238+393453464+393205725
2737+393083302+393113518+393095245+393067155+393235397+393398619+393299514
2723+393138739+393174346+393258591+393259333+393207431+393084860+392917953
2710+392715464+392551006+392542475+392548385+392552959+392806707+393145614
2696+393236065+393160870+393090423+392984814+392741378+392521210+392525586
2683+392550214+392433924+392386127+392558399+392777776+392760616+392544972
2669+392476182+392628129+392780051+392821592+392738584+392670016+392841052
2656+393277260+393787796+394015778+393791678+393418252+393264946+393394836
2642+393716632+394123835+394481361+394705238+394783252+394845119+395063037
2629+395386094+395633314+395806105+396153840+396674959+397034835+397206439
2615+397525268+398161417+398805652+399216119+399672083+400312609+400970246
2602+401549424+401888652+401994582+402327209+403027203+403609596+403929389
2588+404261001+404618676+404895271+405100554+405384097+405914465+406488253
2575+406786039+406961649+407302831+407741759+408129452+408461064+408695747
2561+408746784+408689862+408710757+408867624+408999394+408967768+408940000
2548+409004908+409020387+409013340+409156880+409565838+410052686+410407369
2534+410742987+410950569+410840461+410684805+410724516+410827776+410969263
2521+411258469+411510387+411542606+411467238+411501979+411791779+412188126
2507+412463436+412631430+412713425+412668867+412705784+413010420+413327171
2494+413472665+413535248+413521500+413513340+413491877+413261917+413006266
2480+412995460+413057920+412927535+412701136+412688203+412843612+412859858
2467+412713054+412554258+412400827+412092235+411561819+411126254+411040007
2453+410966494+410484541+409887362+409677900+409656338+409464334+409148522
2440+408700075+408155761+407810252+407686494+407516076+407201080+406787399
2426+406356483+406042872+405804776+405433180+404900192+404275096+403567832
2413+402929086+402501435+402254438+402156717+401993445+401478458+400775051
2399+400227078+399923803+399717308+399328849+398708673+398167055+397868403
2386+397402820+396305984+394868486+393470649+391730888+389277287+386291463
2372+383212073+380535237+378259199+375969043+373840897+372426666+371616241
2359+371129171+371400573+372708009+374960160+377918883+380187230+380215394
2345+378242558+376206816+375005064+374416712+374502045+374853810+374846391
2332+374559634+374611783+375020197+375298399+375609217+376495750+377786569
2318+378853634+379702632+380563005+381191341+381557942+382070259+382753933
2305+383222458+383422796+383556445+383657825+383791721+384046705+384417559
2291+384855967+385253205+385525794+385596241+385539567+385619361+385792548
2278+385734341+385464373+385324493+385457449+385849964+386410325+386856547
2264+387088461+387245551+387349157+387374403+387490446+387946781+388624793
2251+389067701+389223506+389556874+390193740+390770100+391121593+391375637
2237+391724435+392293104+392927992+393440012+393932869+394575348+395269630
2224+395861271+396567348+397555484+398501462+399209789+399916187+400776584
2210+401765883+402963778+404332141+405634828+406921987+408355579+409815407
2197+411236783+412805730+414588343+416410716+418235858+420200708+422334145
2183+424510558+426661354+428898595+431268521+433723458+436232250+438760378
2170+441334795+443910944+446327752+448558316+450749318+452906939+454812147
2156+456361535+457718300+459018194+460084665+460720345+460971372+460821577
2143+460107068+458820181+457096419+454928017+452287085+449241373+445812393
2129+442039760+437938555+433574305+429175339+424812919+420400402+416035213
2116+411953048+408157665+404331745+400343245+396430163+392752480+389259607
2102+385832334+382444797+379202110+376113423+373154329+370410236+367898625
2089+365498384+363135926+360863795+358671186+356467079+354226821+351954690
2075+349778624+347932364+346324398+344585083+342639471+340905422+339653178
2062+338365845+336643987+334864738+333265871+331752016+330320649+328957381
2048+327598884+326152064+324659622+323317865+322181887+321140463+320039424
2035+318861632+317723007+316681534+315734469+314803353+313793333+312732919
2021+311698815+310678286+309707533+308959024+308346267+307577631+306656356
2008+305771850+304944858+304100978+303265728+302442891+301568399+300686934
1994+299709999+298517198+297523398+296994960+296566690+295999158+295315286
1981+294572044+293854890+293253408+292731522+292102370+291272560+290242684
1967+289215726+288628759+288410124+288117085+287614016+286936350+286230546
1954+285701959+285281354+284773562+284127225+283324986+282325203+281550904
1940+281473089+281562872+281380635+281099218+280832686+280560987+280195301
1927+279653609+278874662+278169351+278013201+278025638+278012360+278311877
1913+278505439+278198628+277869933+277980314+278267913+278421294+278394440
1900+278194325+277870675+277497645+277210912+276858430+276240702+276000505
1886+276359688+276626219+276631263+276515245+276358526+276213206+275996252
1873+275494172+274260843+272720332+272690882+273951386+274871499+275118570
1859+275081010+275078710+275199996+275308621+275375235+275351671+275060314
1846+274282380+273700705+274765989+276499296+277607828+278343997+279034274
1832+279070845+278343602+278400523+279489224+280608042+281819809+282829903
1819+283186737+283161887+282959052+282301267+281321537+280807737+280812806
1805+280687886+279904908+278417980+277174637+276810064+276558096+275521643
1792+274498469+275340098+276849009+277335956+276920123+276420763+276346409
1778+276936245+277376829+276473951+274484152+274202339+275930948+277626793
1765+278498417+278433212+278437020+279245021+279984554+280534529+280442323
1751+278674522+276696320+276957016+278136984+278714308+278567751+278135896
1738+278066611+277348096+275230212+275151358+277265014+279237257+280340893
1724+280509951+280371208+279789730+277316075+274765148+276555747+279874098
1711+282108100+282906779+282433408+281918519+282291549+282002912+280953774
1697+281981795+285316985+289168201+291769175+293143150+293919130+293648000
1684+293770917+297932332+303036164+306770545+309308787+312078027+315107345
1670+318196700+323170765+328740526+332956933+337078266+342495783+347734574
1657+351253707+352638464+355767629+363458266+369480900+375555015+384548859
1643+393284505+400268224+405459984+409132796+414952718+424609367+432892436
1630+439043749+444335900+449520638+454712498+460508386+465723933+468888087
1616+471976824+477330694+482486601+485970919+488544347+491161294+493543534
1603+495478266+497214342+498832273+500199919+501483492+503119276+505046739
1589+507169346+509746087+512778101+515912286+519007996+521842342+524283531
1576+528594618+535287400+541118055+546959094+555071844+564155224+572653912
1562+579164012+583508876+592427080+606990388+619947732+631925595+643105421
1549+654078085+663292468+670040392+675329131+682655565+699385840+715074915
1535+725575592+736349649+748566769+758543137+766877291+775313370+783068421
1522+791040920+800710328+810690750+821279851+831352356+838782891+843406130
1508+845552129+850617683+861493566+869988446+875138566+878029537+881412178
1495+886487524+890179944+891041726+891547639+895734597+900846736+903926918
1481+905685891+907461481+908226136+905609831+900207200+899072432+904436292
1468+909296910+910541267+911048663+913258160+913874157+909470591+908810284
1454+918387510+928049005+934651188+938827068+944207446+952478102+960577450
1441+966271067+969495258+972053504+978020898+986377406+992912728+997923685
1427+1003414047+1007742344+1010528176+1012400201+1011577982+1011829999
1416+1017186539+1021926984+1023001615+1022562663+1022426468+1021929061
1404+1021282502+1021693463+1021308119+1019280710+1017596313+1017061520
1393+1018752049+1020308460+1017133426+1010869210+1009282237+1012702760
1381+1016235246+1018024386+1018684792+1018366112+1018450282+1020074939
1369+1020606468+1019801063+1019566455+1018196089+1016665098+1018670549
1358+1021756764+1022432699+1020554937+1017711936+1014939852+1013042013
1346+1012572300+1013008780+1012318899+1008722815+1004652173+1003236409
1335+1003622940+1004799447+1006048056+1006618358+1007186187+1008564662
1323+1010089620+1010877419+1011547815+1013599456+1017138767+1021044530
1312+1024865431+1028670704+1032377366+1036001441+1039075787+1041035246
1300+1043133868+1046510080+1049545951+1051322233+1053162607+1054936812
1288+1055925987+1057100021+1058966111+1060851686+1061667081+1060549326
1277+1058977683+1058926746+1058983816+1057023466+1054340992+1053257558
1265+1053264877+1052182729+1050272625+1050071842+1051902821+1054014696
1254+1055406623+1055958231+1056699841+1058134990+1059014675+1059527808
1242+1060192368+1059808013+1059023873+1059598526+1060887194+1061713468
1231+1062214040+1062501169+1062521544+1062488607+1062781077+1064099318
1219+1066132859+1067374644+1067344774+1067136178+1067788968+1069035798
1207+1069813805+1069738636+1069760000+1070609913+1071904910+1073149564
1196+1073741823+1073471805+1072608539+1071229174+1070262747+1070275111
1184+1069810245+1067994498+1065630309+1063686280+1062426098+1061207457
1173+1060357840+1060656739+1061171553+1060668114+1059032775+1057317222
1161+1056162278+1054962924+1053068447+1049958791+1046239567+1043220016
1150+1040454262+1037102777+1034066016+1031207091+1026797394+1021475174
1138+1016808316+1012313064+1006942280+1000312898+993270971+987273212+981744968
1124+975272453+968609343+962369755+955943924+949592076+943806573+938210874
1111+932160991+926180739+921316066+917405654+913841616+910838385+908837088
1097+907002253+904341440+901434940+899597137+899344329+899436313+898744356
1084+898383244+899394871+900872551+902034518+903285897+905119546+906890586
1070+907478295+907631899+908478449+909999154+912195299+914699442+917368761
1057+920524113+923908831+926199828+925771954+924439272+925741589+928250579
1043+928647891+928531081+930068996+931316715+930911590+930484704+930825936
1030+931293373+932113416+933198037+933629868+933568249+933897809+935535818
1016+938280900+940022960+940123253+940450044+941500443+942017235+941578876
1003+940501871+939385105+938920635+939006981+939160189+939136254+938879786
989+937910096+935679729+933012684+931044027+929712434+928057412+925382356
976+922339068+919843826+918050532+916622404+914935337+913027112+911551806
962+910673308+910186880+910037332+910381234+910933633+911099798+911159044
949+911409280+911751698+912890916+915020595+916863541+918092370+920066269
935+923210740+926493089+929092777+930678069+931469429+932330815+933850729
922+935340080+935880610+935678047+934921799+934018773+933723336+933454802
908+932396885+931005156+930147726+929793933+929236985+928140396+926280240
895+923521409+920635977+919280547+920042630+920984330+920477824+919702882
881+919847288+920208597+920424315+920931414+921923359+924341452+928891105
868+934102745+938793440+943652475+948740382+952693621+954444880+954985212
854+955918208+956520061+955793485+954351610+952791243+951868138+951910669
841+952319948+953662422+956741020+960742625+963860194+963881063+960810278
827+958126914+958073108+959034194+958660224+957547118+958785639+963022347
814+967481993+970275639+970937727+970309960+970715976+972066659+973099551
800+974891065+977264947+978760826+980298147+982486380+985226912+989412288
787+994121181+997737837+1000624654+1004160404+1009719607+1016499626+1021624920
773+1024863156+1028669517+1032347200+1033951778+1035043718+1037003870
762+1038942855+1039031971+1037624218+1037818275+1039432843+1040180090
750+1040136670+1041306846+1045032499+1046970099+1043033378+1038031916
739+1036857190+1038331309+1039563302+1039191212+1038761162+1038821495
727+1037870399+1036297175+1033908259+1030231862+1027400928+1027457998
716+1029787173+1031037366+1029302229+1026709860+1025770238+1026124030
704+1024839121+1020604787+1015896190+1014281721+1015943765+1016731663
692+1014857166+1013085235+1012034935+1010388618+1010741421+1014557673
681+1017787007+1018918016+1018153460+1013968481+1011286205+1013288194
669+1013037463+1010654086+1014616820+1019108512+1019438468+1019262808
658+1021966448+1023538882+1021610579+1021541046+1024353287+1027247621
646+1030325528+1029831682+1023270446+1017035210+1015029463+1013715969
635+1013477206+1018047036+1022693419+1019897498+1011381354+1002902398+997077629
621+996863692+1002734651+1006386716+1002894881+998533055+998431081+1001218298
608+1003540550+1003858242+1004047056+1005280533+1003749245
##END=
