##TITLE=Sample description
##JCAMP-DX=4.24
##DATA TYPE=INFRARED SPECTRUM
##DATE=24/8/2023
##SAMPLING PROCEDURE=Instrument type and / or accessory
##ORIGIN=Default
##XUNITS=1/CM
##YUNITS=ABSORBANCE
##RESOLUTION=4
##FIRSTX=4397.6552
##LASTX=599.8556
##DELTAX=-1.9287962
##MAXY=1.439653
##MINY=0.53719956
##XFACTOR=1
##YFACTOR=1.3407814e-009
##NPOINTS=1970
##FIRSTY=0.67440188
##XYDATA=(X++(Y..Y))
4398+502991682+502901438+502625594+502117427+502063191+502595008+502890902
4384+502832710+502631551+502587629+503689228+505095922+504734991+502735264
4371+500858990+500505527+501374403+502311118+502676450+502184154+501568317
4357+501963612+502879833+502676895+501367957+500870282+501596457+501576274
4344+500283518+499688842+499806781+499332267+499251181+499619091+498881492
4330+497543347+496848379+496862472+497000194+496563778+496587694+498581775
4317+500471386+499681818+497490845+496181108+496491582+497521386+497925972
4303+498019906+498327847+498244449+497906145+497754109+497501026+497355168
4290+497463194+496820373+495171531+494192362+494775169+495734600+496288022
4276+497073767+498445031+499091498+497745040+495756828+495394918+496137364
4263+495958076+495640222+496598008+497541124+497174858+495890771+495054214
4249+495343395+495781500+495735534+494942898+493313039+492297505+492780644
4236+493623469+493670103+492894004+492194414+492089099+492138845+492229667
4222+492622739+493654765+495440574+496871629+496691675+495323656+494013785
4209+492715028+491069076+490260259+490433767+490134228+489833711+490523122
4195+491046004+490455017+489850160+490412829+491244540+490954559+490014600
4182+489159371+488163798+487660166+488679833+490114490+490064523+488708552
4168+487536536+487040994+486700645+487051619+488411013+489135277+488891396
4155+488877170+488850852+487997847+486452586+485228335+485039934+485472527
4141+485961045+486046799+485608782+485301375+485227757+485118175+485128756
4128+485094036+485271857+486163494+486996895+486772707+485415358+483525080
4114+482193204+482321768+483372155+483764694+483438748+483373488+483194067
4101+482556002+482174933+482469181+483013846+483267685+483438526+483498496
4087+482904397+482400809+483182420+484345723+484028446+482399698+480970643
4074+480468122+480708357+481183316+481546115+481582568+481140817+480398505
4060+479700025+479093435+478724190+479096547+479979515+480444383+480346981
4047+480346003+480412419+480085274+479886248+480191744+480176318+479104726
4033+477738042+477497761+478141161+478295198+477771472+477420987+477750133
4020+478320938+478231672+477674471+477733996+478371839+478630523+478332185
4006+478294753+478618920+478402735+477701811+477443437+477858293+478302666
3993+478616876+478825504+478149741+477000042+476531751+476597011+476555846
3979+476788257+477931644+478667599+477982723+477161058+476637021+475822913
3966+475645137+476941494+477732485+476555001+475133814+474808847+475085891
3952+475978284+477964852+479088189+478552327+477949159+476442885+474387056
3939+473995584+475539956+478008596+478891119+476623373+474250668+473888759
3925+473840125+473366499+473858440+475085891+475008406+473017349+471601407
3912+471941578+473311464+475380496+477225607+477249613+475524086+473158049
3898+471589938+472133802+473294571+471770915+469524952+471414696+473931747
3885+473227799+472241606+470570092+468532223+469246796+470649667+471375753
3871+471204779+469752073+469591279+469487209+468414284+468930764+470782455
3858+472746305+472642503+466573929+462205810+464388381+467501797+469723222
3844+470225743+469544290+468614466+465944222+463721153+464057901+464480180
3831+464863162+465749775+466162275+466774600+466072520+462110543+461882577
3817+464215361+464314985+465629569+467936658+468253801+465687760+464230743
3804+465455482+464501252+463460424+464900860+465435522+465797609+466911033
3790+467385947+467026438+466451900+466296351+466821722+466324447+464881477
3777+465583780+467626627+468490969+467493707+466708184+467674017+468455449
3763+468984821+469537710+468500438+467391237+469101961+472220979+471682938
3750+468853679+471428477+474442536+473109504+474195366+479366078+485008682
3736+487159823+483546863+480792422+483078528+487009031+488826091+487985399
3723+485641990+482641178+480898936+481564119+484032180+485814565+485397576
3709+486599955+490353970+494764500+498994674+503700564+509511920+515341902
3696+520804107+525528801+527608813+526447333+527196003+531208525+534835754
3682+536798583+537217662+536641879+532815890+527529461+527136299+527035164
3669+526383762+528633104+531223240+532710265+534459086+537095099+539709996
3655+543335002+549027307+553814683+553638863+551818646+552727843+554521787
3642+555920790+556293325+555902786+556213350+558416681+561851019+561184192
3628+552759673+548524164+550183808+551755253+549361877+543887891+541683716
3615+541776938+540941626+540917753+540989193+538870371+537229842+537052689
3601+536527762+536336694+537884267+539023208+538224838+538075735+538409816
3588+534727817+528825017+526440576+526321970+525981043+525045529+524255739
3574+524005723+524961420+528332410+532022943+529488422+523784158+522079970
3561+522519587+521801192+520937384+521630350+522519098+523164542+525576901
3547+528154056+526625732+522335720+520176756+521352906+523375660+523948865
3534+523875469+524514423+526042036+528511653+530174231+528010154+523940418
3520+522389911+522619478+522214225+521645154+522259035+523589756+524048400
3507+524711626+526824002+527750892+525852168+523576019+522849844+523258387
3493+523419626+522933331+522527589+522624457+523256787+524567014+525488969
3480+524697979+523181569+522086816+520946363+519888286+520422948+522590804
3466+524079118+523699560+522556663+521597365+521108358+520980327+520503679
3453+519907491+520613305+522654775+524309529+524118194+522123892+520527729
3439+521140499+522431121+522711144+521787944+520087001+519243953+519708776
3426+520228146+520429483+520245972+519765679+519845654+520464381+520781213
3412+520384006+519296722+518457675+518885600+519812979+520060683+519660187
3399+518839634+517834769+517268099+517207818+517353498+517966223+518873508
3385+519287608+519186028+518741654+517686600+516591359+516471152+517278680
3372+518237933+518513644+518036551+517741325+517765419+517063561+515667180
3358+515411919+516523920+516624744+515420188+514736778+514759006+514779233
3345+514583719+514251417+514237058+514724375+515082640+514860141+514182556
3331+513088515+512322597+512948703+513802509+513160888+512062312+511987583
3318+512099876+511121285+509677915+509290844+510022265+510165455+509004775
3304+508191290+508313675+508352618+508241436+507969459+507078355+505909585
3291+505325844+505217463+505012435+505353451+506582725+507635823+507627732
3277+506529023+505285835+505325800+506276118+506563209+505799647+504341785
3264+503217425+503311937+503911992+503762179+502751891+502158681+502292224
3250+501795082+500342288+499245802+499058645+499127462+499141821+499192233
3237+499493150+499775396+499623315+499090431+498496732+498380971+498248228
3223+497582245+497219002+497660397+497803454+496916974+496407118+497125691
3210+498086189+497901655+496526035+496046097+497480843+498244138+496349993
3196+494301055+494315680+495200960+494844697+493304370+493034127+494487366
3183+495126498+493654588+493039951+495358065+497042515+495381270+493437157
3169+495166908+498565504+498442675+495208118+494612507+498081299+499490972
3156+495831423+492408821+494909868+500099918+499205747+493318551+492755304
3142+500297833+504674621+498715585+492185478+494765744+501579653+500582435
3129+492835057+490563887+498401465+505535673+500470719+491301532+492188145
3115+502956429+507611639+498227156+489520080+494045393+504889650+504274658
3102+492288703+486787733+494703818+504387752+500495703+489308207+487854435
3088+498802450+506633448+498394530+486399640+485107328+492440295+496014534
3075+489891592+483669649+485987363+494276871+496364796+488127700+481111610
3061+482542888+489037831+490652442+484537013+479256763+479713229+483277287
3047+483783187+480215172+477592584+477848424+479017550+478948111+477406095
3034+475926894+476158417+477896435+478521608+477036717+476557046+484308736
3020+515378889+574551768+621320326+610892035+571359933+539639934+520561826
3007+507828847+497950245+491126290+487479322+485137602+481989822+479057826
2993+478510139+481738072+485672531+483738332+477782630+475362625+479748037
2980+486910429+487273495+480522846+475812022+477112958+482743825+485889872
2966+481835740+476310720+476268221+484613343+493320596+489334302+478870892
2953+475079312+480913340+490255324+490322629+480874486+474158957+476117073
2939+484824016+489576272+483494006+475936985+475356001+482459179+490573712
2926+488098449+478083458+472679445+475727424+483236477+484603740+476937271
2912+470403563+470652201+475904666+479840859+477101577+471970696+470446596
2899+473876578+479537586+480433447+475167644+470463667+470520703+474361539
2885+476952786+474576747+470809039+469905310+471975409+474441692+473880268
2872+470772363+468637182+469040835+471319162+472881094+471494537+468969529
2858+468003385+468572144+469221012+468443491+466401977+464917708+465004084
2845+466068519+466833103+466800917+466357833+466074609+466544722+467528337
2831+468006230+467643921+467100101+467084853+467508821+467538428+466714897
2818+465512474+464826931+465065033+465505183+465453615+465270460+465365149
2804+465529767+465436811+465077880+464784743+464762826+464732819+464714637
2791+465145630+465664599+465495403+464834488+464592919+465030758+465435344
2777+465265970+464923221+465006307+465341544+465418362+465210845+464979145
2764+464886189+465048451+465474287+465820859+465815080+465749864+465870204
2750+465939154+465856156+465879273+466191037+466617718+466593178+465940088
2737+465486556+465814947+466359656+466613850+466907521+467375989+467543674
2723+467376701+467330823+467451252+467523625+467570836+467635607+467537450
2710+467377812+467534294+467868508+468119502+468316260+468447803+468597839
2696+468837141+469072042+469075243+468927208+469260266+470037119+470491584
2683+470392850+470040276+469895663+470232455+470740400+471035449+471153522
2669+471238876+471316183+471345924+471440835+471860759+472435342+472730657
2656+472874025+473260252+473753437+474052576+474351626+474870017+475375472
2642+475632957+475770856+475890130+475955568+476203049+476696102+477108423
2629+477411296+477799167+478316536+478894098+479466991+479988895+480350004
2615+480676394+481163800+481636136+482018584+482395208+482721509+483066970
2602+483493873+483908551+484189907+484416851+484790052+485119642+485249140
2588+485447188+485836037+486312997+486829832+487416640+487945034+488254620
2575+488580209+489131809+489737333+490097997+490146142+490305470+490851201
2561+491540345+492162939+492571793+492757038+492973268+493384700+493952126
2548+494420061+494682346+494971172+495312809+495585764+495840492+496216094
2534+496810104+497459949+497872582+498158917+498540031+498689223+498565238
2521+498810763+499427712+499863195+500139128+500450136+500667211+500716067
2507+500682459+500758033+501072553+501453800+501709462+501978060+502456664
2494+502820485+502595053+502018247+501754273+502023537+502523080+503025601
2480+503423608+503598495+503660243+503774137+503926040+504007482+504113419
2467+504325914+504227891+503704654+503377553+503510296+503730971+503731282
2453+503524477+503337009+503257879+503235429+503401025+503612276+503407693
2440+502912818+502667337+502648221+502483915+502098311+501545689+501021118
2426+500870015+501042768+501070108+500736961+500275116+499861505+499477324
2413+499125639+498928747+498873134+498606047+498028353+497442523+496968186
2399+496572180+496473889+497183305+499368453+504003570+512382922+525471454
2386+543025728+563546583+584980503+605414227+624143717+642063857+660105315
2372+678355535+696617224+714226222+730569760+744334899+753025882+756482181
2359+755111718+746693245+731367196+712707678+694948822+684958637+687867960
2345+697976307+699440171+690282986+680754646+673966522+671338777+674866338
2332+680757536+681717189+678068710+677186498+680951849+682853552+677460697
2318+666530863+656196196+652953548+656494934+657976358+651428780+638623517
2305+623710368+611195308+602742427+595885620+588292057+579477088+569472544
2291+558915112+549108304+540622393+533169309+526834004+521798524+517715585
2278+514157794+511100258+508661581+506608776+504679155+502978879+501704616
2264+500765946+499901159+499137109+498536920+497812701+496946536+496422099
2251+496291356+496111980+495845338+495642311+495371846+495041455+494923560
2237+495138723+495484984+495716862+495877790+496143987+496446905+496771694
2224+497369883+498179900+498850906+499349649+499969443+500748430+501302608
2210+501555202+501911644+502620392+503553328+504473017+505328111+506183784
2197+506954948+507547446+508149325+508894037+509672447+510563773+511621361
2183+512445160+512794044+513134215+513840963+514757094+515771072+516785361
2170+517658149+518351205+518919475+519572655+520237837+520588766+520728755
2156+521029628+521487072+521753002+521722106+521647243+521559889+521254393
2143+520927292+520892395+520983039+520679410+519676769+518406640+517394752
2129+516538413+515499807+514226567+512843522+511329869+509773716+508414366
2116+507252042+505931946+504194060+502358151+500731582+499190366+497650617
2102+496194444+494738315+493133884+491535810+490149032+488994843+487881997
2089+486489439+484785562+483130674+481931452+481082314+480043086+478595048
2075+477056188+475819890+474944835+474287121+473768685+473217619+472297886
2062+471091285+470028184+469229369+468642117+468259180+468029969+467873220
2048+467795157+467873398+468237575+468811980+469101872+469144949+469489299
2035+470193735+471043184+471847645+472544701+473214596+473915343+474621646
2021+475441888+476467691+476931047+476152726+474886377+473990383+473355786
2008+472491400+471292044+469997777+468671813+467185677+465615210+464411675
1994+463749249+462798442+460976936+458961073+457144146+455481346+453976850
1981+452510585+451115094+449809979+448516334+447283059+446390044+445944737
1967+445230253+443767234+442314795+441392173+440718944+440084036+439428767
1954+438657914+437860656+437186271+436615956+436383633+436663434+436563899
1940+435629540+434832370+434645259+434755374+434711363+434447211+434174790
1927+434155274+434746527+435577528+435904362+435792246+435645233+435704314
1913+435764862+435702758+435682042+435615315+435628696+435993450+436333977
1900+436401237+436741097+437339997+437545913+437497412+437263890+436805112
1886+436692863+436757857+436936877+437592680+437975928+437598014+437515906
1873+438584919+440054651+440326005+439691852+440096572+441387817+442300836
1859+442297591+441956576+441993162+442546807+443866414+445988970+447752595
1846+448212172+447686934+446959915+446360437+445914063+446047739+446702742
1832+446384709+444111317+442079139+441859086+441585998+440436209+439481535
1819+439019513+437764810+435619182+433884409+432140211+430008275+428231180
1805+427539324+428050559+427099529+423449450+420670558+419377491+417686106
1792+415544301+413945871+413442061+413510166+412754206+411278295+410029639
1778+408765912+407272486+405327928+403154338+403360832+405054973+405003050
1765+404024014+403404931+403078675+403289615+403199726+402982030+404047931
1751+405106052+404008099+402862045+403235379+403226355+401892300+400661559
1738+400914554+401755467+401898168+402188372+402668043+402515473+402776691
1724+403725053+404383300+404540716+404406462+404590639+405418305+406111095
1711+406729199+407241678+407195711+407331878+408502160+408755598+407102578
1697+406782501+408068855+410040797+412445865+414791053+416264208+416109681
1684+415950488+418727601+421323960+422284591+422363010+422735367+423854836
1670+425121986+426954783+429468189+431470494+433091462+435697379+438882235
1657+441305797+441398130+439013822+440884984+444478872+446487356+448328022
1643+451267397+454121551+456113320+456395833+455578791+457729443+461441048
1630+464145878+465943733+467791556+469885972+472443121+474743765+475458114
1616+476087822+479530829+483605722+486441072+488546246+490908993+493466053
1603+495933715+498435562+501177778+504002236+506823716+509999459+513437710
1589+516857867+520461580+524507310+528778962+532722001+535887386+538021944
1576+540587896+545224124+549753660+553618147+558431084+564101339+569532426
1562+574128511+577409657+581689666+590084533+599175746+608058553+616131298
1549+623131607+629813528+636442681+640116054+641226144+649876984+661158547
1535+669150206+676058892+683324376+690120280+696591573+702330823+706485424
1522+711938693+720882270+730539886+739180101+746703914+754377141+761774745
1508+765330802+765385393+772088964+781018760+787487963+791550986+796934683
1495+804819517+812081889+817738007+822434072+828123176+834348587+839642574
1481+844113695+848520891+853306666+857726486+860024373+861787465+866931549
1468+873086187+877328543+880892246+885863488+890882920+894018253+897527098
1454+904738614+911559457+915988435+919295188+923843039+929339208+935010797
1441+940799391+944730027+946037898+949492152+956179808+962141156+967267102
1427+972680051+976679236+980055072+984490985+987336471+988201301+991257860
1414+995771036+999886961+1002401523+1002118699+1000341471+1000619049+1003665027
1400+1005501914+1003670273+1000148358+999019552+1002769434+1006690734
1389+1005975628+1002572408+1002056106+1004648375+1007249091+1009053081
1377+1009885104+1009515415+1010609634+1013006478+1013575237+1013901183
1366+1014894400+1013326644+1010817773+1011006974+1011773203+1012051759
1354+1012470349+1012263455+1010464621+1008025900+1007381123+1009053970
1342+1009508924+1005938464+1001884687+1001165758+1002352000+1003178332
1331+1002869725+1002381874+1002601927+1003494942+1004423166+1005427941
1319+1007879109+1011819525+1015613239+1017866493+1018782270+1021943743
1308+1030351457+1039931810+1044452010+1044522605+1043571087+1042725194
1296+1042975743+1045541606+1049058720+1051155759+1052489236+1054734577
1285+1057729343+1060450532+1062302356+1063662506+1064626027+1064407752
1273+1063541765+1063488064+1063305086+1061442415+1059158843+1057958642
1261+1057586108+1058111035+1059569342+1060421814+1059901422+1059257533
1250+1059610507+1060374869+1060605325+1060883703+1061921553+1063940350
1238+1066242683+1066794816+1065620488+1064288523+1063047068+1061788899
1227+1060833468+1060695302+1061432190+1062287863+1062924017+1064046242
1215+1065518775+1066327503+1066326970+1066088868+1066946852+1069431362
1204+1071719647+1072358734+1071943256+1070837301+1069102661+1068534968
1192+1070050711+1071810069+1072318280+1072063196+1072452001+1073542931
1180+1073398540+1071444469+1070034974+1071170270+1073454198+1073741823
1169+1072138503+1070457387+1068277840+1066919290+1067795768+1067750424
1157+1065437600+1063638055+1062934775+1061640418+1059815445+1058184208
1146+1056410358+1054246815+1051543586+1048366376+1045263495+1042397560
1134+1039066802+1035023427+1031417403+1028964901+1027116189+1024789495
1123+1021412592+1017647507+1013701045+1009146526+1004628548+1000740145
1111+997344038+994201592+989952390+983765210+977697704+974180323+972667159
1097+970776392+968347184+966630504+965120096+962781577+959953962+957535157
1084+955270345+952796504+950626470+948672844+946528060+944181095+942064585
1070+940935246+940315186+938889687+936598557+934763715+934891034+936496844
1057+936952598+934793944+931297546+928422542+926348443+924286257+922644884
1043+922354325+922605941+921727774+920481963+920259865+920600836+920751183
1030+920066396+918987736+919139061+920606081+921515278+920661117+919389611
1016+919325151+920044079+920883570+921649711+921418010+920604036+921203470
1003+923049159+924262518+924513778+924849859+925574834+926279448+926528575
989+925846455+924769662+924055001+923619607+923150694+921732308+918991114
976+916056452+913756876+912075582+910928283+909824906+908135610+906146420
962+904516249+903365216+902257483+900875194+899645653+899293213+900204188
949+901861921+903144363+904128244+905905206+908490273+911172164+913030745
935+913851565+915881743+919862436+923169810+924954596+926662563+928755423
922+930959065+933696702+936548856+937833432+937509710+937199680+937996494
908+939280092+939724999+939315656+938496614+936944240+934635150+932919448
895+932828760+933162351+932714421+932208432+932005717+931353915+930659437
881+931187209+932707753+934000509+935331496+936939706+937498507+937722917
868+939718864+943183610+946583096+949597511+953367575+958164820+962847192
854+967160321+970631824+971970191+972328232+973951379+976130926+977516594
841+979277551+982321129+984684810+984506722+983296208+983286784+984282224
827+986281995+990656737+996443821+1001625780+1005610741+1008121746+1010408163
814+1012975359+1014292299+1014760679+1015993687+1019308352+1024122401
802+1027095651+1027678991+1028204896+1029726951+1032742078+1036215092
791+1038631230+1040948944+1043511695+1045683596+1047916578+1049731238
779+1049678959+1048148279+1047880303+1050525118+1054491229+1056766088
768+1056495356+1055565888+1054819753+1055199400+1057732543+1059862123
756+1059970505+1060054614+1061463220+1062918148+1062460527+1061156835
745+1059851632+1055701476+1049594138+1046894732+1048161704+1050376727
733+1052990690+1055669557+1055327786+1049997169+1044157717+1043905567
721+1048020159+1050083678+1048757136+1048182776+1050054249+1052294255
710+1050337784+1043114710+1037098594+1035469935+1034373760+1032872865
698+1034817956+1040860034+1046502282+1048449240+1046907002+1044158784
687+1042189687+1039141486+1034497879+1032895359+1035578850+1039908160
675+1045054911+1049496337+1049771514+1044683444+1042383067+1047031921
664+1049857757+1050754773+1050453012+1047579164+1045611312+1044115129
652+1038728853+1033358937+1037116643+1046325262+1045027082+1030463129
640+1017563398+1015058795+1016259884+1016400007+1020281475+1028465581
629+1034527219+1036265238+1032476858+1020669035+1009425260+1000339159+987242137
615+984236613+1006086855+1039505129+1051630718+1041195670+1033067401+1028214765
602+1019425180+1009414590
##END=
