##TITLE=Sample description
##JCAMP-DX=4.24
##DATA TYPE=INFRARED SPECTRUM
##DATE=24/8/2023
##SAMPLING PROCEDURE=Instrument type and / or accessory
##ORIGIN=Default
##XUNITS=1/CM
##YUNITS=ABSORBANCE
##RESOLUTION=4
##FIRSTX=4397.6552
##LASTX=599.8556
##DELTAX=-1.9287962
##MAXY=1.4410974
##MINY=0.52894151
##XFACTOR=1
##YFACTOR=1.3421265e-009
##NPOINTS=1970
##FIRSTY=0.66727096
##XYDATA=(X++(Y..Y))
4398+497174407+497242000+498211217+498665405+498053737+497565176+498002487
4384+498386106+498195141+498117733+497852557+496847146+495661294+495200889
4371+495877573+496551327+495370449+493152983+492299900+492888474+493645808
4357+494229407+494742483+495051092+495233975+495418945+495305565+494506974
4344+493026901+491905179+492045250+492762436+492921160+492541938+492635733
4330+493155559+493113147+492204639+491032688+490814499+492039965+493992388
4317+495034971+493942026+492021312+490907361+490441050+490329624+490449443
4303+490440828+490222239+490060540+490525386+491344228+491654170+491886704
4290+492298523+492189318+491299906+489916205+488677194+487632435+486784059
4276+486989946+488216034+489424846+490017151+489841995+489279446+488905909
4263+488594590+488387370+488456029+488077118+487312501+487241088+487439737
4249+486693328+485777848+486265032+487602191+488006372+487010242+485365407
4236+483672031+482382702+482071739+483144255+484938132+485881236+485902375
4222+486207210+486991856+487254278+486117811+484606962+484203892+484466181
4209+484607318+484167209+482718535+481423877+481521847+482633400+483922417
4195+484098461+482910255+482187118+482658847+482911321+482028350+480928610
4182+480912001+482207191+483819474+484510458+483786788+482407217+482363961
4168+483380697+482963504+481637004+480999312+480820959+481064196+481529175
4155+481637403+481470419+481202579+480677379+479882740+479045423+478391210
4141+478398893+479221156+480167723+480369836+479395823+478279029+478380685
4128+478890563+478583864+478297016+478992930+479805066+479814837+479326009
4114+478556107+477532887+477011862+477491807+478037258+477876758+477569170
4101+477296445+476970649+477004090+476722304+475176904+473557516+473756698
4087+475442258+476463302+476187690+475664400+474728668+473333376+473130864
4074+474384664+475319462+475279360+474915770+474287538+473568841+473196991
4060+472925154+472654738+472463639+472553792+473164838+473554363+473221372
4047+472630267+472309268+472630001+473213601+473315390+472757237+471983605
4033+471611666+471611177+471681790+471677838+471478345+471481010+472017890
4020+472870706+473431301+472900994+471599231+470669228+470397746+470538972
4006+471024380+471385749+471111070+470491453+469986504+469947556+470621842
3993+471559661+471635115+470476708+469460860+469406679+469629754+469866462
3979+470776036+472013493+471654478+470145672+469549682+469215048+468459401
3966+468433732+469440343+469934100+469274291+468880858+468774406+468168512
3952+468498660+470307726+470960740+470467382+470636320+469931790+468433732
3939+468079424+468507498+469327895+469904123+468961730+468020447+468722579
3925+469356762+468984423+469433726+470276994+468914166+465933904+464630364
3912+465260062+466465765+468247430+469654135+468669863+466439607+464464401
3898+463222192+464238263+466320276+465747157+463627217+464787711+466505291
3885+465747424+465119591+463777192+462398598+463467028+464211128+463515391
3871+461645971+459494988+460852310+462593960+460866610+459502494+461203820
3858+464310252+464914947+457764663+452722061+456141455+460094221+461977497
3844+462357696+462390293+461430402+458182033+456248574+457155927+458055374
3831+458707677+459504670+459978398+461545071+462716667+459538244+457349512
3817+457324731+456126578+457115868+459899702+461516293+460473931+459346169
3804+459267384+456473957+455076134+457156593+457709860+457524934+458495883
3790+459636259+460288917+460030181+459597266+460203382+459951174+458652963
3777+459115900+460245972+460356421+459336842+458608775+459348478+460026228
3763+461005038+462560119+462420181+461495197+462649784+464136074+461708235
3750+458964282+462123607+465104358+464684367+467491739+473394707+478521689
3736+479641413+475266658+472371309+475305207+480452884+483192218+481785912
3723+478229289+475078713+474051540+475281180+477808721+479159336+477698449
3709+477947016+481587708+486573153+491732155+496758591+501944683+507475935
3696+513236567+518510104+521448531+520387962+519999413+523547554+527375259
3682+529468464+529975100+529467531+525153352+519288622+519203087+519425140
3669+518221435+519976853+523111975+525897852+528529490+531091982+533044938
3655+536100476+541701897+546450100+545971754+544122363+545513570+548148584
3642+550064857+550379417+549745811+548866703+548611165+549678529+548087608
3628+540970054+538055253+540015981+541852093+540367935+536253471+534707760
3615+534615475+533696175+533856320+533900864+531922505+530651385+530793587
3601+530589343+530035321+529821572+528753098+527275024+528370989+530802159
3588+528876737+523781997+522099413+522605472+522150396+520784415+519821593
3574+519056976+519232487+522360103+525813116+522701843+517374569+515993222
3561+515645975+514766379+514929632+515616309+515126682+514710288+517007915
3547+520364690+520039427+516543780+514066512+513892689+514961386+515508480
3534+515246857+515111449+515886370+518430831+521304730+520953664+517817254
3520+515709882+515294154+514907693+514057275+513818035+514712820+515646819
3507+517097269+519733616+520801602+518853753+516585837+515705885+515966931
3493+516613505+516277938+514830685+514025610+514501603+515455631+515516785
3480+514194726+513245094+513531986+513970497+513728770+513096363+513015447
3466+513745468+514508087+515122907+515693228+515219367+513799427+512964019
3453+512784689+513025483+514012642+515042568+515356685+515104122+514985856
3439+515269285+514965294+513861691+513002479+512596211+512262332+512592347
3426+513980089+514808080+513715713+512089352+511689213+512244301+513088058
3412+513866087+513640393+512654699+512194783+512031352+511727184+511649243
3399+511494561+511038331+511068353+511271886+510325097+509064768+508933846
3385+509323993+509410771+509449453+509755975+510006895+509705347+509306495
3372+509560568+509913588+509594542+508970218+508716811+508924031+508836764
3358+508274038+508469711+509403532+509072673+507560493+507158443+507568264
3345+507116742+506303184+505998261+505869470+505262866+504653064+505032686
3331+506022243+506818658+507278041+507100710+505965530+504598128+503931747
3318+503899593+504133771+504497671+504683840+504417243+504023233+503769026
3304+503277268+502443015+502031151+502308006+502204929+501118024+499996213
3291+499981335+500597443+500895216+501012327+500674496+499611839+498684146
3277+498713146+499291150+499175105+498565436+498679083+499324325+499494639
3264+498743612+497395084+496501631+496167708+495383506+494365393+493806485
3250+493864619+494446664+494841430+494919992+495398428+495845376+495199157
3237+494027828+493383030+492966148+491967664+491144958+491815025+492363363
3223+491339920+490477422+490570462+490453796+490070932+490182713+490663192
3210+491102457+490964518+490015197+489070361+488934154+489080798+488723692
3196+488770234+489905769+490725855+489273762+486688843+486397776+488441196
3183+489515133+487742306+486178254+487724764+489233437+487652819+485744096
3169+487443512+490593112+490297737+487360642+486980576+490430436+491820132
3156+487937447+484779231+488261111+493668413+492243365+486469898+485915388
3142+492561301+496280822+490569396+484557489+487691145+495385771+495222784
3129+487616536+485137891+492689914+499493529+494477618+485597719+486311575
3115+496174370+500147209+491271661+483286902+487415933+496998586+496179566
3102+485572760+481089954+488851062+498159967+494133658+482353036+479680805
3088+489898086+498399696+491321357+479903880+478853569+486509113+490315190
3075+483731852+476592137+478331611+486402883+488631496+481098436+474874291
3061+476716398+483169702+484603987+478542118+473201432+473015352+475758284
3047+476302358+473886999+472408126+472957485+473916532+473461323+471570453
3034+470144562+470360619+471264641+470804770+469230902+469294720+476809083
3020+506421316+562984211+607438867+597709526+560293640+529703440+510674564
3007+497931342+488693848+482918782+480093691+478095924+475116772+472303716
2993+471589194+474496800+478491312+477072704+471573251+469044111+472481181
2980+478612819+479169639+473342969+468987888+470303596+476122628+479259882
2966+474866030+469131112+469237475+477692410+486295764+482510649+472312110
2953+468131607+473042442+481888634+482552040+474126105+468165536+470326956
2939+478566144+482746469+476548171+469158735+468532768+475085463+482606665
2926+480203873+470659591+465733079+469330160+477076079+478012299+469675053
2912+462919312+463455082+468906305+472999764+470853977+466358291+464799213
2899+467347138+471925071+472457999+467496580+463118272+463367060+467271373
2885+469781549+467214839+463252258+462527788+465009275+467428054+466576880
2872+463631703+461944988+462520949+464423766+465513779+464389614+462466946
2858+461603515+462163888+462995032+462068894+459644697+458180568+458608908
2845+459909561+460555958+459868837+458819548+458657671+459386804+460144671
2831+460350603+460088847+459871635+460082052+460490363+460571368+460129794
2818+459496454+459135618+459049328+458872441+458570404+458535542+458979870
2804+459532382+459597666+459068913+458401599+458095122+458152722+458266813
2791+458394583+458533099+458585770+458520975+458351904+458295680+458457379
2777+458650476+458826254+459085700+459367708+459315703+458913609+458861738
2764+459406167+459900502+459939272+459721127+459484730+459291321+459157113
2750+459208229+459483930+459801155+460186950+460626926+460728271+460527313
2737+460458077+460505063+460401054+460290560+460616623+461174375+461242501
2723+460816870+460466382+460521717+460901161+461371247+461789995+461773163
2710+461316667+461283226+461759396+461857499+461554752+461663647+462313596
2696+462844969+462895730+462737806+462829914+463272821+463635700+463649645
2683+463635122+463837901+464134164+464444150+464645064+464614420+464652214
2669+464908863+465042672+465009941+465016248+465172617+465668506+466358780
2656+466789163+466913468+467070504+467368588+467727248+468252359+468854345
2642+469364623+469753260+469868727+469926506+470259629+470749878+471253050
2629+471675750+471943946+472269120+472803113+473268581+473643495+474198006
2615+474734530+475102739+475485336+475860561+476198437+476628554+477110453
2602+477565884+478116620+478741877+479211785+479389250+479413720+479609971
2588+479941496+480186864+480543703+481142403+481666936+482060947+482570426
2575+483004051+483218021+483517837+483905630+484318827+485013408+485763725
2561+485992440+485861651+486007540+486585322+487254722+487678577+487928653
2548+488281185+488747674+489212164+489663731+490155312+490715019+491274282
2534+491630943+491656790+491563039+491760311+492505521+493490637+494035111
2521+493922219+493633151+493753414+494231850+494543657+494550807+494686659
2507+495247609+495909771+496292591+496310000+496138708+496292058+496818323
2494+497248884+497506066+497539285+497308572+497266115+497552386+497834171
2480+497936493+497782788+497542394+497590490+497995471+498531951+498818266
2467+498666160+498480656+498609136+498669357+498290446+497933962+498051739
2453+498249544+498184527+498110316+498168405+498161211+497958210+497715639
2440+497593066+497470138+497287299+497137458+496935256+496634641+496294944
2426+495871845+495564745+495654766+495832452+495594145+495024712+494436450
2413+493895218+493541576+493423533+493253840+492879725+492372334+491867785
2399+491575474+491612646+492240123+494284743+498888124+507258412+520342219
2386+538022745+558881560+580686987+601442903+620314744+637816073+655333257
2372+673601247+692134590+710013720+726014948+738131137+745756837+750775057
2359+751830431+744265085+728162334+708482398+690142153+679916656+683116751
2345+693913590+695791936+686726178+677519727+671399369+669050226+672224429
2332+677591317+678076592+674068180+672840493+676429225+678414423+673144040
2318+662458672+652367562+648855172+651670360+653013603+647051702+634413999
2305+619365334+607125017+599100777+592434879+584754510+575568799+565140835
2291+554477583+544767249+536285047+528812031+522608003+517835507+513957840
2278+510433858+507172566+504247240+501750076+499777979+498231824+496897063
2264+495781824+494984876+494345763+493632440+492899443+492248961+491659277
2251+491232891+490941069+490545592+490213712+490253237+490399748+490348765
2237+490289210+490400059+490682466+491071680+491380645+491640847+492049602
2224+492568584+493127003+493803110+494604677+495395763+496113038+496695572
2210+496996943+497198478+497681665+498478569+499254511+499769896+500425130
2197+501621419+502872687+503704675+504351915+505065150+505879995+506696307
2183+507258412+507656153+508391370+509633046+510939073+511796953+512149573
2170+512327748+512721937+513522216+514579455+515478858+515919500+516124766
2156+516413213+516722533+516910612+516865046+516604134+516232817+515775388
2143+515401006+515162788+514927678+514625464+514103640+513313708+512276765
2129+510923752+509509541+508469089+507599929+506264192+504464008+502787241
2116+501344563+499646746+497756275+496221800+494858173+493249443+491579382
2102+490119606+488787332+487328178+485729440+484289960+483199857+482157229
2089+480723655+478962686+477248792+475775959+474596769+473643406+472612459
2075+471412973+470200164+468989309+468055576+467686568+467315828+466305398
2062+465024641+463908647+462991035+462430796+462171837+461972567+461754022
2048+461587083+461591213+461860741+462339221+462582058+462544131+462751573
2035+463340991+464097570+464849797+465660956+466579323+467392614+467988471
2021+468663335+469550259+469803977+468932952+467837253+467102036+466472693
2008+465666285+464557220+463219084+461864649+460554314+459196061+457954474
1994+457079585+456008135+454165539+452082237+450120666+448322791+446808834
1981+445409101+443960516+442586763+441575533+440856792+440194275+439601304
1967+438639904+437011989+435489371+434552618+433891922+433217769+432452796
1954+431690577+431027971+430418835+429929431+429832926+430104275+429891504
1940+428869838+427948585+427580554+427546047+427456782+427240635+427222560
1927+427587748+428209852+428659909+428700500+428482711+428148210+427970523
1913+428004720+428195019+428544575+428757879+428791320+429084519+429663678
1900+430161876+430571963+430777939+430523600+430203044+429932717+429613849
1886+429622731+429793312+430135363+430878307+431206457+430816088+430841758
1873+431974628+433275148+433199738+432483307+433018987+434338115+435384873
1859+435756146+435675851+435653335+436027050+437211437+439269513+441023243
1846+441393894+440693494+439881091+439240069+438805111+439076105+439858086
1832+439497694+437094903+435161221+435143146+434753266+433372407+432437608
1819+432129088+431078377+429124444+427273010+425194150+422986100+421296454
1805+420541118+420910792+420029331+416808141+414486044+413341050+411384985
1792+408795580+407104869+406697180+406776586+406020362+404502408+403206196
1778+402100061+400803227+398782278+396325439+396440685+398252904+398292473
1765+397315351+396755600+396695202+397103291+396886967+396356482+397191979
1751+398357535+397533940+396274678+396497042+396604649+395342544+394107041
1738+394504027+395456102+395483681+395731092+396388369+396332856+396390323
1724+397023663+397606907+397803557+397601800+397875502+398866392+399450347
1711+399827126+400110111+400023998+400443012+401826758+401989656+400248494
1697+399873446+401150207+403406310+406118732+408474181+409605097+408912025
1684+408534890+411825183+414733056+415440961+415131685+415522543+416834166
1670+418295274+420496397+423300127+425410563+426908089+429194657+432209648
1657+434728129+435201502+433260803+434936992+437992219+439384625+441418675
1643+444948785+447709392+449138259+449174809+448646367+451055864+454930200
1630+457778608+459488904+461046739+463060094+465963215+468701661+469681936
1616+470404763+473889486+478003595+480800841+482801005+485113332+487753986
1603+490404544+493076330+495874820+498677795+501482191+504657682+508304148
1589+512201223+516047669+519715674+523326789+526947718+530292014+533038765
1576+536424807+541273778+545658792+549461494+553964951+559037042+564144794
1562+568771357+571996721+576168830+584657961+593585469+602261479+610484058
1549+618007924+625055575+631647840+635080425+635604781+644143607+656239722
1535+664732405+671735557+679480322+687046911+693880504+699491250+703376467
1522+708162287+716285296+725951175+735415829+743926854+752171593+759459106
1508+762650718+762898085+769438612+778137405+784847136+788877931+793589363
1495+801146182+808084095+813130116+817994764+824576149+830983888+835720900
1481+839777809+844392692+849175181+852362974+853480877+856488008+862942644
1468+869233672+874021046+878767385+883810297+887114002+887365455+889801909
1454+897606095+904997618+910811498+915932041+921669091+927971577+933862998
1441+938761487+941924943+944503600+950442719+958395147+963881899+966856077
1427+970772293+975539060+979507325+982443310+983974055+985648068+989575208
1414+993667379+996906244+1000142267+1002600304+1002964915+1002622776+1003711724
1400+1004736898+1004087704+1003147443+1003708171+1006333815+1008523968
1389+1006385775+999735021+995774040+997720645+1002003781+1005574571+1007574292
1375+1008897283+1010326417+1010985115+1010730908+1011280356+1012510708
1364+1011588033+1009656882+1009544346+1009955943+1010668201+1012027876
1352+1012440006+1011006432+1009387488+1008258570+1006543433+1004279203
1341+1002159485+1001306180+1001828892+1002602614+1003320378+1004298832
1329+1005370371+1005583187+1005138459+1005071488+1005880294+1007721557
1317+1010155702+1012414248+1014098831+1015684378+1019191483+1026275329
1306+1033511237+1036219840+1036356891+1037577383+1040014992+1042704675
1294+1045611971+1048944987+1051737792+1053294117+1054409533+1055451761
1283+1056090741+1056994230+1058623300+1059858448+1059519151+1058220140
1271+1058169779+1059123985+1058465198+1056284815+1054346648+1052855518
1260+1051611665+1051871734+1054287848+1056330914+1056161709+1055969322
1248+1056782925+1057012172+1057620153+1059845124+1061522602+1061058600
1236+1059336978+1057847180+1058083978+1059770337+1060497871+1059904635
1225+1060130685+1061896716+1063667189+1063996627+1063427195+1063414671
1213+1064627791+1066096716+1067207603+1069000636+1070298136+1069453180
1202+1068415393+1068726356+1069174282+1069756327+1071866275+1073741823
1190+1072764612+1070275664+1069316395+1070576235+1071951632+1071419149
1178+1068925582+1066424288+1065987377+1067255921+1068210927+1067464296
1167+1066059589+1065841355+1066118211+1065412526+1063988189+1062216739
1155+1059742003+1056929746+1055108290+1054957294+1055198443+1054145557
1144+1051304611+1047610093+1045341066+1044524533+1042528365+1039169769
1132+1035940852+1032545573+1028472055+1024400136+1021457578+1019635411
1121+1017065548+1012768556+1007122014+1000642241+994949779+990812576+987247560
1107+983587238+980036611+977216093+974500563+970856229+967428264+965275060
1094+963791213+962706795+961414713+958968666+956083664+953909766+952505946
1080+950991811+948336146+944784453+941940487+940858201+940746641+939921492
1067+937627063+934967223+933406457+932665511+931129881+928412041+926126938
1053+924897564+923707804+922104670+920652443+919795230+919014580+918733195
1040+919779509+920634946+920324160+920274776+920779546+920374166+919070005
1026+918181793+917818425+917768597+917936469+917629147+917095065+917232205
1013+918029287+919020087+919602932+919433550+919440656+920701295+922339691
999+923476869+924790890+925388212+924740173+925102030+925897868+924651973
986+922666553+921858635+921765106+921081272+918764726+915501169+912815305
972+910344565+907573433+905683229+904591527+902977735+901547536+901323795
959+901422298+900976771+900349160+900154287+900184663+899998938+900187328
945+901409952+903381427+905331852+906522145+907389484+909297807+912454691
932+916340263+920674915+924262759+926210519+927589646+929341466+931407625
918+933655601+935279963+935433801+935038547+935363721+935883858+935547137
905+934289873+932866691+931772414+930692348+930180826+930983681+931507904
891+930341859+929154053+929459954+930085965+929982400+930009934+930725212
878+930648026+928992932+928509478+931161679+934643737+936948736+939160561
864+942254115+946103981+950509335+954815298+959270303+964156979+966738389
851+966337539+967099447+970021221+972745189+975345874+978096223+980980069
837+984672544+987508161+987537650+985237625+984180564+988729897+995446290
824+997463330+997000394+999052519+1002579343+1004510316+1004221291+1003586309
810+1006385598+1014158163+1021815172+1024859342+1025651271+1026787561
799+1027895161+1028273984+1027980430+1028483069+1031447743+1035048732
787+1036235650+1036350673+1037911706+1041675415+1047131346+1051246255
775+1051869069+1050167966+1048616348+1049081771+1052019532+1057252878
764+1061756912+1061317691+1057441623+1055340735+1056367419+1057153220
752+1056923884+1058609710+1060953702+1060240112+1058013720+1057189193
741+1057150023+1058768256+1062018313+1061064639+1053639986+1046051103
729+1044018963+1044817909+1043405475+1041065391+1039663438+1039518570
718+1041673994+1043788561+1042177433+1038853033+1038059415+1038442945
706+1037986849+1037135142+1034848529+1031886786+1030384464+1030064175
694+1029341703+1029843188+1034738480+1040705399+1042800069+1040162080
683+1034840358+1033815361+1039283727+1041791771+1036149227+1031049291
671+1030265799+1026744927+1024625209+1032317125+1037922986+1034429204
660+1027644419+1027469619+1036548567+1045817770+1045977826+1039989234
648+1037412619+1042534139+1050101705+1051831232+1043538440+1032033252
637+1028636463+1033508395+1039005272+1033672980+1017174176+1009667807
625+1010437532+1000786487+991707361+992649132+989858015+982042549+976668244
611+981922818+999859105+1013445551+1015537556+1016601723+1020131567+1021975317
##END=
