##TITLE=Sample description
##JCAMP-DX=4.24
##DATA TYPE=INFRARED SPECTRUM
##DATE=24/8/2023
##SAMPLING PROCEDURE=Instrument type and / or accessory
##ORIGIN=Default
##XUNITS=1/CM
##YUNITS=ABSORBANCE
##RESOLUTION=4
##FIRSTX=4397.6552
##LASTX=599.8556
##DELTAX=-1.9287962
##MAXY=1.2873145
##MINY=0.34464797
##XFACTOR=1
##YFACTOR=1.1989051e-009
##NPOINTS=1970
##FIRSTY=0.48663682
##XYDATA=(X++(Y..Y))
4398+405901036+406251956+406680134+406797861+407144456+407256689+406353004
4384+405115227+404721775+405324208+405494982+404687148+404034677+403539705
4371+402832347+402511531+402524805+402409812+402232798+402175600+402447024
4357+403073171+403753210+404035323+403745430+403485366+403770039+403835838
4344+402713427+401290458+400815150+400774010+400703985+400919702+401068725
4330+400433157+399300555+399043896+400109035+401155206+401132859+400452944
4317+399841886+399366925+398827135+398400573+398017238+397742210+398479372
4303+399982234+401008122+401163882+400258953+398677167+397915122+398569706
4290+399347163+399086205+398374074+398353367+398805732+398546389+397566017
4276+397004277+397326933+397770722+397776713+397737835+397710168+397435562
4263+396892839+396203950+395859444+396190452+396961894+397582895+397495917
4249+396629096+395820243+396045108+396622533+396214390+395020090+394354643
4236+394871962+395573155+395287537+394846582+395359277+395865534+395632814
4222+395210353+394678368+394186603+393859149+393397090+393342005+394163485
4209+394739121+394148720+393467587+393618674+393816245+393623496+393465052
4195+393190669+392732463+392775368+393461845+394178226+394528997+394350989
4182+393834118+393737370+394138081+394011255+393039956+392183500+392010613
4168+392083148+392142609+392197222+392095826+392335109+393196735+393766330
4155+393774086+393823926+393578155+392508766+391410815+391197335+391499906
4141+391516710+391122438+390544193+389915212+389646150+390183106+390837691
4128+390471011+389856622+390343340+391118312+391012815+390371977+389983671
4114+389772453+389091718+388484016+388757876+389333884+389727460+390088547
4101+390236352+389954090+389517883+389232812+388823849+388132773+387549332
4087+387083892+386613505+386388142+386319882+386372084+386648281+386653650
4074+386367958+386286772+386196488+385904059+385446150+384589918+383660654
4060+383522866+384201016+384723505+384548406+384067702+383896083+384117692
4047+384140586+383799311+383587596+383695355+383858747+383846168+383780394
4033+383619563+383366559+383284404+383040572+382492628+382146929+382187969
4020+382329684+382047696+381420505+381176897+381301584+381306730+381295768
4006+381331041+381198971+381034386+381079205+381338747+381417572+380932270
3993+380322902+380184269+380373637+380325761+379720644+378990640+378786581
3979+379014852+379210583+379260871+379431819+379761833+379739088+379313769
3966+378861180+378065055+376914529+376468006+377172679+378073755+378052576
3952+377052541+375828262+375516642+376275257+376330417+375489274+375860154
3939+377233531+377947675+377307210+375573567+374785744+375910691+376611362
3925+375587413+374572363+374504725+373996653+372992790+373364839+375007378
3912+376340808+377033251+376837097+374457321+370497524+368303462+368704172
3898+371103859+374329402+375733478+374058276+373094235+374824945+374913763
3885+372630485+371647179+371488337+372659320+374721660+374643059+373132740
3871+371723990+370807950+371549314+371148007+369625805+371020958+373872339
3858+375405353+373726870+366958970+364812859+370058781+374876451+376500943
3844+375236866+373097094+370893362+368328867+368316189+370817545+372566103
3831+373586621+374671000+375258567+375812676+375106834+371974285+371279033
3817+372234622+373196426+376466141+379939269+380536979+377621489+375536007
3804+375327374+373145641+372539431+375093883+377651120+379995001+381910132
3790+382923765+382940842+382108250+381704258+382026691+381456947+381050494
3777+382774766+384451211+384163778+382396875+381494706+382264084+383347120
3763+384851101+385844549+385101619+384851101+385989968+385717475+382116329
3750+380235427+383035799+385002337+384917372+387606455+391400350+391837751
3736+388300937+387690252+393267878+399530267+403793803+406467947+409143756
3723+413636383+420860352+430479931+440969687+451380296+462181821+475925185
3709+493421254+510944368+526338350+539586891+552026257+564413321+575313184
3696+584377934+591168777+592905403+587961257+583169986+583597543+584443409
3682+582644092+579241187+575706138+568544364+560568244+558838279+555590290
3669+551633700+553220681+555478976+555142549+553689502+552548522+549757969
3655+546540853+545888033+543550044+536284711+533877666+538451032+542946294
3642+544969184+545233822+545271805+545633438+545938346+545884305+543122139
3628+539395286+542368496+547807216+550378771+548768871+546329063+546986606
3615+547897749+547653097+548196044+548488175+548532024+550461747+552607585
3601+553392449+554155937+555037648+554745020+554465617+555499310+555329331
3588+552008856+551037904+554968195+559275779+561127448+561064806+560922718
3574+561950395+563963293+565260132+563760899+561138435+561916738+564613577
3561+566679421+567934350+568829037+569450039+569943519+571157879+573234164
3547+574715052+574608113+574605130+576886792+580758517+583807543+585188502
3534+585985895+586499957+586274197+586947798+589617840+591512513+591698997
3520+592401185+593989260+595588521+596654579+596820531+596729898+597545438
3507+599374138+600936908+601181908+601164457+601310871+601019187+601272142
3493+602299919+603142355+604127177+605849186+607357467+607568313+607202155
3480+607347972+608021722+608860926+609815073+610959235+611661671+611461813
3466+611049917+610868802+610697630+610983546+611962949+613096422+613892374
3453+613927573+613540435+612536124+610835840+610957893+613530840+615803105
3439+616142118+615289241+614758375+615007203+615455491+616313836+617417977
3426+617266045+615659774+614005527+613585179+614978865+618013623+620987827
3412+621044255+618655704+617493396+618645065+619954383+619805334+619214411
3399+619822934+620998914+620529894+618823246+618655803+619616314+619558942
3385+618709695+618250470+618731023+619617856+619886719+618976123+617875960
3372+618439092+619834070+620209922+620031591+620384226+621676939+623017379
3358+622816875+621349610+620310995+620579113+621815994+622910888+622529915
3345+620861996+620137039+621407926+622919787+623336804+623265810+622990284
3331+622419695+622603942+624068025+625063139+624543011+623983707+624088011
3318+623947912+623058842+621729489+620783047+620638275+620993296+621500249
3304+621608083+621145625+621069461+621596499+621324155+619857884+618575214
3291+618644667+620228814+622201740+623049297+622964780+622690945+622403636
3277+622604091+623053324+623661101+625198764+626970887+627829779+627660695
3264+627374530+628171675+629393543+629738422+629044786+628209559+628659040
3250+630113528+631474203+632337967+632233713+632297448+633780275+635182760
3237+635398080+635197924+634976588+635095559+636433811+638119578+638048434
3223+636474976+634886652+634306816+635070900+635525949+634755800+633778187
3210+633300168+633697597+633951546+632721376+631011944+630114224+629609409
3196+629008990+628697918+628348514+627405702+626576839+625928394+624622407
3183+623245227+622363963+621270561+620198885+619439028+618275477+617312331
3169+617285186+617106556+616277196+615470903+614675847+613840570+613076983
3156+611861778+610169796+608708994+607297709+605134371+602951098+601962099
3142+601774869+601675238+601083520+599329841+596939352+595101355+594136369
3129+593694793+593138571+591772229+590252314+589873778+590021285+589196249
3115+587469268+585831626+584710831+584013715+583278218+582135796+580812309
3102+579475846+578327658+577820605+577745087+577521166+577036387+576510293
3088+576187736+575837488+575014988+573807190+572689030+572097559+571707787
3075+570733753+569365422+568378512+567615323+566475089+565220309+564408349
3061+563905224+562992291+561590452+560650126+560134572+558951383+557105829
3047+555738642+555274693+554712556+553080631+550733345+548849261+547804184
3034+546920185+545839361+544607998+543053332+541241933+539734050+538636870
3020+537477147+536320457+535248383+533526076+531072496+529151772+528473846
3007+528227405+527390835+526050097+524679778+523174479+521858152+521256490
2993+520845240+519906405+518572726+517484545+516920567+516644793+516377421
2980+515878920+515092911+514155071+513118445+512110604+511140348+509862799
2966+508323346+506774199+505107572+503566728+502434100+501354519+500162034
2953+499023639+497873710+496844989+496176907+495678902+495033093+493930792
2939+492548143+491406020+490449734+489627632+488835559+487552242+485979181
2926+484866241+484280041+483471959+481849480+479946157+478496938+477325085
2912+476319084+475605213+474878367+474153757+473652323+473215370+472825995
2899+472429212+471646982+470411493+469142295+468226628+467636848+467181401
2885+466901650+466653617+465933681+464782758+463755230+462873170+461767439
2872+460528817+459572532+458835841+457877518+456742901+455793427+455159798
2858+454798662+454406702+453669813+452480111+450901979+449456490+448626781
2845+448254359+447929466+447533876+447148777+446749906+446396178+445961412
2831+445080794+443993408+443184232+442533203+441842698+441334453+441059375
2818+440646882+439876932+438964446+438236208+437752273+437307365+436789624
2804+436365647+436056464+435642082+435060455+434365377+433763616+433493112
2791+433366237+432975569+432292274+431701401+431366315+431159149+430947807
2777+430494000+429825520+429260400+428814697+428377246+427953269+427396650
2764+426720613+426321643+426154101+425797986+425381913+425118568+424765038
2750+424217617+423780216+423660848+423580855+423248753+422824329+422487503
2737+422146999+421693690+421204933+420799847+420520444+420346140+420175913
2723+420056595+419955423+419671794+419399201+419334074+419302802+419116119
2710+418695473+418194337+417798051+417479969+417214834+416999092+416816659
2696+416799955+416932771+416819617+416345402+415873126+415634316+415620917
2683+415677121+415571748+415341912+415167260+415148392+415306091+415312281
2669+415000587+414809628+414846344+414710420+414398677+414272821+414242022
2656+413949668+413628279+413693258+413885161+413788240+413648514+413722242
2642+413741805+413648116+413665417+413847974+414105427+414238691+414129813
2629+414116365+414519113+414880076+414865260+414955246+415429039+416039649
2615+416472849+416686354+416910597+417207376+417582980+418142433+418719784
2602+419087582+419364052+419727326+420189833+420574883+420767283+421156758
2588+421870976+422390408+422602198+422829250+423152006+423393824+423389151
2575+423225138+423198292+423446225+423719463+423767141+423738902+423884371
2561+424111921+424269570+424457446+424613703+424571295+424479371+424455060
2548+424315756+424077666+424041274+424177993+424284584+424338327+424322716
2534+424317396+424364378+424343199+424268178+424277574+424371587+424353242
2521+424173767+424083632+424193057+424298305+424275536+424185948+424092631
2507+424165315+424468135+424773440+424981700+425163412+425345123+425529967
2494+425700841+425771139+425685031+425594697+425513909+425272886+425007403
2480+424867801+424793774+424772496+424784428+424809683+424751118+424470422
2467+424164818+424009506+423785784+423487141+423310401+423097368+422719925
2453+422404130+422316630+422317326+422142525+421774577+421480359+421309734
2440+420947305+420264159+419542184+419137199+419046368+418841588+418290537
2426+417642092+417219159+417009582+416706538+416329717+416128343+415868850
2413+415274074+414616109+414078183+413533446+413131070+412904863+412552005
2399+412107544+411731742+411348929+410884210+410367687+409873163+409318408
2386+408496231+407315851+405754747+403726065+401244844+398488918+395549589
2372+392556220+389648586+386737645+384014606+381979560+380669820+379777220
2359+379395129+380051627+381876027+384625540+387954989+390335386+390077311
2345+387567279+385093839+383719791+383198743+383643352+384725344+385310849
2332+384957990+384627379+384890998+385333842+385702883+386259279+387323771
2318+388693220+389840539+390545982+391006749+391588028+392423752+393259302
2305+393798670+394079093+394367843+394675335+394843176+394941141+395086436
2291+395354181+395782931+396281855+396604412+396553304+396429785+396510498
2278+396525463+396365875+396285111+396417604+396675853+396974721+397253726
2264+397378364+397442522+397611855+397744596+397845495+398148488+398527050
2251+398679951+398818186+399323349+399968537+400366662+400650292+401097784
2237+401689553+402215771+402592642+403019478+403633345+404334289+405141328
2224+406073401+406944871+407723348+408512389+409293401+410114683+411115861
2210+412261539+413548659+415033250+416468051+417694145+418965430+420560714
2197+422473533+424478277+426509420+428646756+430879796+433232253+435662714
2183+437940100+440146193+442738529+445738237+448784231+451826248+454862000
2170+457694712+460421132+463275074+466098390+468581401+470674092+472724674
2156+474915654+476811917+478144154+479053458+479611519+479717364+479283593
2143+478503998+477448430+475760874+473217259+470039866+466508098+462585961
2129+458249989+453698847+448951475+443962634+438962905+434125598+429305243
2116+424419861+419791012+415616319+411619657+407635127+403763377+400052582
2102+396474081+393064242+389881455+386859921+383908462+380980917+378154792
2089+375558901+373127570+370792886+368583860+366480554+364465295+362472930
2075+360468311+358634242+357026131+355399800+353597524+351768799+350228302
2062+348968103+347672979+346273228+344914816+343543154+341976979+340424053
2048+339163880+338026603+336816717+335566561+334429484+333406107+332329659
2035+331282244+330343011+329338203+328228147+327214489+326396712+325635139
2021+324733343+323581127+322410044+321634625+321137665+320485218+319605620
2008+318644164+317660535+316708302+315828032+315029818+314289623+313436076
1994+312303970+311162369+310504801+310121740+309552518+308905491+308393988
1981+307999816+307552547+306910317+306163858+305412004+304554628+303518450
1967+302627839+302286539+302158372+301715900+301043791+300367804+299742254
1954+299232392+298782140+298258159+297599349+296760592+295703061+294926473
1940+295039726+295417567+295370063+295010543+294558601+294117621+293700902
1927+293113533+292149865+291316552+291162209+291111723+291154180+291778388
1913+292263043+292037557+291712042+291979439+292526264+292790281+292795178
1900+292703974+292383704+291867056+291592152+291404152+290853647+290627366
1886+291054699+291435597+291631478+291718182+291710526+291718132+291706872
1873+291309244+289735835+287534564+287468939+289436794+291029269+291615022
1859+291782067+292063434+292590771+293111396+293383864+293286694+292731914
1846+291709407+291347898+293029861+295081512+296140784+296855898+297623710
1832+297499097+296450216+296557975+298011867+299605485+301355932+302807512
1819+303540225+303807299+303624270+302695577+301479128+301149711+301608390
1805+301751025+300908514+299439782+298730013+299027264+298961093+297730052
1792+296954211+298690738+300932775+301852694+301818141+301678638+302008901
1778+303068894+303716443+302640069+300472431+300413170+302622345+304880392
1765+306101091+306006730+305945580+306742004+307452369+308114038+307910675
1751+305492569+302828940+303010950+304492807+305496894+305950626+306192519
1738+306452210+305412277+302730428+303000236+306171563+309328797+311410103
1724+312350181+312754421+312093622+308973104+306615999+310190174+315542016
1711+319433404+321239980+321289771+321617573+323227373+324076944+324337803
1697+327453647+334064942+341121045+345886861+349095227+351594271+352983781
1684+355977573+363865199+372161888+378560449+383509840+388900709+394267292
1670+399771613+408398017+417369997+423948952+430419774+438698367+446494715
1657+451601283+453916006+459598732+470632032+478004005+485110694+496554051
1643+507628367+515750752+521078656+524018655+528482646+537420869+545272053
1630+550263281+553630738+556477470+558532725+560850630+563764976+565127390
1616+565454869+567547362+569486033+569526949+568816956+568810344+569078462
1603+569117738+569353988+569909513+570316637+570810564+572252126+574616813
1589+577600215+581273225+585527465+590168891+595157335+599721354+603271914
1576+609451004+619330150+627850610+636148591+646843326+657855845+667807775
1562+675274457+679533022+688307679+704324551+718648696+731614851+743397320
1549+754671295+763787302+769686591+773572535+779103428+794208511+809608160
1535+819360779+828113611+839057025+848566185+854820246+859533015+863748824
1522+868649420+876793381+885651760+893873278+902406615+909341088+912084212
1508+909474724+909716244+920453188+929389820+933445742+933600458+933710430
1495+937140429+939603554+936752347+931943825+933380813+937721111+939944008
1481+939925911+939268170+937470642+932501041+924457804+919072478+920199836
1468+921440943+918807194+916460703+917864879+918678629+914376811+910748247
1454+916686214+925281198+932530274+938140116+944101550+951131179+958321192
1441+965183478+970462312+973615294+977898717+983837281+988921925+995001583
1427+1002996098+1009340841+1013166579+1015297403+1014146479+1013097971
1416+1017616351+1023026236+1025080099+1024615256+1023180853+1020942146
1404+1019881606+1020636393+1019545129+1017151308+1017305129+1018426521
1393+1018949334+1018625087+1015242616+1009276708+1006619691+1008963299
1381+1013439718+1017638823+1018644376+1016129448+1015306053+1017110840
1369+1017174874+1016735087+1017510655+1016158084+1013883184+1015308738
1358+1017708723+1017803979+1016924703+1016098624+1013674974+1010177858
1346+1007932887+1006981126+1005658086+1002784905+999948712+999465374+1000166567
1333+1000736610+1001831951+1003362803+1004207575+1004798200+1006399350
1321+1008499549+1010056651+1011846622+1014378852+1017316962+1021062757
1310+1025637713+1030175780+1033591064+1035965893+1038432995+1041182682
1298+1043875792+1046597936+1049283191+1051653944+1053968915+1056199966
1287+1057648389+1058741741+1060011286+1060608970+1060448985+1060574666
1275+1060453459+1058922806+1056779951+1054787736+1052746500+1050760847
1263+1048980521+1048557339+1050411444+1052664966+1053504867+1053634227
1252+1054036827+1054704213+1055761770+1057171911+1058108062+1058194070
1240+1058338644+1059212550+1060358104+1061569979+1062600987+1062918572
1229+1063100632+1063747038+1063999296+1063346726+1063313018+1064897166
1217+1066682662+1067486767+1067973585+1068713060+1069379452+1070246497
1205+1071682491+1072598158+1072081511+1071546568+1072127249+1072791852
1194+1073349366+1073741823+1072838286+1071184835+1069908926+1068997136
1182+1068832378+1069756895+1070115148+1068289679+1065484310+1063692748
1171+1062938657+1062123615+1061427891+1060857749+1058716187+1054857139
1159+1051736770+1050504810+1049065137+1046204584+1042911801+1039220892
1148+1035685793+1033291476+1030809260+1026850781+1021639063+1015965684
1136+1010324818+1004713782+998918201+992881398+987152735+981993119+976190081
1123+968976701+961680992+955810539+951138040+946656947+942236706+937795088
1109+932997205+928673215+925325247+922190759+919632975+918229197+916807024
1096+914836783+913449013+913395320+914297365+915589979+917469041+919835716
1082+921522676+922278557+923338699+925163272+926788883+927767590+929192050
1069+932371978+936976764+941224590+944121138+945772899+946554135+947844958
1055+950687514+953902443+955903906+956632343+957242456+958891234+961437683
1042+963385452+963555779+962639714+962497626+963608378+964825424+966075779
1028+967738775+969080309+970335039+971872553+972486147+972073803+971829201
1015+971580820+971033349+971379769+972952581+974306047+974687368+974767908
1001+974581672+973317695+971610152+970590977+969753164+968702667+967664898
988+966160693+964074714+961863251+959686788+957899701+956998948+956345482
974+954240113+950678566+947623722+945850953+944676166+943749760+943166792
961+942917715+943066465+943373411+943223169+943166493+943911635+944556053
947+944793893+945572246+947170512+949437955+951762273+953300582+954566349
934+956317244+957929630+958433848+958640368+960179175+962280666+963227555
920+963196631+963444515+964218194+964129103+962764700+961576291+961192086
907+960457683+958435439+956032173+954109957+952161193+950109319+948523381
893+947496549+947205413+947416507+946693737+945134149+944297430+944482970
880+945907629+947880356+948786279+949984830+953433224+958226334+962868506
866+967650281+973795365+980269966+984268019+985363957+985855050+986913005
853+987005377+985968403+985411286+984757423+983236912+982200037+982587522
839+983113119+982574795+983085974+986173928+987841598+984026102+978093702
826+976209171+978621884+981609213+983482110+984932820+987341854+990261669
812+991071143+989722351+990260973+994233174+997269324+997390730+997844835
799+998990985+999795289+1001735800+1003862149+1004179336+1005154564+1009566452
785+1015723667+1020678651+1023364901+1024651350+1026727287+1030058550
773+1032848805+1033843123+1032983933+1031920212+1032766277+1034872143
762+1036114046+1037065609+1039631148+1042809784+1044470295+1043295210
750+1039845722+1038800793+1042363235+1045498618+1044571118+1041773306
739+1039485381+1038580850+1038732682+1038274003+1036682896+1034061674
727+1030324232+1026164304+1022547074+1021120526+1022622742+1024982656
716+1025914631+1025032571+1022798239+1020049745+1017863538+1015920243
704+1015192502+1018123254+1020856436+1017343510+1011002048+1008943015
692+1011120372+1013816565+1017031791+1020717927+1021390086+1019179518
681+1016947573+1015669476+1016866436+1020022501+1022274134+1021542217
669+1015959519+1010655628+1012844321+1017996777+1023734191+1027957457
658+1027917088+1025901506+1024712500+1024649560+1025198920+1024648963
646+1021874021+1018467089+1018993680+1023590810+1024385171+1021541819
635+1023193182+1028617187+1030971135+1026542045+1019131592+1013081366
623+1007139719+1004152888+1005055132+1003350473+1001565274+1008058270
611+1020804930+1030587030+1033401547+1032040823+1025737841+1015240925
600+1010674023
##END=
