##TITLE=Sample description
##JCAMP-DX=4.24
##DATA TYPE=INFRARED SPECTRUM
##DATE=24/8/2023
##SAMPLING PROCEDURE=Instrument type and / or accessory
##ORIGIN=Default
##XUNITS=1/CM
##YUNITS=ABSORBANCE
##RESOLUTION=4
##FIRSTX=4397.6552
##LASTX=599.8556
##DELTAX=-1.9287962
##MAXY=1.4002674
##MINY=0.33973277
##XFACTOR=1
##YFACTOR=1.3041006e-009
##NPOINTS=1970
##FIRSTY=0.46007052
##XYDATA=(X++(Y..Y))
4398+352787598+352228893+350826190+350277517+351065047+352132203+353012492
4384+353551841+352806406+351012943+350233572+350985497+351624209+351690436
4371+351682004+351407862+350927428+350313442+349593922+349364412+349600595
4357+349589763+349281982+349016890+348977857+349723383+351121402+351572059
4344+350622914+349838447+350168533+350803954+350697803+350041037+349541429
4330+349255016+349039125+349088647+349267973+349044930+348405166+347662177
4317+347103335+346968641+347113459+347356361+347918242+348844145+349315575
4303+349017301+348857697+349002789+349006012+349029299+349123429+348957450
4290+348536364+348286926+348343624+348479072+348495778+348536936+348874928
4276+349087459+348637739+347807315+347305331+347340638+347328869+346966333
4263+346724185+347023876+347539275+347694788+347679065+347788233+347630457
4249+347123263+346951730+347393428+347924710+348176776+348219808+347848016
4236+346644817+345312477+345042289+345714755+346820783+347950350+348120284
4222+347368107+347129684+347822329+348337979+347960840+347325030+347332160
4209+347743441+347752880+347557077+347757244+348083902+348052617+347722554
4195+347544828+347847353+348098368+347699336+347175870+347083407+347152811
4182+347142139+347177447+347242851+347137614+346714701+345925137+345352264
4168+345665027+346387586+346812305+346688032+345981949+345495574+345958319
4155+346603042+346327803+345321801+344810127+345435288+346297706+346322204
4141+345788386+345673551+346040658+345991387+345466619+345227373+345305141
4128+345580449+346118335+346339435+346043218+345824265+345404048+344434519
4114+344002144+344548280+345061416+344894637+344176923+343590634+343607408
4101+343887949+344081055+343884316+343316675+343078001+343435236+344024952
4087+344451727+344453487+344173038+343855658+343504639+343212307+343122770
4074+343074139+342981128+343094135+343330204+343310665+343002381+342632760
4060+342546811+342987847+343563714+343606974+343294737+343345150+343555807
4047+343181753+342293031+341725848+342062332+342775659+343072631+343017898
4033+342854295+342774082+342865836+342765923+342579833+342667039+342767272
4020+342667656+342375941+342013519+341840866+341652239+341175759+340707254
4006+340467985+340439442+340710316+341122283+341381456+341607859+341866941
3993+341894318+341512334+340859019+340503910+340680219+340852849+340668061
3979+340538440+340863635+341205033+341151009+340890944+340615317+340766168
3966+341459796+341676417+340969535+340515702+340887631+341317903+341373938
3952+341214220+340630651+339845567+339994178+340186485+339198422+338859149
3939+339903567+340892338+340947414+339874544+339022661+339817024+340883380
3925+340600051+339915405+339981632+339846915+339046314+338991810+340128941
3912+341048834+341276608+341174959+339840425+336934306+334401235+333386709
3898+334535472+337541367+339838277+339072663+337837722+339107399+339273196
3885+337410923+337078735+336730207+336776279+338772583+339780711+338898982
3871+337058625+335707111+336920183+337994880+337804722+338617024+340045254
3858+341227931+340557111+334537849+331534788+335775167+339780711+341144679
3844+340306233+338505046+336423523+334403726+334706343+336919246+338440624
3831+339193257+339966549+340518398+341242854+340609604+337425001+337340354
3817+338678955+338399854+339980810+342531500+343397917+341711519+340337450
3804+340178440+337946867+337162331+339144238+340471184+341887691+343540884
3790+344361139+344692413+344502460+344061265+344246189+343608368+342252581
3777+342813480+344409084+344888969+343611293+342701296+343185683+343441246
3763+344039669+344345325+343145737+343128300+344943702+345226162+341391694
3750+338769087+341641567+343060267+340689931+341766503+345215490+345973517
3736+342450075+339318193+340924355+344905789+348236147+349257027+349042622
3723+349951637+352137939+354858151+357737099+360495680+362028416+364423913
3709+373041262+386540672+402906232+423339587+448134304+471351584+489359985
3696+502950989+512421958+517686232+516983555+512241467+509370700+506520913
3682+501202523+494106735+485646226+471095084+456168381+450833948+444027751
3669+434919273+431977755+430897275+427821154+424034175+420870573+416004897
3655+411126194+409718371+406362395+396037647+389605367+391386832+393883041
3642+394107730+392960795+391768337+390338438+388849351+387927973+384105571
3628+376987342+375801626+378170636+378980699+376133357+371497579+370334556
3615+371140893+370991756+370204683+367913464+364972105+364410658+364666495
3601+363324489+361171940+359137928+356677941+355070682+355399602+354402010
3588+349290140+345483576+346115569+347264950+346340029+343833628+341629820
3574+340531059+340099690+339082810+335005074+329032226+327284149+328304274
3561+328226849+327352638+326852620+326021533+324215729+322219584+320761554
3547+319325806+317494224+316033931+315572168+315424745+314488307+312990444
3534+311960721+311074056+309241948+306784315+305182587+304435415+303680976
3520+302899365+302041335+301132434+300260509+298967453+297198488+295716714
3507+294990796+294262752+292855386+291419592+290264521+289367573+288995027
3493+288342740+286913481+285707243+285105826+284488481+283399729+282021867
3480+281213450+281114223+280679723+279197835+277446603+276505252+276222906
3466+275792976+274662724+273082888+271943357+271446035+271017660+270287925
3453+269396141+268611239+267792950+267043607+266673666+266039388+265109120
3439+264715069+264357789+263346462+262228641+261694297+261856758+262203412
3426+262127723+261576857+260885995+260511163+260765652+261507430+262170915
3412+262307506+262165910+262228801+262752907+263608286+264253283+264540200
3399+264717811+265086952+265722488+266130616+266297487+266736512+267431785
3385+268041542+268488109+268964246+269473932+270104051+271129067+272280641
3372+273143882+273880336+274775342+275792519+276738967+277562764+278537801
3358+279867284+281196470+282203181+283066719+283856122+284511791+285196575
3345+285953002+286631341+287227798+287904698+288647184+289251572+289615959
3331+289733811+289622770+289169439+288514250+288184873+287994806+287358699
3318+286684039+286742565+287213424+287178665+286695169+286590594+286914807
3304+286939465+286800474+287534117+289153373+290623950+291603077+292397303
3291+293088393+293824893+294877720+296136246+297151252+297517810+297407637
3277+297526152+298161207+298984113+299579245+299820456+300018407+300245312
3264+300054583+299291414+298509598+298373555+298742262+299042548+299126120
3250+299023443+298839181+298802708+298863108+298904311+298923370+298723226
3237+298467343+298551144+298705195+298686113+298576351+298303420+297928818
3223+297568155+297413739+297489907+297238207+296852612+297197392+297827945
3210+297812611+297453297+297363143+297484720+297702849+298075921+298436812
3196+298597581+298777730+299315387+300048139+300571604+300682349+300523408
3183+300546215+300634312+300576815+300844946+301435988+301891261+302130004
3169+302238806+302357800+302740219+303272049+303315675+302841639+302617796
3156+302944728+303349428+303378725+303179541+303134543+303343052+303752071
3142+304287192+304600846+304448510+304209630+304039468+303691603+303378268
3129+303324838+303502153+303896021+304285844+304573857+304904011+305327907
3115+305752078+305952291+306053186+306423241+306852599+306821017+306447099
3102+306359916+306773803+307487632+308147643+308318216+308170519+308421259
3088+309336262+310223292+310260200+309735934+309714201+310477575+311185463
3075+311353682+311393263+311670125+311907611+311549668+310735469+310245345
3061+310368248+310507718+310180832+309769733+309586546+309524157+309581975
3047+309723936+309946545+310170068+309930411+309210252+308815287+309011821
3034+309168500+309024779+308907795+309005925+309213862+309442962+309858288
3020+310587269+311264305+311333960+310744976+310024359+309754331+309950659
3007+310166366+310280813+310643098+311413054+312323371+313311708+314611620
2993+316084253+317415656+318691778+320223783+321973026+323495021+324723883
2980+325972902+327062248+327507077+327179209+326457015+325995115+325853382
2966+325497998+324892103+324264771+323629761+323244349+323322117+323639245
2953+324007814+324530229+325306675+326142218+326717354+327056741+327416512
2939+327822240+328069461+328028921+327740587+327205192+326547558+326003890
2926+325396898+324578083+323813177+323242977+322833456+322388398+321742533
2912+321426730+321851837+322268169+322077463+321656492+321348276+321248821
2899+321283306+321169819+320946410+320763085+320637144+320812882+321333331
2885+321738031+321751948+321515285+321195643+320929934+320921249+321079254
2872+320841105+320086529+319494733+319440092+319613773+319650452+319496790
2858+319317144+319077007+318625619+318166873+317958707+317829086+317656022
2845+317687993+317922234+318231317+318662092+319053195+319385954+319901970
2831+320515750+321021230+321402255+321657315+321934245+322495440+323107392
2818+323350500+323493467+323952831+324467749+324654342+324668762+324823019
2804+325212476+325711877+326080104+326318939+326520774+326730791+327149980
2791+327770913+328304548+328590711+328709751+328831990+328987298+329198617
2777+329561588+329917429+330099314+330321923+330708523+331073802+331395066
2764+331789757+332238745+332673771+333068438+333504012+333997678+334329843
2750+334459967+334626564+334963276+335393594+335821558+336321783+336868604
2737+337353471+337801797+338101991+338354423+339002505+339963464+340674300
2723+341031146+341359860+341741296+342102690+342478664+342853792+343135978
2710+343300633+343474885+343715022+343849876+343840987+343968140+344355837
2696+344734393+344843789+344682677+344582399+344886136+345356994+345557642
2683+345488101+345425873+345495596+345611643+345797436+346088146+346374217
2669+346594289+346676719+346601077+346492800+346499496+346676925+346912537
2656+347187799+347510366+347707745+347750983+347687086+347602188+347717732
2642+348003026+348209615+348315698+348540341+348885486+349076124+349087482
2629+349194410+349543029+349958790+350269222+350572433+350901124+351124601
2615+351334961+351774534+352276953+352419920+352280952+352234767+352260544
2602+352172813+352090840+352157113+352212462+352113533+351988368+351924631
2588+351775860+351443466+351064521+350852562+350809439+350770726+350653971
2575+350469481+350360039+350336158+350125318+349755400+349569310+349575137
2561+349506533+349423715+349493941+349549199+349489554+349407444+349385756
2548+349511515+349680032+349644450+349463844+349387745+349401845+349453469
2534+349542938+349543532+349478653+349477556+349564077+349753960+349987424
2521+350092913+350097598+350191065+350339151+350456843+350534268+350517929
2507+350506754+350632307+350735190+350631370+350456889+350323771+350181353
2494+350119148+350151416+350169881+350154798+349994120+349736364+349748064
2480+349999148+350160351+350222511+350159734+349881273+349545589+349342108
2467+349328327+349451778+349574177+349552604+349450407+349473374+349623562
2453+349779327+349837967+349778687+349750669+349851153+350045242+350220545
2440+350215998+350100386+350102305+350195887+350205645+350213004+350403893
2426+350644670+350800366+350978732+351155156+351287450+351385374+351332996
2413+351166788+351105702+351296637+351673228+351988025+352164289+352285500
2399+352329011+352359428+352489735+352670935+352903050+353155139+353205118
2386+352911872+352372912+351658054+350515369+348710617+346406897+343865485
2372+341149524+338336964+335804030+333801670+332236963+331179542+330827083
2359+331149490+332029437+333692548+336716884+340780314+343797109+343974950
2345+341843905+339793554+338964638+339032214+339764028+340618653+341048971
2332+341299758+342038359+343250379+344390367+345352150+346453174+347719629
2318+348901049+350021955+351182762+352285774+353294587+354245605+355045087
2305+355646709+356242527+356908822+357476463+357917887+358343726+358744678
2291+358946285+358976359+359216268+359717109+360138286+360351731+360425339
2278+360409960+360366379+360360095+360371841+360363066+360409137+360604848
2264+360858948+361053882+361239858+361432850+361713094+362162128+362516277
2251+362580608+362546969+362640139+362847323+363007749+363130400+363408176
2237+363799049+364033770+364082310+364098101+364132129+364233412+364443909
2224+364637998+364767139+364996032+365310944+365554691+365755864+365956512
2210+366071941+366181269+366438683+366697262+366850490+367060164+367386981
2197+367722072+368014793+368336857+368638011+368827004+369048561+369401545
2183+369730808+369939500+370174678+370572910+371086024+371583643+371990034
2170+372318131+372586537+372855469+373245200+373688704+373972809+374187466
2156+374559989+375036081+375467358+375799615+376054789+376218118+376293029
2143+376375756+376451170+376426215+376267868+376065735+375811110+375321055
2129+374737760+374302666+373804110+372989523+372080508+371297435+370453596
2116+369594514+368972919+368314781+367227743+365936744+364893469+364073511
2102+363186869+362168321+361130142+360191670+359377951+358579201+357717354
2089+356827010+355921217+355060216+354355596+353719740+353027758+352302137
2075+351581223+350949503+350435842+349899967+349200306+348401487+347772076
2062+347290774+346654324+345959942+345533601+345303633+344960910+344439958
2048+343839913+343178119+342546560+342089275+341759670+341430796+341056558
2035+340644866+340237858+339858273+339479557+339071863+338651875+338292858
2021+338003062+337701496+337342296+336953342+336596450+336271735+335957624
2008+335658892+335308605+334847778+334381536+334034517+333738002+333394547
1994+332910434+332200787+331556064+331241541+331133334+331111395+331057051
1981+330857729+330569327+330331818+330147213+329926250+329620091+329054873
1967+328280690+327879281+327949873+327941052+327707908+327393819+326993735
1954+326673454+326545821+326328423+325860878+325347513+324760082+324161454
1940+324131425+324508336+324664215+324539027+324359564+324221259+324140886
1927+324106333+323794666+323148641+322753585+322557371+322442468+322835947
1913+323275200+323097977+322682125+322754774+323277942+323805613+324179370
1900+324382394+324285955+323954842+323893528+324153546+324134464+324118582
1886+324659644+325263323+325610891+325905783+326280934+326643174+326869142
1873+326874421+326205292+324907117+324698425+325967920+327231861+327881932
1859+328121406+328213365+328381722+328646814+328905188+328949225+328600697
1846+327741547+326986148+327797445+329263359+329956210+330188440+330511692
1832+330253113+329032866+328506452+329138354+329757208+330630915+331763842
1819+332455435+332625643+332627060+332524062+332329311+332553108+333332091
1805+334093934+334261719+333818923+333622504+334163063+334684312+334204747
1792+333481479+334744690+336894108+338058937+338326863+338407007+338569628
1778+339119214+339599762+338936803+337320723+337616164+340114201+342525215
1765+343912196+344106833+344054546+344838099+345884802+347095108+348003666
1751+347237252+345598640+345923058+347655024+349062824+349693926+350057354
1738+350882271+351048205+349705375+350412920+353478895+356504054+358614097
1724+359649762+360305728+360464075+358594809+356557712+358905150+362824013
1711+365577156+366645980+366134786+365745809+366860293+367300255+366212531
1697+366992931+370309075+374310962+377050507+378287962+378860676+378343746
1684+377687346+381195179+385940787+389234283+390898514+392141934+393595462
1670+394822428+397781680+402310323+405569175+407624234+410648297+414236366
1657+416639016+416706157+415936750+419687805+423770179+427444906+433967546
1643+441286606+447146561+451407690+454355333+459182617+468047849+476402322
1630+483273147+489668497+495903467+502200550+509541456+516406934+521280243
1616+526286647+533429877+540480371+546229536+551348832+556899087+562666808
1603+568236990+573798305+579128624+583636335+587778492+592479720+597582380
1589+602559761+607410857+612469274+617866552+623440208+628446383+632396440
1576+637777035+645824321+653030351+659428992+667377005+676294160+684559278
1562+690932278+694447127+699488359+710937784+722837637+734147248+744590100
1549+754782759+764168121+771894645+777879148+785132071+802151450+819950291
1535+833160385+846405673+860775226+872677593+882391029+891649695+900434760
1522+909834199+921028770+932150943+943298529+955002168+965256941+971989187
1508+974783441+979691944+992104659+1003891208+1012216110+1015867710+1017729023
1495+1022966971+1028543963+1030447143+1030816169+1035143846+1040906768
1483+1044504892+1045590673+1046131096+1046481383+1043424961+1035260303
1472+1030088080+1034004132+1038322850+1036822337+1032760849+1032432775
1460+1032443653+1024710730+1015651614+1019261530+1025619996+1028772582
1449+1028121644+1026931014+1027818250+1028941967+1029026797+1027866241
1437+1024524068+1022285136+1023772394+1025245850+1025673380+1027250222
1425+1029313828+1030346682+1030062576+1026866386+1023049424+1023644967
1414+1025510760+1026226326+1026417009+1025596777+1022653340+1019517938
1402+1019034191+1018625766+1015582507+1012201393+1010536614+1010131937
1391+1009631644+1006762523+1001002343+997369117+998344016+1001528962+1004331993
1377+1004877534+1003422726+1002649937+1003351974+1004001450+1005142992
1366+1006181788+1004653394+1002684399+1003288901+1004114526+1003095383
1354+1001524666+1001282792+1001424571+1000832410+1000141250+999296063+997313356
1341+994308398+992512901+993088151+994305108+995294176+996278765+997521591
1327+999821494+1002577082+1004092313+1004460608+1005057249+1007064911
1315+1009662815+1011648904+1014123769+1017587701+1020867349+1023789488
1304+1026899569+1029729931+1032181211+1035284710+1038972509+1042356640
1292+1045137640+1047293114+1048983671+1050280338+1051493638+1053303029
1281+1055632733+1057830530+1059091912+1058720143+1057666082+1057188001
1269+1056387057+1054859395+1053870509+1053596824+1053759719+1054148948
1258+1053915301+1053779647+1055007572+1056920807+1058367022+1059229760
1246+1060212704+1061581402+1062615079+1062928711+1062251172+1060850753
1234+1060316913+1060557872+1059922565+1058852506+1058917043+1060090396
1223+1061334135+1062362785+1063561367+1064723477+1065090767+1064771833
1211+1064449518+1064118884+1063742453+1063526357+1063641718+1064138628
1200+1064151974+1063494089+1063864486+1064954107+1064627038+1063390154
1188+1062042846+1060345707+1059301792+1059251790+1059292834+1058717949
1177+1057441119+1056278278+1056122331+1056239063+1054860217+1052513786
1165+1050575779+1048702034+1046853609+1045192212+1043750202+1042875215
1153+1041858723+1040060484+1038281349+1037105254+1036104668+1035099877
1142+1034090972+1032473910+1030325566+1028480067+1026949936+1024891084
1130+1021545985+1017799775+1015292094+1014163258+1013970655+1013560219
1119+1011360045+1008381779+1006532624+1005673817+1005205609+1004843895
1107+1004046150+1002829285+1002130447+1002853052+1004545621+1006326126
1096+1007879201+1008433244+1008381048+1009665557+1012410633+1015039251
1084+1016864731+1018714252+1022194821+1026432824+1027658647+1026480906
1072+1027082482+1029392898+1031666841+1034305697+1037383966+1040313693
1061+1042901724+1044479480+1045079137+1045598443+1045167166+1043733474
1049+1043445986+1045392586+1048636035+1050382353+1049902261+1050114152
1038+1051818238+1053490605+1054570261+1054982983+1055088105+1054782244
1026+1053903783+1054083863+1055741969+1056696484+1055671491+1054543204
1015+1055001630+1055482179+1055097246+1054204068+1052616714+1051366302
1003+1051333851+1051789170+1051749406+1051930674+1053051740+1053722880
991+1053524335+1053053020+1052430967+1051581758+1049941477+1048338949
980+1048170112+1048746916+1048417562+1046876645+1045443410+1044888362
968+1044641369+1044159724+1043234278+1041798301+1040388284+1039509001
957+1038837037+1038345154+1038175678+1037963239+1037940294+1037902450
945+1036774620+1035362684+1034920528+1034554335+1033803484+1033759333
934+1034886980+1036373874+1037114121+1036641068+1035394495+1034732587
922+1035783541+1037956566+1039897041+1040908962+1040157471+1037805646
910+1036146534+1035962524+1036140318+1036217561+1036235751+1036486675
899+1036346450+1034576914+1032211194+1032166860+1034271235+1034744105
887+1032791655+1030894326+1030338363+1031018553+1032402335+1033803302
876+1034482303+1034522616+1034189605+1033848459+1035088359+1037678493
864+1039498763+1040844700+1042470995+1043675245+1044879952+1045711336
853+1045559594+1046677643+1049157535+1050315348+1050718563+1052550716
841+1055360876+1058144802+1060711443+1061692924+1059867993+1056635513
829+1055345062+1056197196+1055364990+1053309611+1054142823+1057924409
818+1062413335+1066239347+1067092487+1063936884+1060129063+1059880607
806+1063762197+1068585231+1072086185+1073741823+1073289064+1072039017
795+1069854474+1066369882+1064345309+1064879790+1065338856+1064618994
783+1064215597+1062846898+1059583704+1058241515+1059721552+1059901175
772+1057363785+1054696043+1054047573+1054820728+1054308369+1052277214
760+1051656258+1052872209+1054124358+1055196428+1055717745+1054480039
748+1052367893+1050397801+1048522594+1048406136+1050709239+1053041228
737+1053492616+1053238859+1053769409+1052876322+1049387343+1046741539
725+1046975826+1047799623+1046624716+1045116615+1046026522+1049211925
714+1054145840+1058414373+1058602588+1055248075+1050100349+1045443867
702+1043110781+1042095387+1044054692+1049795676+1052561137+1049408184
691+1046531020+1048529267+1053473145+1054890840+1050354564+1045515533
679+1044170510+1045317720+1048163348+1052400162+1054255990+1047588098
667+1039644198+1043388031+1048947107+1050271562+1051583220+1054588087
656+1055583645+1053370673+1052653188+1055691602+1060879365+1066908568
644+1061009992+1038086644+1024252394+1032392463+1044566138+1049193825
633+1046797026+1037411573+1030000325+1033737394+1043270202+1046308982
621+1041927373+1033245968+1020505178+1019012709+1033791144+1036113626
609+1019310618+1010685797+1015630589+1022087505+1024858084+1025274645
##END=
