##TITLE=Sample description
##JCAMP-DX=4.24
##DATA TYPE=INFRARED SPECTRUM
##DATE=24/8/2023
##SAMPLING PROCEDURE=Instrument type and / or accessory
##ORIGIN=Default
##XUNITS=1/CM
##YUNITS=ABSORBANCE
##RESOLUTION=4
##FIRSTX=4397.6552
##LASTX=599.8556
##DELTAX=-1.9287962
##MAXY=1.40295
##MINY=0.19073108
##XFACTOR=1
##YFACTOR=1.3065991e-009
##NPOINTS=1970
##FIRSTY=0.22539222
##XYDATA=(X++(Y..Y))
4398+172502974+172254891+172105537+172105332+172017699+171942783+172240487
4384+172451676+171817048+170809970+170416525+170847434+171458717+171526050
4371+171341855+171516265+171967770+172475409+172999106+173413444+173501978
4357+173404161+173378421+173218985+172838142+172470551+172130171+171652868
4344+171118965+170746481+170404516+170088051+169980928+169828758+169619393
4330+169701540+169931809+169971086+169692234+169150461+168746467+168743433
4317+168819057+168558896+167919261+167280402+166978067+167094211+167621432
4303+168187462+168414834+168381328+168280272+168167846+167968289+167789136
4290+167914768+168084160+167823794+167626541+168096020+168701704+168801665
4276+168487253+168112751+167768721+167408007+167233997+167438161+167821992
4263+167889153+167467607+166934388+166722708+166916027+167040541+166869086
4249+166980907+167518825+167846215+167699279+167297144+166922641+166783050
4236+166697390+166392410+165939399+165713350+165975791+166433466+166804057
4222+167023115+166983428+166987921+167216536+167225649+167048992+167108330
4209+167117237+166902900+167047738+167561854+167693543+167409022+167360507
4195+167513978+167396922+167181673+167220243+167329886+167301603+167225090
4182+167127227+167081347+167264937+167624579+167927176+167954661+167672307
4168+167295182+166981306+166671023+166435063+166426601+166575943+166755166
4155+166812109+166684606+166378257+165989111+165972598+166278467+166288492
4141+166090874+166111482+166169554+165936434+165562365+165493687+165870276
4128+166165209+165973054+165736375+165791083+165779861+165617802+165729008
4114+165929671+165693323+165298623+165139165+165184692+165402393+165562080
4101+165405495+165179902+165183004+165220194+165192903+165293936+165387339
4087+165212599+164964105+165040231+165403762+165702812+165845574+165863228
4074+165709312+165538313+165552785+165611279+165413410+165014263+164799082
4060+164889292+165095862+165292203+165462199+165532998+165340843+164984383
4047+164778166+164872960+165152851+165411027+165608964+165617141+165350332
4033+165029260+164820397+164799903+164858385+164778200+164577514+164362402
4020+164221647+164141713+163918400+163599438+163638624+163927490+163811597
4006+163467841+163385078+163347991+163191703+163103056+163155448+163202549
3993+163023840+162663810+162352625+162123964+162018381+162061114+161954253
3979+161709695+161708086+161797909+161637036+161367433+161225047+161210107
3966+161200744+160960986+160446026+160288586+160757997+161090462+160925165
3952+160590784+160033968+159539354+159749072+159669559+158661694+158420945
3939+159408623+160279634+159984176+158480305+157545874+158200369+158715113
3925+158063310+157586680+157848414+157478736+156535945+156726458+157879788
3912+158698542+159016455+158662071+156633454+153780585+152540193+152485338
3898+153525842+155853714+157301828+156206217+155128591+155941176+155734138
3885+154298397+153874217+153359678+153845979+155373880+155046763+153592696
3871+152524296+152016634+152872910+152885090+152038941+153041879+154688353
3858+155313116+153570651+147742178+145975216+150591340+154891741+156334370
3844+155045634+152911639+150855321+149067226+149375274+150857225+151852123
3831+152936399+154083342+154647182+155048565+153807306+150162769+149703884
3817+151031133+151606287+153986951+156685196+156997316+154686745+153359302
3804+153310525+151341325+150862346+152745464+154148234+155729302+157361976
3790+158029267+157922418+157426993+157152657+157377212+156692210+155798904
3777+156963786+158597008+158710141+157215690+155989394+156013811+156298913
3763+157123792+157464001+156107340+155489499+156424466+156042516+152459381
3750+150556590+153218250+154914128+153988114+155313561+157983637+158115976
3736+154729911+152659462+155435954+159722419+162499345+162925373+162522279
3723+163176718+164943144+167602660+170476775+172506270+172966226+175174989
3709+184214330+197593966+212600105+229244484+247343147+262552538+271793158
3696+276178773+277032130+274581111+269561472+266274752+266339096+266373196
3682+264823273+262388518+259786025+255301394+251860508+252794357+252462964
3669+251887787+255001387+258710873+261012811+262516591+263787125+264262671
3655+265315470+267381425+266796578+263208983+265266271+271972619+277680888
3642+281358624+283714346+285562064+287122798+288874809+291205350+291918727
3628+291306964+295073177+300765479+304329740+304801272+305101120+308357755
3615+312430613+315781905+318929878+321360299+323751421+327353750+330927705
3601+333325966+335220625+337216145+338917862+341202374+344339102+345810675
3588+344436337+344678273+348137908+351412562+353000508+353672053+354024567
3574+354274828+354953991+355313759+353111953+349792114+350147069+352709532
3561+354712580+355905358+356617709+356643437+356107401+355898584+356013701
3547+355457479+354825645+355462018+356680776+357159310+356474901+355480653
3534+355288350+355565092+355568628+355664243+355596067+354308745+352868557
3520+352864269+353586564+353329438+351934548+350871098+350461629+349850072
3507+349163063+348574087+347852818+347420973+347308319+347109744+346718180
3493+345627655+343965352+342920833+342808681+342847000+342386097+341703649
3480+341449921+341238572+340467808+339265496+338229553+337994482+338110125
3466+337598882+336528953+335406519+334401322+333385110+332262766+331549823
3453+331761536+332128580+331371889+329784696+328715543+328400710+328309816
3439+328285592+328425275+328686690+328941353+329212029+329535575+329654183
3426+329577955+329898536+330825520+331687247+332075389+332899276+334939503
3412+337436937+339262348+340530989+342278849+344618331+346796347+348579059
3399+350158337+352191926+355002643+357683759+360096686+362897755+365546300
3385+367665971+369848914+372368177+374937049+377022347+378730222+380677410
3372+383080233+385705877+387996320+389849192+391588111+393234607+394707983
3358+395676411+395888033+396003584+396667693+397711574+398564314+398567690
3345+398043537+397882368+397855134+397349730+396610488+396257723+396105495
3331+395664687+395121329+394455669+393449286+392500611+392025726+391833172
3318+391393139+390649974+390415040+390930480+391493317+392103049+392695127
3304+393061851+394181595+396575636+399708144+402969568+405952357+408958092
3291+412348115+415759304+418604052+420866257+423108526+425312613+426849079
3277+427906872+429132267+430270623+430852574+431191654+431923551+433188497
3264+434465487+435374383+436011851+436397051+436422323+436281819+436375929
3250+436784623+436977451+436291718+435104643+434152455+433405184+433341273
3237+434335019+435253951+435174302+434268827+432895401+431539355+430850886
3223+430752533+430258990+429040849+427966176+427654467+427795655+427709711
3210+427100617+426390662+426065815+426044876+426110156+426298559+426656433
3196+427091722+427586086+428047240+428225971+428373637+428686806+428645020
3183+428099929+427396360+426868694+426577605+426086708+425602882+425673316
3169+425887676+425693662+425176808+424904240+425187756+425471273+425234287
3156+424612603+423997122+423568814+423297568+423310660+423195201+422365589
3142+421464493+421029935+420586207+419904900+419377645+419127931+418459945
3129+417227798+416483720+416670025+416639004+415494080+414164128+413739012
3115+413945298+413697363+412419690+410907721+410203194+410004345+409208536
3102+407723026+406518068+406375420+406901899+406846656+406114530+405670528
3088+405936117+406259140+405681157+404498415+403759219+403858529+404079686
3075+403503894+402443409+401833174+401663612+400757133+398651080+396518339
3061+395132551+393820162+391980290+390034585+388321440+386882735+385925438
3047+385327749+384689779+383871617+383151671+382823175+382904238+383096017
3034+382984845+382701420+382620493+382614449+382568534+382766106+383542527
3020+385840862+389931168+393264579+393852916+393362612+393884666+395547996
3007+398123734+401942111+406908742+412688745+419338915+427139575+436740145
2993+448829870+463062051+477440485+490021244+500835256+510533130+519368181
2980+527168567+532325336+532932468+528662197+520957929+512292622+503745832
2966+494839844+486060356+478465114+472584386+468455076+465652068+464245979
2953+464300813+464916749+465491173+466192278+467180048+468535957+470328933
2939+471985967+472221083+470647667+468019057+464676752+460854771+456857799
2926+452281248+447133285+442257433+438022152+434077185+429928441+425494539
2912+421224542+417554743+414275482+410929253+407698347+404716379+401800010
2899+399378781+397717276+396276928+394757935+393428028+392698457+392582222
2885+392379449+391577436+390272255+388410715+385868643+382764920+379170529
2872+375135648+371034393+367426498+364439307+361682533+358793626+355909008
2858+353320451+350806069+347988714+344878308+341803394+339031634+336434319
2845+333799094+331191332+328860723+326925304+325342468+324093785+322894529
2831+321456029+320141405+319315853+318618694+317766797+317112724+316653532
2818+315915818+315073182+314497891+313868748+313008686+312259545+311661331
2804+311006939+310257843+309493032+308797720+308103183+307404450+306798481
2791+306096645+305159991+304203058+303349634+302636417+302183771+301800282
2777+301149082+300273487+299389225+298679019+298238644+297899199+297480721
2764+297061421+296754799+296470689+296103965+295775788+295544709+295285164
2750+294990015+294743289+294573612+294350859+293944834+293503251+293153291
2737+292868200+292569743+292200784+291942653+291853014+291687078+291422538
2723+291221430+291073262+290923407+290790749+290683638+290613066+290573949
2710+290510061+290329937+290041631+289781333+289571809+289381969+289175661
2696+288824949+288349699+287877391+287408003+286888686+286275760+285589024
2683+284939171+284341459+283751251+283144803+282503937+281932706+281424976
2669+280888871+280403061+279921265+279302888+278563417+277803419+277135227
2656+276602292+276118329+275578575+275026139+274599153+274411093+274364288
2642+274234117+274049249+273942115+273943461+273965814+273897729+273880941
2629+274034013+274180744+274200565+274222826+274428656+274849437+275276766
2615+275499907+275677567+275995662+276301372+276472486+276595450+276710339
2602+276708811+276537492+276298772+276095543+275953602+275815402+275566190
2588+275175904+274761075+274369763+273888263+273305742+272772465+272343039
2575+271920432+271424882+270864714+270259544+269565783+268838287+268306767
2561+267992138+267644688+267143116+266575330+266058613+265640864+265321286
2548+265100130+264939805+264735800+264474112+264271499+264163269+264116055
2534+264193902+264514871+264994181+265357097+265570453+265788667+266020887
2521+266299819+266702171+267157235+267583286+267927566+268112456+268225498
2507+268464241+268832357+269130152+269247824+269320174+269467932+269595092
2494+269581589+269504882+269511885+269536747+269437618+269273165+269169908
2480+269153508+269178849+269178097+269122169+268995099+268816915+268711423
2467+268700999+268676821+268604494+268461663+268301498+268303847+268411278
2453+268337103+268011663+267637868+267382406+267220690+267127834+267096015
2440+266971637+266738095+266579093+266505146+266376457+266199733+266158562
2426+266309786+266521272+266652926+266627243+266557493+266622408+266817448
2413+267025695+267155798+267218363+267345706+267596720+267812791+267955074
2399+268213866+268605771+268930915+269062432+269117356+269301722+269553238
2386+269571690+269165802+268278735+266956424+265403764+263612065+261430764
2372+259133046+257072405+255185091+253195774+251322214+250239946+249998443
2359+250239238+250998302+252483629+255059709+258585012+261287387+261337202
2345+259061791+256965112+256410942+256799563+257602808+258442843+258914900
2332+259049975+259388713+260174075+261136619+262010024+262713889+263425692
2318+264350099+265385996+266368543+267268406+268059836+268748898+269378406
2305+269930751+270313282+270469364+270570568+270796081+271039546+271204410
2291+271370346+271560003+271739077+271906177+271975904+271847466+271592757
2278+271300983+271045430+270895848+270710730+270445438+270309085+270308994
2264+270304204+270295148+270266067+270123921+269914351+269757105+269612404
2251+269407579+269231128+269212219+269326538+269472813+269599700+269651818
2237+269626409+269554880+269389560+269147715+268986318+269058395+269310595
2224+269514006+269561038+269524772+269538936+269624128+269695543+269808061
2210+269987363+270103849+270099515+270047145+270105605+270300874+270455907
2197+270549173+270723617+270957136+271102248+271122251+271126106+271167961
2183+271115249+270939345+270825003+270838278+270830067+270636258+270338030
2170+270174420+270133843+270039710+269892363+269678596+269248485+268754213
2156+268536112+268510338+268351222+267996404+267599868+267261290+266973097
2143+266711682+266449104+266130918+265715062+265270696+264939029+264641006
2129+264157385+263559604+263054543+262644413+262235537+261796941+261410191
2116+261113718+260793524+260395004+260020183+259774483+259604464+259402923
2102+259204553+259058917+258946240+258918892+259003992+259081110+259122850
2089+259278545+259550954+259762782+259911611+260120428+260392290+260711549
2075+261073551+261445887+261796326+262098934+262381857+262675251+262970742
2062+263284344+263671118+264105015+264474408+264781669+265080240+265349364
2048+265582975+265805181+265976911+266085847+266267658+266542895+266776574
2035+266944335+267109564+267283506+267348147+267248722+267122770+267121972
2021+267243020+267249178+267087051+267089355+267283073+267370751+267362653
2008+267436007+267509407+267408865+267200755+267093780+267186020+267305311
1994+267096882+266677925+266646654+266961807+267192087+267383319+267634789
1981+267835144+268010773+268228874+268407378+268562115+268683482+268533101
1967+268250109+268390682+268866296+269174675+269223852+269061109+268766370
1954+268537640+268362193+268088917+267692838+267100760+266135799+265311866
1940+265364624+265682058+265601382+265369870+265252791+265172640+265036903
1927+264799187+264252681+263652232+263575502+263625865+263692285+264318417
1913+264947218+264983005+264893342+265206602+265779566+266337226+266836813
1900+267280541+267564103+267684626+267939381+268278050+268441044+269021033
1886+270138610+271065890+271779609+272478662+273135404+273769405+274386003
1873+274742486+274225655+273242469+273917960+276125720+277934913+278916912
1859+279582048+280242371+280964096+281659499+282222267+282487833+282342927
1846+281805431+281765470+283391826+285327153+286465076+287367015+288286221
1832+288395431+287691543+288008726+289492388+291018703+292755113+294458176
1819+295649562+296512293+297199850+297493471+297691819+298612804+300052969
1805+301179418+301536221+301330118+301619086+302725988+303584180+303474970
1792+303581443+305664915+308265264+309742905+310303849+310724904+311422474
1778+312519158+313158245+312419756+311114666+312150700+315247991+318105558
1765+319829993+320373145+320933450+322353817+324021138+325885917+327068591
1751+326312630+325130367+326297302+328739698+330763160+332107801+333445052
1738+335251508+336122017+335626832+337446768+341613029+345782597+348957325
1724+351106852+352804920+353716416+352860893+352751205+357197333+362913813
1711+367371871+370047444+371373473+373155751+375973790+378067482+379574637
1697+383280269+389876655+396731285+401652162+405301569+408115890+409776437
1684+413188766+421238592+429477323+436130823+441912286+448092087+454001464
1670+460265430+469246733+477999764+484322258+490106321+496871540+502965533
1657+506940928+508706488+512571349+521306953+528200450+536033773+548871179
1643+561562744+572073898+580777478+588242890+599790352+616702555+631695100
1630+644893027+657846623+670399372+683937017+700141728+714731921+726242934
1616+738690624+752086990+763136210+771795860+779475860+787346908+794607495
1603+800335402+805016555+808784433+810780957+811668048+813079565+814568815
1589+814668993+813174359+810562993+807248652+803852015+800642868+795739555
1576+788956134+786753598+787401924+786809253+787153578+789834375+792695911
1562+794197570+791253647+786206363+793076184+802695412+810270490+817323057
1549+825284430+832391466+837291221+841518382+848819842+866288404+884432845
1535+897867484+911287617+925327610+936381802+944855740+952189954+958087835
1522+961904342+965391211+969804221+975209608+981040977+984379314+984253226
1508+979819141+974875683+980965981+988456574+991454873+990243529+990064067
1495+995505766+1000914073+1000025705+995191274+996576424+1002583241+1007588283
1481+1009827679+1009382902+1006552751+1001636117+995774183+992831265+995143193
1468+996864822+993746182+989721018+990099102+990934279+985234564+977078858
1454+978631882+983539119+986698177+986064449+983393141+982701570+983924228
1441+984881114+983907075+980817266+980116936+982863332+984743256+986014543
1427+988035427+988580108+988195912+987694660+983322250+978664819+981017165
1414+985258924+986765509+986016824+984718713+983041242+981385668+980494837
1400+978510538+975461968+973651292+972370425+971794541+971412261+968136239
1387+962729300+961267421+963966739+966499550+967534809+967406622+965850860
1373+964995519+966556025+967719106+967006459+965336013+963060123+961726431
1360+961868760+961604995+960544008+959597705+959157125+958547301+957765771
1346+957492427+957617329+956936068+954183468+951086269+950949505+953151950
1333+955175116+956161471+956610810+957035880+958123144+960255245+962152048
1319+962956296+964575741+967749670+970839936+973434514+976155090+979428284
1306+983179009+986543714+988867320+990931907+993986681+997207141+998907512
1292+999512044+1000167395+1001069539+1002763250+1005739379+1008493712
1281+1009291848+1008648997+1007807798+1007370228+1007415664+1007406084
1269+1007487741+1008445996+1009691463+1009556616+1007709171+1006274206
1258+1006565250+1007217681+1007241585+1007071612+1007632077+1009126163
1246+1010158502+1009911342+1009117586+1008641333+1009368030+1011252516
1234+1012610295+1012573436+1012166613+1012103021+1012521340+1013860233
1223+1015027875+1014128832+1011939435+1010501003+1010454928+1011132267
1211+1011289832+1011201333+1011522758+1010895417+1009342666+1008158419
1200+1006830748+1005503624+1004941882+1004843438+1005277815+1005936450
1188+1005917199+1005543130+1004874641+1003069713+1001261044+1000885607
1177+1000825208+1000515735+1000862433+1001290514+1000637627+999414421+998648310
1163+998503974+998960794+999970872+1001140156+1002160361+1002906400+1002987053
1150+1002026243+1000652133+999702728+998977126+998465016+998719018+999196093
1136+998990811+998548862+998175250+996902594+994536928+992377181+991410898
1123+990915849+989435996+987315208+985741838+984358604+983026462+982830669
1109+984239723+986833936+989116578+989587722+989332990+989489552+989763443
1096+990935374+992898962+994433466+996806066+1001276646+1005028739+1005796219
1082+1006641615+1009764269+1013065017+1015176134+1016021986+1015280782
1070+1014202825+1015328499+1019635127+1024689802+1027052822+1027703793
1059+1029759165+1031831872+1031747478+1031132454+1031965716+1033951930
1047+1034086778+1031256627+1030186607+1033352781+1036722321+1038012585
1036+1038838821+1038885990+1037374935+1035996992+1036356190+1038248066
1024+1039354580+1038587009+1038267773+1039447550+1041347911+1042741729
1013+1041664684+1038879056+1037301489+1037346469+1037416630+1037322200
1001+1037652293+1037524015+1036593495+1036060310+1036333563+1036597692
989+1036035494+1034910733+1034321985+1034626805+1034897321+1034246715
978+1033120676+1032344985+1032033322+1031941538+1031148238+1029131459
966+1027333191+1026183431+1024130523+1021632472+1020616465+1021272180
955+1022111919+1021259042+1018864727+1017017466+1016390946+1016240132
943+1016074538+1016123258+1017063084+1018423235+1018869654+1018162116
932+1017131602+1016540573+1016615022+1017351573+1018490020+1019305946
920+1019442527+1019328938+1019376654+1019186792+1017987399+1016127729
908+1014702891+1013818720+1012974237+1012781637+1014242969+1016273890
897+1016487748+1014029932+1010598352+1008667335+1008180681+1007421868
885+1006854834+1007393129+1007181369+1006145290+1006555853+1006980923
874+1006479944+1006922258+1007403530+1007019060+1006829562+1006909302
862+1008092820+1011538907+1015198487+1016165410+1015074862+1015209709
851+1017668072+1020073244+1021077208+1020897655+1019837672+1018673040
839+1018034477+1019515060+1022040390+1021515690+1019052857+1018064585
827+1018496133+1019609216+1021265155+1024048410+1027088222+1027183655
816+1024865066+1023088695+1021956909+1020897746+1020114847+1021083412
804+1024584697+1028160249+1030020101+1030192538+1029417211+1028615518
793+1026690249+1023144714+1020203894+1019382676+1019816505+1020393848
781+1021634388+1023815758+1025504086+1025404729+1022823289+1019328755
770+1018391028+1019492798+1019656020+1018487556+1016516852+1013882586
758+1010763855+1007959159+1006908299+1007617114+1008569895+1008165353
746+1006711867+1006461332+1007815918+1010271635+1013400675+1014337764
735+1012184678+1009837441+1009586176+1011396578+1012881997+1012740581
723+1012047185+1011259268+1011074788+1012865483+1013968530+1010919504
712+1007922573+1009395218+1012915116+1015193925+1015301949+1013823191
700+1011625399+1011103710+1014248170+1017355405+1017606943+1017494540
689+1017504941+1016346879+1015487797+1016689197+1017902458+1015200950
677+1010991489+1012690857+1020471034+1026737145+1029426609+1033093123
665+1033600853+1028949352+1027282099+1031794465+1036061679+1036865015
654+1038270875+1040969554+1038267043+1032016808+1034673610+1043318342
642+1040630703+1028952910+1023705179+1022443837+1013880305+1006275575
631+1021175743+1052871606+1073741823+1073622486+1051169319+1018115677+993650840
617+983039144+988772343+998798941+1000974927+1009425509+1030939581+1053163471
604+1065404922+1061742148+1040909338
##END=
