##TITLE=Sample description
##JCAMP-DX=4.24
##DATA TYPE=INFRARED SPECTRUM
##DATE=24/8/2023
##SAMPLING PROCEDURE=Instrument type and / or accessory
##ORIGIN=Default
##XUNITS=1/CM
##YUNITS=ABSORBANCE
##RESOLUTION=4
##FIRSTX=4397.6552
##LASTX=599.8556
##DELTAX=-1.9287962
##MAXY=1.4175105
##MINY=0.41241717
##XFACTOR=1
##YFACTOR=1.3201595e-009
##NPOINTS=1970
##FIRSTY=0.65887594
##XYDATA=(X++(Y..Y))
4398+499088120+500820148+501400410+500702985+499712900+499994408+501134705
4384+500994019+499037914+497105738+497148855+498212399+498192307+497663470
4371+497594346+497697874+497956672+498687011+499610817+499147763+496996746
4357+495318672+495253386+495801141+496153262+496870373+497868359+497913328
4344+497136259+496596405+496185047+495315557+494346466+494180858+494951290
4330+495666414+495762809+496005442+496317200+495477283+493934206+493178176
4317+493373674+493984728+494178690+493185219+491989388+491947353+492585723
4303+492794134+492337987+492147321+493052660+493908515+493437154+492611820
4290+492463413+492343496+491555365+490456018+490091615+491297606+493017489
4276+493075145+491911640+491456622+491597218+491411337+490663344+489779406
4263+489195803+488658071+488444694+489291745+490513854+490365854+488954975
4249+488168018+488288567+488668997+489209709+489481645+489672537+489928987
4236+489388636+488402976+488139167+488509981+488837947+488911180+488874970
4222+488584206+487776210+487093954+487027404+486942342+486783190+486731855
4209+485986751+484772860+484545757+485260430+486037545+486958235+487185292
4195+486023322+485388971+486110190+486795741+486594690+485181509+483660284
4182+483881336+485167693+485744208+485639822+485442067+485081593+484693487
4168+484726265+485195324+485448478+484908624+483818623+482982724+482856531
4155+483141922+483428531+483476074+483046069+481968800+480725787+480411817
4141+481000703+481579611+482192110+483027964+483170456+482408963+482145967
4128+482687672+483181879+482948320+481391382+479817829+479876614+480523652
4114+480629393+480741138+480925484+480432315+479475866+479007078+479254769
4101+479894177+480539861+480567628+479781890+479238695+479679942+480147737
4087+479694571+478764309+478156641+477920463+477660447+477231029+476816601
4074+476778947+477363227+478195966+478646198+478750899+478750312+478566463
4060+478349745+478277280+478013471+477272567+476538660+476307946+476559565
4047+477209403+477695844+477468516+477125560+477089756+476630630+475773014
4033+475585824+475990138+476323929+476629682+476977424+477284170+477112241
4020+476130328+475171622+475028317+475396783+475830896+475988107+475708315
4006+475435295+475252530+474983890+474844242+474427466+473472688+472680448
3993+472326566+472380023+472801540+473115284+473568134+474798144+475879748
3979+475598917+474444352+473510614+473113749+472907461+472849534+473036408
3966+473033744+472703068+472347832+471992279+471731991+471999999+472525405
3952+472327379+471142699+470078930+470513675+471638216+471987989+472231436
3939+472802443+472799282+471597355+469550409+468636672+469752905+471039803
3925+471120395+470795499+470546544+469214993+467390002+467537596+469379563
3912+470898846+471833578+472329185+471044724+468089504+466462674+466612029
3898+467303314+468536033+469338522+468014059+466964783+468882556+470045835
3885+468869418+468580009+468017626+467252566+467813685+467997534+467912653
3871+466464932+463767154+464434239+465851259+465680864+466862835+468985497
3858+470473086+469339380+461934804+458496619+463609944+468634505+470398047
3844+469024145+466761700+464692811+462166015+461907985+464296307+466199452
3831+467267421+468298140+468657937+468537523+466575052+462207507+462163848
3817+464046766+464249262+466741744+470280026+471025220+468172805+466550716
3804+466825542+464309446+462976947+464591270+465699737+467301012+469355769
3790+470545822+471094660+470929909+470391591+470631786+470184941+468719792
3777+468918405+469999918+469969532+468309337+466757637+466982888+467866194
3763+469044598+469077873+466715918+465733373+467500347+468209466+464061755
3750+459919327+462287603+464776112+463395483+464099636+467153237+468159215
3736+464913006+461142113+461823194+465306890+468181835+468566916+467534119
3723+467170123+467469646+468234434+469211065+469689605+468073205+464154312
3709+463080745+465631471+468299720+468715142+467958480+469026945+470721408
3696+471433056+471698942+471005309+467721174+465159522+466851864+469875892
3682+471272956+470479723+468165897+463309473+460138212+461957921+461828522
3669+460072249+461661694+463570889+463495173+462611054+461797459+460167920
3655+459612265+461807347+461693480+453809506+448232494+450685200+453485873
3642+453067382+450692379+448284371+445571514+442786056+440815232+435629667
3628+426397211+423658437+425091891+425320032+422217714+417005015+414802167
3615+414166552+411861034+408855742+405385591+402445586+401849205+401158462
3601+398492831+395758347+393637039+390771395+388425875+387980474+386692763
3588+382305804+379287284+379858607+380753110+380017263+377927176+375587908
3574+373821251+373239656+372989279+369803345+363851118+361685518+362935417
3561+363806871+363548413+362736375+361342043+359356636+357878235+357174895
3547+355967731+354449576+354012190+354471632+354812489+354390092+353373459
3534+352276324+350806570+348671130+346913660+346415412+346040287+345201295
3520+345021532+345265091+345044129+344445356+343379735+341833882+340473231
3507+340027876+340012773+339392599+338720931+338365378+337411097+336144380
3493+335575112+335164928+334101339+333076263+332939415+333123964+332815005
3480+332502683+332606053+332334094+331366313+330482939+330126438+329863555
3466+329192497+328051793+326749385+325693811+325088784+324871863+324527236
3453+323774051+323165502+322627906+321953778+322000666+322404009+322201762
3439+321725614+321188741+320645478+320314171+320168834+320091561+319736888
3426+319155768+318812699+318699464+318500919+318368834+318741069+319467594
3412+319989907+320159353+320250691+320238478+319960853+319637853+319393752
3399+319206494+319164776+319439736+320037855+320515606+320576648+320602451
3385+321184271+322147018+322864106+323666211+324975662+325913915+326051170
3372+326625269+328177105+329794002+331000602+332017325+333340004+335228679
3358+337104689+338532635+339646881+340707806+342166453+343877419+345014805
3345+345688143+346562780+347500853+348257944+348869834+349365012+349833529
3331+350197705+350423769+350686991+350993602+351140632+350940687+350532625
3318+350376610+350639178+351036833+351125619+350678706+350407967+350802732
3304+351090809+351304050+352189592+353244918+353641579+353466444+353421204
3291+353891279+354454385+354887866+355536078+356602037+358115180+359677175
3277+360588023+361023558+361650866+362516542+363213538+363365038+363434071
3264+364149444+364929041+365248746+365766521+366672357+367617473+368500599
3250+369056774+368992503+368624670+368847348+369754786+370180592+369776977
3237+369684669+370525016+371483406+371814578+371859298+372172388+372776738
3223+373331445+373741268+374099056+374037585+373568255+373457187+373863420
3210+374440545+375049861+375373222+375286084+375306559+375667146+375707623
3196+375111919+374770995+375103454+375561248+376277523+377464054+378516378
3183+378956970+378553784+377918010+378333093+379407924+380102595+380679381
3169+381243164+381638132+382091389+382465408+382697116+383088698+383844863
3156+384666811+384806007+384395778+384206918+384198159+384033904+383918773
3142+384099416+384296314+384327648+384352706+384308549+384404944+384892378
3129+385238811+385185444+385187837+385489933+385872937+385866571+385531832
3115+385528852+385891313+386115210+385913256+385438192+385309199+385729903
3102+386205644+386462816+386513068+386308134+386049336+386007799+386303348
3088+387054863+387710164+387622032+387525411+388271915+389398126+390034283
3075+389951253+389623738+389511406+389517862+389396094+389261142+389286110
3061+389222313+388967850+388910781+389086729+389068353+388871230+388905860
3047+389185742+389406749+389499261+389596874+389766004+389814992+389519849
3034+389170256+389187277+389506214+389944255+390264998+390163321+389871880
3020+389902627+390208651+390218539+389805465+389579943+389856755+390333805
3007+390898582+391694162+392311312+392242007+392063937+392636253+393695733
2993+394470816+394986560+395511785+395932353+396403760+397094277+397945753
2980+398810819+399239244+399293739+399594255+399918564+399635476+399145964
2966+399048170+399049706+398827163+398624351+398633697+398632433+398669501
2953+398907484+398983787+399001576+399464585+400207205+400679650+400581044
2939+400372092+400536842+400629083+400380264+400119976+399934592+399936985
2926+400173027+400065752+399455600+399027537+398905633+398537574+397939026
2912+397844573+398530531+399287463+399526440+399382458+399281458+399477543
2899+399903213+400719653+401801256+402220335+401780758+401235351+401113312
2885+401431888+401652714+401407281+401123877+401325335+402027591+402714768
2872+402863852+402578822+402319032+402380751+402724204+403116644+403376119
2858+403367224+403065444+402555751+401916929+401222619+400806882+401265918
2845+402499269+403665843+404266694+404483412+404911701+405709584+406223161
2831+406175347+406134577+406433467+406908260+407491593+408079124+408453189
2818+408804317+409499259+410301522+410643259+410473406+410325226+410568311
2804+410977953+411465117+412135272+412624874+412786013+412984852+413435851
2791+414099233+414574794+414509101+414410133+414842666+415382430+415602308
2777+415827514+416190743+416486563+416836698+417367973+417894101+418237553
2764+418377698+418494274+418864275+419547388+420240705+420494310+420355069
2750+420406629+420919619+421573520+421937471+421954854+421903338+422031924
2737+422503466+423229020+423913849+424505263+425046742+425510428+425954068
2723+426420372+426908214+427481207+428154748+428680786+428947394+429286016
2710+429800225+430265581+430565465+430738343+431073894+431722332+432381245
2696+432779013+432997627+433263513+433557979+433772168+434020943+434363176
2683+434666536+434821535+434877882+434922083+434941497+435129681+435776087
2669+436497713+436601060+436217108+436001564+436209433+436668333+437094229
2656+437272976+437222996+437246699+437515294+437827955+438070047+438371917
2642+438861113+439444129+439833589+440030848+440295605+440643257+440964993
2629+441287406+441684722+442162269+442634082+443101967+443631572+444166504
2615+444727623+445360349+445917946+446311696+446716372+447368693+448122691
2602+448759209+449419883+449949939+450243727+450759561+451393958+451750595
2588+452100955+452620853+453051489+453290511+453541317+453967213+454477945
2575+454970256+455455659+455953885+456366236+456497170+456386011+456459425
2561+457084566+457985571+458626559+459019315+459365883+459569959+459708343
2548+460075680+460639598+461157915+461565300+461909927+462163216+462321916
2534+462649296+463232222+463684892+463905944+464113993+464349087+464697191
2521+465177763+465686057+466256431+466781295+467146645+467429237+467636518
2507+467925521+468428442+468937639+469337800+469647210+469895532+470201737
2494+470569841+470867196+471042422+471195343+471354180+471438609+471496988
2480+471533740+471563132+471803418+472155585+472172922+471828250+471572975
2467+471594466+471622639+471525748+471429986+471363977+471209385+470891306
2453+470615442+470549569+470415339+470021364+469554924+469079589+468629899
2440+468464065+468544792+468507544+468222470+467848044+467547212+467323948
2426+467116892+466778044+466247266+465739830+465224718+464593121+464015929
2413+463569083+463292678+463059661+462601889+462053954+461626478+461243022
2399+460739108+460044030+459365026+458884499+458482803+458093207+457614260
2386+456723911+455359265+453702004+451747253+449407196+446673705+443589222
2372+440174288+436348087+432254601+428549356+425837943+423937597+422512315
2359+421958646+422780143+424875986+427959476+431585890+434071329+433584978
2345+430550520+427711063+426283614+425594587+425597928+426209343+426822159
2332+427087457+427279479+427841139+428739390+429584365+430426720+431638670
2318+433147253+434613937+435747056+436379963+436915753+437863533+438967801
2305+439745322+440116316+440287072+440534943+440950409+441453466+441918236
2291+442269770+442627671+443055960+443461448+443847071+444169574+444357035
2278+444456455+444541832+444878829+445477241+445824306+445879750+446062380
2264+446417030+446881980+447529290+448201115+448708913+449134763+449584724
2251+450111484+450748274+451453736+452136082+452718195+453261390+453874476
2237+454509595+455115231+455883271+456868435+457749438+458430745+459034485
2224+459533524+460068501+460863089+461864235+462823348+463516529+464036291
2210+464628428+465311586+466078361+467017698+468113795+469235084+470297499
2197+471364293+472440388+473462846+474581246+475827103+476975708+478065755
2183+479196210+480313210+481496671+482707041+483783046+484823292+486032081
2170+487405306+488727827+489879593+491103417+492606943+494096609+495304676
2156+496299592+497169082+498059974+498967480+499693711+500232842+500740775
2143+501349301+501925455+502163529+502012729+501615909+501080435+500413802
2129+499485752+498352498+497308775+496245774+494753083+492792328+490788228
2116+489095932+487457454+485619640+483724938+481726573+479566120+477368961
2102+475221196+473138536+471067480+468990012+466888074+464806723+462856578
2089+460985715+459051552+456992506+454986826+453232720+451508593+449546979
2075+447525949+445675132+443951457+442224214+440317277+438290061+436548867
2062+435204494+433963377+432582748+430973617+429206463+427519674+426024004
2048+424541608+422982187+421454325+419968227+418555587+417290676+415950140
2035+414369273+412793147+411436447+410177270+408831903+407470553+406214537
2021+405055502+403838631+402447347+401143337+400006154+398860709+397819605
2008+396835977+395653103+394344488+393178816+392206745+391280998+390295067
1994+389114857+387720367+386483224+385613327+384915901+384250081+383508138
1981+382599864+381577587+380579781+379748397+379051603+378295258+377336597
1967+376298495+375491830+374861587+374144815+373370297+372620678+371861940
1954+371123970+370482078+369870301+369091539+368115337+366954722+365806907
1940+365315883+365328593+365090700+364507480+363889066+363320339+362733779
1927+362079087+361159571+360088804+359364920+358646049+357798772+357629303
1913+357872027+357624404+356879549+356255108+355916418+355647778+355345412
1900+354971980+354494613+353860645+353266635+352828932+352217584+351767308
1886+351926031+352136654+352056446+351893636+351762951+351569417+351291612
1873+350836346+349611415+347785995+347292669+348235008+348990722+349163848
1859+349038806+348781769+348541280+348330973+348099401+347759786+347161644
1846+346027329+344840843+345070429+345919896+346094873+345923372+345800136
1832+344951708+343096715+342080308+342361635+342591582+342917065+343388607
1819+343424004+343024273+342491801+341665790+340487453+339873035+340086593
1805+340247664+339710655+338387118+337175213+336869844+336658634+335434110
1792+333996050+334455899+335680017+335901656+335223758+334358985+333628826
1778+333343797+333012151+331504832+328975891+328398496+330025664+331506728
1765+332042315+331418438+330521068+330538067+330788737+331121896+331181335
1751+329556380+327049359+326642629+327657140+328082359+327527741+326806229
1738+326757783+326103927+323803082+323522026+325537164+327356534+328409174
1724+328588644+328320884+327340213+324108270+320776119+322146612+325096820
1711+326829526+326866842+325128470+323256027+322838868+321508671+318678537
1697+318331427+320435601+323106198+324600627+324434183+323539905+321377015
1684+318221578+319244645+322049337+323374928+322553816+320976741+320086843
1670+318907558+318817733+320567460+321273599+320355934+320327580+321181968
1657+320968275+317964068+312443087+312399495+313815454+313150062+314311151
1643+317642874+319849266+320235024+318781997+317797872+321669832+326670870
1630+329992863+332239100+334661239+337649396+341818666+346165374+349204505
1616+352701385+358301987+363595458+367621627+371161602+374983491+378851771
1603+382673277+386748071+390909463+394623376+398027158+401759357+405725161
1589+409641616+413589540+417631872+421659034+425455661+428485469+430383512
1576+433490616+439170252+443847206+447298124+452145563+458005978+463157455
1562+466724181+467499896+468784672+476905365+485752199+493386767+499917518
1549+506118135+511314987+514343259+515123895+516643314+526443346+537541022
1535+544670185+551314261+559530852+566752662+572395502+577341277+581337421
1522+586017084+593425452+601497519+609854887+618132881+624724810+628847598
1508+630807406+636541041+647959279+657121979+663545635+668450595+674299858
1495+681961199+688602702+693145743+697490577+704674100+713258796+721019918
1481+727816419+733797338+738676969+742319502+745949573+752789192+761765741
1468+769206391+775145005+782404696+790535503+796440525+799504195+805650136
1454+817462801+829052155+839019286+847549124+855708375+864647721+874020773
1441+882470245+889113102+895471337+904338623+914315596+922554762+929762711
1427+937752742+945104176+951477762+956827174+959758555+963631757+971003780
1414+977858118+982179203+984634798+986016105+987092019+989603058+993869512
1400+996532254+995482526+993076505+992665373+995843723+998720112+996517445
1387+990867697+989373517+993696499+999586893+1003689274+1005274566+1005609215
1373+1006721610+1008785307+1009901766+1009764782+1009386609+1008079258
1362+1007305394+1009206553+1010968379+1010950952+1010730080+1010663710
1350+1009379837+1007898389+1008067700+1008964190+1008303019+1004972606
1339+1001659349+1001394321+1002589792+1003639249+1004620168+1005150676
1327+1005345541+1006314813+1008262746+1010411685+1012356368+1014831648
1315+1017594441+1019670599+1022258212+1026187760+1030383781+1034221405
1304+1037988054+1041570221+1044437580+1047199199+1050476607+1053489348
1292+1056310023+1059965874+1063090044+1063829956+1063529440+1063906710
1281+1065122769+1067049753+1069114262+1069860765+1069205193+1068467901
1269+1067398759+1066273451+1065566408+1064084599+1062766954+1062406751
1258+1061657719+1060868595+1060234695+1059897698+1061422039+1063722048
1246+1064678768+1065169995+1065632417+1065529476+1065503470+1065297407
1234+1064024099+1062781853+1062712143+1063174203+1064474150+1066657132
1223+1067460343+1066585976+1066134932+1066567916+1066872315+1067158202
1211+1068028234+1068875150+1069245828+1069260637+1069004007+1069310392
1200+1071013795+1073124899+1073741823+1072695256+1071208661+1070081095
1188+1069750781+1070016712+1069500381+1068021191+1067483821+1068674144
1177+1070199477+1070465228+1069634656+1068922828+1068385909+1067443186
1165+1066447006+1065920020+1064939823+1063149461+1061876785+1061445516
1153+1060928915+1059832322+1058493276+1056436171+1053266129+1050427214
1142+1048505738+1047059055+1045673505+1043437969+1039826635+1035347074
1130+1031868209+1030485910+1029516548+1027126330+1023259088+1018823232
1119+1014363808+1008796685+1001781976+995479546+990619375+985698252+980366719
1105+975778348+972553765+970138714+967447619+963440594+959353654+957142769
1092+954845920+950159033+945293173+942822588+941200273+937710391+932440623
1078+926862483+921816296+917399764+912783491+907558420+902932485+899771382
1065+897377823+894764475+891501967+887742361+883919908+880303517+877158397
1051+875042688+873435634+870788063+867396607+865019121+864263227+864210221
1038+863491711+861581703+859342194+858323890+858551715+858075206+856106324
1024+854245800+853725406+853682965+852930502+851776389+851366792+851949041
1011+852903142+854076850+855159988+855390251+854934421+854681945+855213084
997+856347242+857007509+856666991+856356181+856519442+856571093+856684690
984+856559716+854979390+852391055+850314355+848524897+846156711+843462004
970+840666342+837809548+834820014+831620986+829016487+827466502+826647128
957+826582744+827216644+828693938+831911207+835780165+837360309+837421442
943+839262822+842974208+846947461+851170120+855993269+860666250+864196767
930+866797382+870034065+874393257+878314407+881081625+883181261+885066888
916+887498734+889922363+890514545+889565501+889026596+889018379+888099314
903+886118512+884268733+882817265+881040087+878665039+876323762+875041785
889+874240290+872553953+870649454+869366303+868320368+867500722+867351187
876+867820562+868297161+869028223+870740837+873126721+875743139+878358654
862+881257528+885221931+889882722+894862359+900079754+904155677+906876301
849+910075690+913773982+915831719+916773359+920014105+925779706+930869869
835+934506397+938336165+941864333+943118950+943244736+945817179+950534406
822+953367452+954177887+956495324+960984637+965304007+968616993+971657546
808+973108563+972585370+974151789+980053922+986225057+988181388+987682305
795+990957184+1000735770+1010738207+1014335725+1014744058+1016499564+1019294864
781+1022542293+1025922551+1029420470+1034564993+1040751027+1043591387
770+1042549335+1043187659+1047654939+1052296496+1054443178+1053950145
758+1051204147+1048334350+1047823979+1049263799+1050962868+1051910467
746+1051067615+1048618341+1046304606+1046219995+1049251067+1051511435
735+1048919489+1044530318+1042501386+1042014583+1041496085+1041465384
723+1041287946+1039957388+1038819618+1038316742+1036387140+1032749077
712+1030798164+1031316210+1030926660+1028280533+1024450314+1021636954
700+1021571487+1025058208+1033486460+1041997426+1041862881+1035063083
689+1029259647+1027595253+1029176752+1029968134+1029747353+1032969497
677+1037529514+1036772446+1032093867+1028833074+1026128072+1026203111
665+1031418068+1033508945+1031405065+1030068186+1031526698+1032891660
654+1029132054+1022135495+1019201405+1022827909+1028472961+1030217450
642+1028747922+1028429888+1026785631+1025667456+1039390761+1057507751
631+1052392755+1036432109+1026770822+1016224964+1003017900+995761550+998564256
617+1004526438+1010127785+1023329882+1041351787+1049995493+1051386913
606+1055696350+1058536348+1045332626+1013189287
##END=
