##TITLE=Sample description
##JCAMP-DX=4.24
##DATA TYPE=INFRARED SPECTRUM
##DATE=24/8/2023
##SAMPLING PROCEDURE=Instrument type and / or accessory
##ORIGIN=Default
##XUNITS=1/CM
##YUNITS=ABSORBANCE
##RESOLUTION=4
##FIRSTX=4397.6552
##LASTX=599.8556
##DELTAX=-1.9287962
##MAXY=1.3229301
##MINY=0.1220308
##XFACTOR=1
##YFACTOR=1.2320747e-009
##NPOINTS=1970
##FIRSTY=0.15730616
##XYDATA=(X++(Y..Y))
4398+127675837+127530245+127927968+128701125+129078397+129028423+128935792
4384+128617964+127880401+127387883+127740530+128640206+129320526+129187064
4371+128672800+128720500+129282767+129670887+129916766+130301137+130465645
4357+130407059+130466007+130217746+129393334+128736610+128681484+128520677
4344+127802139+127169228+127017396+126816641+126210798+125610700+125514913
4330+125861453+126099482+125980969+125897869+125836683+125388587+124882015
4317+124757745+124842394+124938991+124975081+124942644+124976109+125078306
4303+124979362+124516366+124130834+124266242+124514685+124481727+124542175
4290+124987659+125425862+125431619+125303552+125681851+126601737+127294441
4276+127279457+127115735+127120766+126833344+126296705+126118506+126414480
4263+126658338+126362401+125654748+125161963+125138863+125110247+124809170
4249+124642583+124817552+125131582+125435066+125366902+124942740+124829610
4236+125031840+125216811+125374461+125434800+125547701+125828907+126130734
4222+126457463+126776355+126910131+126729453+126508054+126887756+127674265
4209+128026018+128007840+128046965+128145921+128344982+128596835+128685354
4195+128598867+128562197+128649192+128727648+128863649+129089487+129031059
4182+128528611+128121236+128190888+128349856+128101619+127633954+127576470
4168+127882191+127886896+127430588+127085330+127394752+128061793+128379971
4155+128319802+128230666+127908436+127216784+126762326+126815251+126893150
4141+126866894+127100823+127325101+126979770+126458999+126382369+126524381
4128+126353294+125987101+125948024+126220559+126382091+126294479+126253056
4114+126426937+126572105+126649255+126784543+126849042+126854098+127008954
4101+127221670+127267882+127259948+127404282+127587294+127686952+127744932
4087+127686952+127606307+127681086+127700679+127537913+127421626+127569745
4074+128016415+128459213+128688329+128909680+129004440+128798606+128573021
4060+128472517+128557686+128642020+128373404+127952556+127647295+127444581
4047+127209999+127040230+127399554+128040168+128176955+127917821+127925102
4033+128113375+127914568+127236945+126434060+126031802+126197507+126393194
4020+126370904+126372742+126340269+126110427+125672248+125196045+125038649
4006+125247385+125479573+125472522+125230272+124863147+124517551+124249443
3993+124028902+124003359+124098651+124025189+123803270+123526152+123313545
3979+123294557+123209013+122910742+122784307+122789012+122666520+122719373
3966+122675301+121946761+121276491+121601793+122413180+122717341+122162500
3952+121048814+119788751+119105855+119273410+119076816+118620109+119354116
3939+120535723+120627362+118970035+116293939+115294279+116656685+117514611
3925+116759112+116531194+117001798+116258176+115458339+116892828+119115869
3912+120189062+120036601+118012609+113121309+107748387+106042344+107908952
3898+111776331+115362491+115903811+113615085+113235806+114820240+113734299
3885+111120695+110152432+110166038+112447737+114524908+112934475+109542852
3871+106530327+106056966+108343974+108816960+108682931+111307456+113495327
3858+112618751+107461714+99044973+100549808+109287056+115111618+115931398
3844+112771153+108086279+103569276+101374856+103836634+107665601+110386410
3831+112483428+113396250+112984159+112128567+108650385+103636024+104629673
3817+107959059+110999461+115406563+118398298+117496639+113486655+111006536
3804+109596128+106921168+107690926+110976941+114232382+117903009+120530873
3790+121343796+120793248+119400014+118758444+119016707+118171129+117935942
3777+120342794+122225584+121157361+118063272+116554814+117376530+118621161
3763+119679502+118681354+115938256+115466587+116125573+113279467+106565147
3750+104740059+108604777+110915490+112060790+115371623+117649935+115208409
3736+109223609+108352549+115105825+122151687+125466826+125284164+124597604
3723+125842235+128743963+132479683+135608447+136255411+133699230+134527041
3709+146283684+163041491+179857340+196766061+214393042+228696346+236175308
3696+238062150+235652348+229164108+222318697+222826854+228264069+232425281
3682+233668485+232165397+228604381+224546552+226409374+231802784+234769290
3669+240647055+250543342+258902169+264294079+267835140+270278564+272182072
3655+275533058+278569784+276880661+273615303+281419579+294764115+304921157
3642+311558061+316649208+321418355+325716330+329345703+331727302+331599440
3628+334104304+343544367+352638048+357290509+358192579+360429238+366548455
3615+373105802+379057004+384755458+389537207+395160095+402465648+408296632
3601+411109201+413541426+417300065+421248633+425700134+430032868+431060744
3588+429423360+432206806+438858126+444066589+447175421+449466433+451583479
3574+453853397+455462335+454545485+450296300+447870121+452300384+458481379
3561+462368266+464789655+466435263+466440294+466227143+467787800+469194568
3547+468613409+468525895+470718893+473201431+474855844+476298024+477944986
3534+479170871+479176918+478210530+478011796+479037833+479629973+479856960
3520+480586057+481233928+481087151+480781986+480888223+480327576+479278318
3507+479082969+479182337+479154084+480025653+481171715+480785130+479353593
3493+478546899+478547092+478402444+477588106+476715183+475880430+474918976
3480+474773844+475410830+475652524+475436954+475090426+474764991+474895658
3466+475091152+474380487+472853646+471705600+471271896+470959184+470606416
3453+470329938+470191869+469604760+468420190+467760999+468063648+468643645
3439+468535183+467760708+467113805+466590070+466170976+466393368+467207318
3426+468146228+468625939+468252368+467944930+468739481+470531624+472644800
3412+474731900+477114539+479156261+480205423+481228897+483009236+485187963
3399+486935212+488056698+488907368+489968914+492048129+494676331+496763142
3385+498947868+501628995+503793935+505743256+508427335+510988776+512417169
3372+513271563+514285313+515387835+516679756+518649637+520727498+521860837
3358+522500919+523590669+524785931+525149972+524822650+524687145+524628995
3345+524136706+523575285+523414043+523277570+522512094+521506762+520858020
3331+520040247+518799849+517665301+516715603+515726091+514610797+513819390
3318+513753887+513680692+513524336+513807102+514130457+515006379+517127682
3304+519249953+520720289+522865878+525835190+528468182+531264254+535251089
3291+539602303+543013156+546086383+549626403+552447874+553714250+554460328
3277+555729414+557569837+559236780+559792782+559980148+561072849+562153553
3264+562465975+562771382+563525877+564702755+565918626+566828655+567643863
3250+568811889+569816253+569587089+568724325+568558584+569397836+570649119
3237+570656618+568984064+567852854+568062909+568046364+567652571+567920340
3223+568536621+568737678+568959004+568870570+567129417+564559752+563031459
3210+563144856+564085846+564152994+563537197+564121645+566073531+567685032
3196+567742021+567222254+567774144+568917980+569219856+568910724+568598447
3183+568068859+567619336+567439855+566949743+566348363+566391177+566803498
3169+566657108+565950846+565413082+564991666+564075106+562799634+562098984
3156+562246051+562258920+561284839+559607690+558254427+557462778+556723619
3142+556366738+556220783+555606003+555156673+554705940+553287319+551773540
3129+551026447+550388735+549485335+548798762+548757157+549006688+548911820
3115+548492242+547770112+546738994+545672658+544301109+542547958+541050482
3102+540090286+539357368+538872142+539210687+539910274+539645311+538385658
3088+537322273+537027219+536645086+535639125+534808145+534617683+534878002
3075+535556738+536263919+536181146+535048049+533201675+530739987+527704060
3061+524560976+521814104+519717473+518214966+516826629+514827286+512281083
3047+510441724+509904589+509983879+510062638+509970140+509689696+509291598
3034+508973855+508420997+507002183+505337563+504438226+504013085+503620937
3020+503731093+504179890+504009069+503785517+505047346+507584019+510212850
3007+513105435+516859962+521092699+525588852+531025511+538090314+547368579
2993+559748710+575527164+593022680+608615703+618954353+623830318+625818438
2980+626823770+626643225+624436584+619582873+611963036+602477958+592461356
2966+583005981+574858201+567936015+561870739+556929368+553267485+550936900
2953+550402910+551554777+553434919+554793358+555054306+555035826+555532711
2939+555988910+555339007+553611255+551776878+549832298+546864195+543071499
2926+539538058+536292994+532102587+526308999+519916933+514084885+508939749
2912+504284821+500147580+496551684+493355772+490490036+487879346+485701200
2899+484317749+483459582+482765123+482136603+481597340+481215109+480620066
2885+479713860+478631124+476971390+474645934+472000074+468923799+465074114
2872+460651544+456423063+452796350+449479398+446515407+444103452+441886700
2858+439641696+437140533+434110507+430794039+427463347+424322682+421452351
2845+418565813+415554848+412548334+409554785+406799447+404511314+402228744
2831+399727218+397630249+396103964+394676514+393231092+391745929+390132323
2818+388772916+387891454+387157109+386264786+385037765+383545078+381953000
2804+380229698+378524465+377065788+375684176+374135372+372480814+370831796
2791+369164974+367432408+365748219+364211267+362566579+360683801+358939817
2777+357691606+356688814+355382260+353879898+352637298+351581751+350560260
2764+349743891+349197008+348737325+348240489+347688768+346968960+346043160
2750+345143315+344433473+343851516+343336780+342718492+341795256+340794641
2737+340095901+339666116+339137495+338336219+337604172+337193616+336921469
2723+336695328+336435227+335965796+335472927+335286117+335228258+334821742
2710+334085074+333513107+333296594+333052433+332438789+331597626+330746521
2696+329884604+329022663+328245455+327470762+326507567+325332672+324038188
2683+322778608+321652405+320504674+319181744+317871150+316780940+315696341
2669+314401059+313013956+311703024+310590778+309695601+308856179+307927889
2656+307004387+306231170+305625484+305150321+304725833+304409976+304295177
2642+304312617+304345900+304235237+304067802+304120606+304390021+304717246
2629+304982862+305168124+305414244+305852399+306475138+307147826+307694201
2615+308118641+308562383+309021364+309425945+309737907+309949631+310097327
2602+310162951+310171925+310139005+309994211+309792743+309536923+309052277
2588+308333824+307521445+306654981+305822090+305063386+304190512+303126014
2575+301997368+300876462+299716975+298476795+297176796+295908170+294790674
2561+293800194+292941156+292214308+291391359+290504867+289878475+289555386
2548+289305033+288957006+288557964+288320600+288445511+288814994+289139993
2534+289440804+289889239+290455667+291031141+291670546+292422065+293103680
2521+293598823+293993801+294327146+294647163+295080383+295592192+296046311
2507+296391751+296590219+296605990+296444797+296205667+296034846+295887343
2494+295597054+295107644+294482824+293913349+293452264+292834604+292033111
2480+291352125+290853015+290339416+289731674+289147226+288610188+288059773
2467+287523968+286952679+286372270+285897929+285415534+284835657+284278615
2453+283745568+283098471+282398618+281780548+281158148+280511099+279986325
2440+279539849+279024363+278488510+278037656+277665174+277346100+277092240
2426+276855021+276560716+276247980+275939816+275687479+275586273+275454735
2413+275242987+275274311+275513441+275672482+275814857+275986790+276017800
2399+275961271+275920755+275838296+275791853+275830241+275795361+275522004
2386+274939080+274120001+273067186+271506530+269228241+266463929+263668728
2372+261048000+258482470+255852236+253293697+251111535+249607044+248899040
2359+248839826+249614301+251538708+254373869+257554808+259799595+259698825
2345+257500335+255420733+254686146+254757333+255139854+255525495+255698420
2332+255720867+256019743+256686844+257405274+258264844+259509887+260991906
2318+262341178+263298495+263871768+264247177+264575273+264898821+265231078
2305+265575187+265911362+266220615+266496971+266761910+266979875+267064535
2291+267098786+267228753+267417207+267534788+267451507+267152026+266763168
2278+266330867+265909886+265619476+265410461+265179483+264941781+264723332
2264+264476752+264203371+263985334+263699012+263203506+262790894+262647625
2251+262473030+262184652+262006381+261917730+261781595+261617572+261481655
2237+261337055+261125283+260951874+260972579+261056175+261024174+260980924
2224+260969556+260941327+261001001+261136434+261192310+261251185+261531774
2210+261955658+262303298+262571769+262836708+263110718+263396774+263730965
2197+264115542+264460473+264689371+264809420+264904675+265042333+265142184
2183+265035899+264752407+264544698+264461731+264289459+263920315+263482184
2170+263196201+263082320+262930125+262649294+262275844+261829368+261421691
2156+261138925+260938594+260726435+260424535+260088094+259743405+259309556
2143+258824160+258364816+257861642+257271655+256758007+256438329+256156651
2129+255780517+255437351+255163776+254793640+254308511+253825196+253456028
2116+253281071+253241764+253178801+253042981+252936914+252910258+252945549
2102+253064195+253307170+253658608+254017061+254353188+254725501+255193190
2089+255789684+256390484+256884756+257449224+258216709+259021903+259752113
2075+260461036+261190133+261945329+262607592+262981937+263268114+263980109
2062+265072230+266078482+266862680+267537159+268206558+268880069+269511322
2048+270069090+270546285+270985383+271444365+272004455+272629250+273173109
2035+273618859+274023004+274343747+274529371+274725058+274975411+275112803
2021+275044252+274641921+274149560+274180666+274571943+274752270+274710013
2008+274622280+274446573+274139812+273817932+273524378+273220785+272809770
1994+271936388+270857739+270524104+270800340+271047694+271260917+271362195
1981+271230294+271036688+270932531+270895764+270859529+270571103+269751806
1967+269062621+269358449+269947155+270032033+269829767+269420856+268771776
1954+268133121+267533047+266750735+265599109+263933546+261802543+260379351
1940+260683959+261347480+261174628+260578642+260096125+259688956+259187040
1927+258355431+256823825+255468216+255276133+255212638+255347829+256481506
1913+257230655+256710549+256124408+256676322+257784480+258510142+258838117
1900+258873118+258440987+257912390+258024940+258117704+257526193+257689032
1886+258956231+260055826+260847596+261529839+262040052+262420952+262624258
1873+261964511+259362263+256332407+257184914+260811434+263203724+263831953
1859+263962742+264255716+264644332+264867908+264726404+263948277+262422645
1846+260356033+259715418+262352837+265237439+266330552+266836774+267285765
1832+266061332+263444377+262973689+264592036+266514895+269147282+271514488
1819+272628524+273121006+273335512+272643739+271684341+272327495+274136377
1805+275083027+274140392+272299968+271927051+272971206+273095245+271399035
1792+270993922+274840656+278959827+280593994+280758985+280734385+281278100
1778+282707533+283125151+280782811+277751697+279425944+284690936+289504034
1765+292082359+292308620+292735479+294634609+296841927+299188282+299780737
1751+297171329+295185459+297849267+302157885+305347531+307558019+310068107
1738+312718442+312941535+311914312+316218479+323832971+331097814+336443862
1724+339807717+342249134+342555629+339464938+339642387+349063510+359771111
1711+367435553+371636990+373643107+376798091+381347919+384419186+387148401
1697+393398382+404772866+416627183+423876787+427964296+430273642+430406825
1684+434205569+446712304+459021949+468221504+475545609+483228047+490415148
1670+498020665+510873638+523942664+532205099+538665232+546628210+553387606
1657+555768986+553179776+553834275+564767146+572147273+579099646+594368976
1643+610625738+622768965+630813266+635846263+647047726+668082778+685999178
1630+699863820+713669344+728070540+743581032+762623755+779857694+792133523
1616+805588311+822463579+836478433+846350725+854416989+862366664+869142798
1603+873886692+877520807+879949743+879875435+877804299+875219104+871759438
1589+866724312+861081952+855066699+847873647+839692051+830813045+819021136
1576+806285527+801593010+798949279+792808340+789621910+790941357+791453094
1562+789577984+782139465+773763392+782546078+795141489+806184370+816958514
1549+828479510+838223795+844145777+848173684+857275904+883651102+909140800
1535+924998158+940374837+957603599+969456367+975358418+978999596+981067539
1522+981960587+986481751+991833943+995405844+999319581+1000397044+994875531
1508+981871572+975843160+989714236+1001165955+1004480489+1002681234+1003206033
1495+1009265697+1013299797+1011193345+1009652910+1016762075+1025177818
1483+1029489895+1030627829+1030004631+1026574862+1018661180+1009228833
1472+1008683426+1016521542+1020815525+1018263808+1014915410+1014612761
1460+1011798063+1001282158+994187410+999716470+1005580302+1008478305+1008869679
1447+1008673170+1009849516+1010957457+1010912369+1009015102+1003967784
1435+1001940962+1005280942+1007240036+1007861299+1009980329+1011099009
1423+1010575952+1008525812+1002276508+998376607+1003430311+1009451950
1412+1012028824+1012470800+1010492936+1005769361+1002447571+1001834338
1400+998908856+993555600+990408259+990448896+992616787+993254789+989082717
1387+983181537+982424140+985886998+988790226+989277097+987229666+983398849
1373+981710282+983323864+984140475+984250002+984712006+982956969+980608727
1360+980897637+981739018+981554797+980732283+979681718+978532463+978303057
1346+979130408+979093835+976603363+972040208+968878354+969569474+971928746
1333+973594479+974636433+976608008+979318500+980961495+981326261+981272949
1319+981971617+984616800+987852962+990399454+993576886+997660524+1001518724
1306+1004384217+1006384916+1008889901+1012228720+1015113081+1017306321
1294+1019692491+1022049248+1023304933+1023687986+1024602029+1026051708
1283+1026946014+1027909983+1029666182+1031478982+1033005678+1033038672
1271+1030418645+1027741920+1027653873+1028485579+1027886569+1026329202
1260+1024938833+1024046753+1023413976+1022568241+1021879152+1021850803
1248+1022461423+1023714303+1025269832+1026453435+1027007841+1026954916
1236+1026886607+1027928367+1029502957+1030029400+1029517373+1028648707
1225+1027896148+1027374348+1026863289+1026749215+1027214703+1027584790
1213+1027826000+1027941719+1027085535+1025989108+1025891579+1025906383
1202+1024994177+1023441357+1022132360+1021108983+1019560711+1017906395
1190+1017446713+1018488473+1020146562+1021059154+1020376161+1019185108
1178+1019646533+1021634943+1023110359+1023462063+1023667570+1024350854
1167+1025181108+1025546938+1025669623+1026237478+1026729767+1026257119
1155+1025857618+1027246051+1029522791+1030067328+1028509090+1026561220
1144+1025370263+1025363587+1026218998+1026451403+1025042264+1022977708
1132+1021756467+1021014841+1019558582+1017667507+1016046959+1014506524
1121+1013183400+1012954769+1013686139+1013874327+1012545979+1010312585
1109+1009080314+1010294492+1013101739+1015564636+1016601655+1016551149
1097+1016949005+1018537044+1021002746+1024380557+1028046988+1031596249
1086+1035572393+1039093692+1041338019+1043238576+1044666291+1044925885
1074+1045491224+1047174566+1048786600+1049967977+1050938139+1051924168
1063+1053099934+1054989461+1058363886+1061383800+1062234179+1062632519
1051+1063570558+1063730301+1063355569+1063839731+1065077420+1066799173
1040+1068997832+1070626701+1070877200+1070659598+1071388453+1073037737
1028+1073741823+1072183488+1070186176+1069059078+1067832516+1067457978
1016+1068054085+1067434273+1066686067+1067221509+1067613947+1068286587
1005+1069676181+1069562784+1067756467+1065947537+1064683627+1064289544
993+1064645119+1064684111+1063943065+1063485995+1064151862+1064870558
982+1064679854+1063730688+1062008934+1059757350+1057331995+1055112437
970+1053684624+1052615869+1050609366+1047611705+1045874180+1046180119
959+1045982932+1044545831+1043681133+1042408709+1038127013+1034113232
947+1035449321+1039340417+1041247166+1041564522+1041136381+1040661992
935+1041337632+1042499465+1042523073+1041532496+1040725560+1040574332
924+1041204884+1042123669+1042394582+1042417707+1043089283+1043232287
912+1041526207+1039644808+1039458361+1040355666+1040423491+1039028866
901+1037700614+1036166855+1032619239+1028700955+1027267337+1027692672
889+1027755563+1027349966+1027219540+1027388958+1027983324+1028340736
878+1026924922+1023889816+1022232308+1023727752+1026348165+1027986807
866+1028604200+1029636188+1031702196+1033726212+1035640605+1037330043
854+1038089182+1037966013+1036886518+1035264132+1034339735+1034953161
843+1036448605+1037348329+1037205809+1036321953+1034631741+1033068279
831+1033007033+1032429696+1029794189+1027947911+1028760266+1030712103
820+1031307533+1031006818+1032573958+1035583713+1036868715+1036166855
808+1036148375+1036808921+1037093671+1038144622+1040630643+1042923542
797+1043835554+1041599451+1031479176+1021128818+1024018500+1034346701
785+1040831023+1043468756+1043304369+1040751781+1037770858+1036025690
773+1035165925+1033977678+1033226570+1033490420+1034082851+1034500735
762+1033625684+1031035071+1029974153+1031228968+1031016591+1029135481
750+1026824974+1023847922+1022163805+1022969677+1024791476+1027272369
739+1029068914+1027654744+1026827296+1029191502+1028991800+1025525265
727+1024808795+1026788884+1027155295+1026069221+1026169362+1027008421
716+1026327170+1024764771+1024824856+1024975987+1022821062+1021824679
704+1024614124+1026428666+1024844304+1025200749+1029975991+1034332962
692+1033940331+1030615541+1028375568+1029155800+1032192550+1032611305
681+1028260720+1024982954+1026916117+1031767312+1035099165+1034207761
669+1031968175+1035449030+1041784833+1044596241+1044925401+1045618747
658+1048009271+1049743796+1048899996+1045181221+1039740982+1038067509
646+1041729586+1043930567+1039956842+1033607978+1032505939+1035014988
635+1028727369+1020599762+1029329862+1039558309+1037456405+1033651034
623+1028231984+1016338288+1006839664+1010341031+1021466783+1024045011
611+1019638695+1018741777+1019536716+1018295544+1017027183+1016667739
600+1009465302
##END=
