##TITLE=Sample description
##JCAMP-DX=4.24
##DATA TYPE=INFRARED SPECTRUM
##DATE=24/8/2023
##SAMPLING PROCEDURE=Instrument type and / or accessory
##ORIGIN=Default
##XUNITS=1/CM
##YUNITS=ABSORBANCE
##RESOLUTION=4
##FIRSTX=4397.6552
##LASTX=599.8556
##DELTAX=-1.9287962
##MAXY=1.2882464
##MINY=0.34947339
##XFACTOR=1
##YFACTOR=1.1997729e-009
##NPOINTS=1970
##FIRSTY=0.48324096
##XYDATA=(X++(Y..Y))
4398+402777011+401650518+401331523+401717040+401863720+401827652+401904432
4384+401505776+400577059+400135280+400545413+401128407+401573738+402116342
4371+402490060+402285726+401806960+401560250+401571179+401397324+400499757
4357+399196031+398867821+399892991+400702029+400346594+399931493+400172987
4344+400201404+399456106+398507492+398130595+398455080+398910297+398802690
4330+398319826+398277573+398201687+397465406+397050057+397452837+397691599
4317+397233599+396977151+397449185+397684991+397034979+396220700+395796160
4303+395427609+395260238+395390573+395518673+396011200+396638955+396846394
4290+396418103+394979223+393689929+393913787+394926985+395704202+395698837
4276+394809665+393839814+393321677+393268917+393726519+394417119+394973286
4263+394942137+393877893+392701249+392916785+393989549+394346947+393872801
4249+393267128+392866385+392553352+392326588+392541975+393079214+393571095
4236+393845129+393441008+392259917+391352886+391407708+391670813+391644308
4222+391827429+392448453+392839086+392396984+391862155+392401803+393552316
4209+393669312+392634877+391677668+391146093+391067773+391474701+391611470
4195+390977281+390072708+389647224+390223586+391517152+392287415+392017504
4182+391268579+390431000+389714516+389404513+389569326+389727159+389500321
4168+389200403+389193274+389517237+389951638+390274732+390274136+390038454
4155+390016570+390058997+389855383+389707089+389728302+389632445+389399967
4141+389088549+389000044+389541729+389756024+388980718+388363793+388433668
4128+388614354+388578435+388493731+388292999+387670932+387133867+387038506
4114+387085628+387278907+387469504+387374765+386971562+386236846+385655417
4101+385631844+385575904+385408284+385589640+385714784+385652411+385814666
4087+385968698+385657429+384957836+384382294+384102919+383866939+383780347
4074+383957679+384134416+384341159+384645324+384467818+383533984+382706838
4060+382837546+383461178+383421310+382659021+382161526+382189868+382226184
4047+382201692+382261010+382176430+381986330+381960397+382004388+382021776
4033+381967973+381794913+381321935+380342321+379648119+379922923+380586026
4020+380999165+380776772+380102789+379751925+379880472+379959339+379628272
4006+379138055+378887419+378804131+378754476+379045576+379514902+379391373
3993+378799138+378222553+377818804+377899211+378305295+378604443+378605337
3979+378429420+378526867+378792307+378555036+377746545+377020149+376927620
3966+377407305+377620531+377168792+377105375+377705459+377925864+377591792
3952+377302257+376773836+375939064+376126730+376589548+375838636+375412507
3939+376154129+377107983+377537715+376622710+375147365+374985632+375262150
3925+374650565+374480436+375120488+374711274+373339537+372846761+373618713
3912+374980540+376456357+377080883+375334236+371977437+370270683+370535328
3898+372029725+374432570+375941200+375000287+374104732+375141726+374642691
3885+372486284+372054068+371895987+372652339+374842082+375049272+373160937
3871+370910834+369439686+370599017+371741805+371588766+372319657+373634934
3858+374961313+375030195+370132274+367247683+371301939+375570638+377093924
3844+376024166+373989450+371968296+370359759+370886590+372804235+374135235
3831+375052774+375946243+376548339+377117969+375772189+371661746+371464566
3817+373874018+374930512+376987733+379389584+379503153+377043847+376010703
3804+376931769+375676903+374865630+376667720+378460470+380201305+381938910
3790+382920760+383085821+382558320+382056428+382464574+382531418+382048132
3777+383099434+384935952+385743077+385039882+384442282+385008609+385503570
3763+386230536+386878735+386362660+386404292+387829535+388121578+384964245
3750+383464010+387414136+390278284+389502556+391367144+395363920+397040667
3736+395314438+394604860+398323975+404056841+409283543+412986437+416072530
3723+420478320+427167873+436408590+447189782+458157920+469268639+482644465
3709+499310494+516436758+532553328+547680372+561031159+571894522+580838948
3696+588178264+593304091+595150048+593089225+590626293+590932570+590544321
3682+587789817+584518293+581240610+573673710+566389339+566812563+565047236
3669+560061506+559969151+561638000+561774023+561269822+560953261+559580207
3655+558932232+560547724+559606637+552887773+549834146+553898909+559066516
3642+562842589+565339155+566776793+566892597+566808737+567964193+567384577
3628+564575773+566913711+571864664+575532832+576974445+576798131+577663158
3615+578893680+579832233+581719127+581955504+580450401+581842731+584928550
3601+586558798+587771634+589538849+590495138+591239492+592934919+593565805
3588+591412527+591300052+595336000+599867953+603047320+604179278+604046533
3574+604844840+606460133+607028074+605248638+603567817+606083758+609676363
3561+610992434+611685121+614233851+617577907+619782504+621369082+623124225
3547+624287481+624734004+625448501+627312542+629845771+631647812+633167273
3534+635166989+636775874+637730375+638580647+639615927+640829807+642586887
3520+644872363+646104127+645823882+646146156+647483789+647963150+648292429
3507+649930625+651022292+650717307+651141573+652366631+653002981+652928014
3493+652335183+652108494+653016444+654323027+655754355+656889045+656910109
3480+657742795+660480557+662435910+662595482+663017513+663910708+663227808
3466+660958180+659454815+659631825+660049981+659384866+658969591+660193606
3453+660957435+660024396+659679418+660593330+660587369+659808685+660401069
3439+662143692+663650634+664744437+664880858+663616205+662373164+662058292
3426+662145431+662336748+662653607+663654260+665401007+666798553+666965826
3412+665643097+663893320+663501246+663989451+663625247+663077128+663369743
3399+663444462+662971559+662817203+662756246+662738957+663372674+663566078
3385+662871354+662916414+663622515+663879807+663506612+662762804+662544709
3372+663214245+664293691+665537478+666355408+666364152+666170698+665764267
3358+665013205+664213905+662979259+661854754+661966931+662884967+663500402
3345+663219660+662442169+662091280+662597767+663417386+663512076+662943042
3331+662366109+661545397+660534410+660484184+661622798+662138575+660823100
3318+659355207+659632818+660813065+661055304+659935717+658279140+656794951
3304+655714363+655487425+655773830+655668608+655533280+655930371+656836782
3291+657727146+657862076+657721979+657690482+657210872+656628524+656585550
3277+657083791+657777819+657897498+657782787+658597588+659755925+660111932
3264+659687417+659186842+659674351+661125850+662048058+661966186+662278573
3250+663727687+664960396+664705041+663959742+664756559+667236035+669447835
3237+669726639+668367644+666766410+665595454+665336224+666530927+667960716
3223+667997529+667115561+666190719+665370702+665145354+665018571+664014639
3210+663421261+663851688+663075737+660958776+659793583+659275471+658101484
3196+656971415+656557283+656591909+656163867+654629850+652987382+652196725
3183+651691977+650199294+647346920+644861830+644487592+645324649+645199108
3169+643853079+642288658+640343490+638279934+636933509+635685549+634276079
3156+633416070+632571312+630764552+628648038+627601381+627267730+625899893
3142+623833803+623176538+623345996+621881730+618919563+616452309+614944324
3129+613537140+612098309+611053739+610171970+608797723+606909985+605323705
3115+604710008+604618697+603981353+602559761+601185217+600512203+599712356
3102+597861430+596117366+595424629+594933891+594132206+593078942+591745780
3088+590622616+590353600+590701757+590875139+590282706+588841442+587238816
3075+586170052+585483426+584698085+583845925+583131230+582380764+581321091
3061+579699340+577889996+576513663+575335404+574294808+573326447+571945444
3047+570454301+569142154+567954754+566937607+565707432+564114048+562268587
3034+560177062+558456844+557510541+556476801+554676499+552816134+551504932
3020+550167747+548638400+547518713+546602814+545261356+543326223+541073685
3007+539337123+538379393+537498319+536339982+535120687+534234049+533758016
2993+533117145+532041922+530992732+530096555+529044781+527918189+526963440
2980+526297183+525801476+524858203+523179916+521460592+520388102+519796960
2966+519032784+517538709+515329244+513223907+511978232+511217881+510061133
2953+508570934+507509771+506946301+506268269+505289276+504255437+503061181
2939+501613060+500208310+498834213+497420719+496277783+495424927+494574556
2926+493399079+491948325+490909070+490023575+488240910+485831483+483922332
2912+483065850+482727530+482025403+481092066+480388549+479922501+479612449
2899+479105266+478174712+477338300+476916965+476184434+474634221+473236724
2885+472885239+472837496+472129110+470938729+469750485+468750080+467984313
2872+467069606+465620542+464100236+463151101+462636814+461999719+461018938
2858+459866611+458730928+457657394+456576657+455315879+453880278+452835658
2845+452494904+452128663+451291854+450505272+449981596+449503426+449149904
2831+448848943+448327850+447646092+446923249+446272591+445830290+445470011
2818+445014993+444377699+443491458+442471132+441639241+441126445+440657218
2804+440073727+439546474+439076452+438508859+437938632+437333382+436530355
2791+435918646+435631099+435155115+434570134+434254318+434052469+433671424
2777+432900739+431818412+430977132+430745424+430685361+430158357+429378978
2764+428896387+428602331+428307233+428063403+427711570+427216758+426802378
2750+426536391+426419643+426371404+426050571+425413724+424847472+424522118
2737+424325584+423998641+423461750+423040712+422804981+422514403+422174840
2723+421899067+421574856+421104138+420726074+420548270+420393616+420257791
2710+420068212+419710219+419430918+419356448+419301850+419120319+418787563
2696+418520533+418419633+418256087+417975644+417722674+417593555+417464537
2683+417170332+416836682+416522729+416205274+415945498+415630577+415281426
2669+415069243+414903585+414841883+415030890+415142223+415029623+415038864
2656+415066834+414739095+414371190+414364086+414497353+414601482+414712641
2642+414814733+414935530+415015167+415001679+414888532+414733034+414792327
2629+415093189+415309396+415292306+415278868+415583729+416169033+416642483
2615+416889938+417201084+417595394+417941514+418327129+418693221+418921301
2602+419113016+419343084+419679964+420202895+420757522+421201660+421559654
2588+421898074+422311361+422613167+422644564+422693251+422891970+423217473
2575+423749843+424233577+424309687+424102025+423997051+424150860+424420324
2561+424570159+424558683+424536277+424486200+424412971+424512182+424723322
2548+424847919+424819651+424615367+424411779+424463844+424673890+424792725
2534+424857209+424916527+424900232+424842603+424766146+424815379+425071131
2521+425249581+425243322+425195381+425147887+425091450+425068001+425160456
2507+425335031+425479351+425498726+425411836+425513183+425895917+426179341
2494+426259724+426409608+426603111+426679370+426619307+426374037+426056980
2480+425900438+425878877+425850907+425785926+425615872+425347451+425196325
2467+425162244+425086134+424998300+424793222+424335421+423836237+423489719
2453+423329949+423333377+423211462+422831212+422532735+422387967+422106928
2440+421644656+421201263+420894936+420634017+420333006+419952408+419445723
2426+418952649+418627196+418432948+418249132+417967546+417538609+416942351
2413+416243155+415646127+415323505+415084768+414638369+414149966+413815595
2399+413520471+413185753+412879078+412603106+412077840+411288203+410627385
2386+410013813+409093616+407782091+406111677+404180668+401882474+399156113
2372+396533137+394324417+392169351+389823290+387618942+386056383+385179582
2359+384964195+385770078+387798311+390540072+393136768+394644505+394120928
2345+391860813+389857619+388776037+388046338+388165669+389030200+389542300
2332+389434793+389325522+389409431+389546796+389887030+390604060+391572769
2318+392588724+393588955+394363018+394805617+395279687+395935984+396499777
2305+396909040+397273865+397498070+397641621+397957585+398291136+398451826
2291+398579205+398714956+398874354+399099280+399271893+399280587+399224225
2278+399305427+399432806+399405184+399374854+399534178+399862587+400263057
2264+400596732+400814355+400924943+400938630+401045715+401361928+401638769
2251+401787834+402149305+402737043+403228154+403704684+404311848+404948173
2237+405494851+405854435+406185676+406694100+407310429+407938558+408571704
2224+409254579+410018433+410844362+411729460+412646328+413553881+414532849
2210+415710537+417070277+418443827+419743554+421081385+422448130+423832113
2197+425505532+427512801+429549579+431490475+433546379+435924310+438427334
2183+440723441+442933851+445457889+448385975+451411831+454241998+456910158
2170+459555218+462286173+465166417+467917692+470213154+472162495+474131858
2156+476198394+477967049+479152611+479930599+480606097+481069959+480894489
2143+480096977+478902622+477146337+474722800+471838979+468567655+464761625
2129+460370366+455668657+451047628+446504149+441772532+436953330+432421278
2116+428073836+423548193+419018624+414818881+410942828+407270437+403721203
2102+400226070+396774035+393520272+390578972+387796398+385025947+382371026
2089+379924960+377584240+375283388+373115530+371128904+369192007+367236505
2075+365359746+363625668+362073245+360565632+358801796+356852529+355103522
2062+353678155+352421625+351160823+349766406+348303084+346950076+345633557
2048+344242469+342931366+341727696+340451791+339173700+338064819+337001221
2035+335872319+334791780+333806925+332879624+332015864+331220315+330462770
2021+329623949+328535611+327292842+326270479+325531490+324770070+323857276
2008+322943190+322139865+321363666+320602942+319957997+319344499+318608963
1994+317620407+316401212+315413823+314877776+314469109+313949358+313267202
1981+312509807+311774767+311062904+310448909+309962841+309370606+308378399
1967+307229873+306582518+306390506+306120296+305614356+304948595+304271209
1954+303697083+303114064+302475652+301897030+301238795+300182848+299209718
1940+299149555+299458341+299357814+298920407+298426091+298073860+297899285
1927+297586376+296726739+295722261+295390995+295319928+295194163+295530943
1913+295911963+295695781+295251717+295245582+295612865+295960824+296174572
1900+296210515+295997562+295660906+295483822+295317245+294761227+294301688
1886+294386938+294538139+294579870+294608138+294640853+294676672+294609430
1873+294258938+293161732+291537049+291282936+292528487+293560587+293945110
1859+294117872+294294757+294504829+294683875+294746770+294589185+294184493
1846+293516024+293153833+294196664+295740493+296716232+297438901+298202482
1832+298318509+297680097+297951325+299303961+300545090+301819007+303063962
1819+303745695+303936739+303923325+303565158+302985070+302905210+303291943
1805+303473498+303020417+302001209+301357605+301610873+301843897+301140057
1792+300485871+301748536+303582099+304451994+304695848+304921147+305320996
1778+306225717+307007655+306526877+305065641+305217761+307168046+309096671
1765+310307942+310647977+311026563+312006301+312764019+313372946+313480006
1751+311985609+310124301+310392274+311685095+312553674+312984275+313331389
1738+313978718+313829381+312116988+312375746+315108713+318014245+320095089
1724+321179130+321893130+322176330+321015509+320272347+323342915+327710626
1711+331308397+333630959+334877329+336331337+338562413+340325629+341643463
1697+344880782+350965904+357633075+362742185+366904892+370487610+373280045
1684+377752904+385594907+393499382+400349724+406433703+412614930+418402891
1670+424615268+433663525+442969421+450817858+458964175+467843769+475797427
1657+481724591+485682791+492640367+503303917+510975940+518860742+529611431
1643+539482685+547223167+552817327+556217273+560295350+567728462+574341805
1630+578329167+580346918+581489109+582000912+582804981+583939174+582895647
1616+579405781+577874546+577584316+575874928+573117145+570642538+568372711
1603+566130308+564378593+563009563+561681470+560819225+561014367+562227452
1589+564328665+567018685+570089103+573992655+578714683+583091784+586824138
1576+593147798+602253435+610115931+617993132+627652651+637605927+647202252
1562+655107821+660763087+670661168+685863179+699691789+712514479+723965605
1549+734909797+744365628+751642497+757615118+764820100+779765613+794639836
1535+804973363+814674215+825381931+834142540+840484184+846183268+851884538
1522+858654820+867430085+875635423+883434676+891744738+898572650+902094560
1508+901795288+902924612+911108686+918569917+922722266+923324883+923510488
1495+927298682+931151262+930824865+927821315+928489212+931100092+932147245
1481+931913352+931084492+928660807+923761272+917494645+914362623+916537511
1468+918993091+918088916+915425475+915008760+915126700+911505033+909154476
1454+915581868+923985527+930806185+936210468+943020892+951172873+957954383
1441+963120898+967524527+971616763+977225628+984318532+990066998+994937122
1427+1001047456+1006442896+1009933011+1012151717+1012379947+1013975766
1416+1019464405+1023522262+1024136505+1023924769+1024194730+1024017969
1404+1023561112+1023591615+1022301428+1019738539+1018736594+1018800284
1393+1019945506+1021261328+1018491274+1011597885+1007634817+1008760863
1381+1011802368+1014414340+1015822568+1016255081+1017399011+1020083020
1369+1021400830+1019871681+1017438457+1015021131+1013845207+1015017852
1358+1016678553+1017011309+1015784413+1014026936+1012561775+1011302886
1346+1009339634+1006962151+1004614575+1000929218+997811901+998504738+1000604212
1333+1001515839+1001435755+1001186361+1001675510+1003140969+1004660678
1321+1005456451+1006176313+1008522896+1012361168+1015904440+1019121812
1310+1022581026+1025674695+1028853714+1032680063+1036093075+1039224799
1298+1042733295+1045596549+1047504656+1049332281+1051287286+1052918974
1287+1054071747+1055135196+1056293335+1057226125+1057697290+1058063828
1275+1058041274+1056449529+1054075821+1052891153+1052375575+1051311530
1263+1050220658+1049446446+1048830017+1048562441+1048824254+1050164420
1252+1052270452+1053496454+1053431671+1053229871+1054209361+1056310325
1240+1057513971+1057624459+1058671315+1060215765+1060356856+1059475534
1229+1059278900+1060108655+1061022269+1061734679+1062457820+1063409886
1217+1064840470+1065692680+1065421129+1065853742+1067537097+1069166400
1205+1070795505+1072640518+1073741823+1073636998+1072903226+1072330515
1194+1071731574+1070689786+1069987311+1069909016+1069585202+1068449618
1182+1066805311+1065461569+1064750351+1064843848+1065281528+1064600416
1171+1063001021+1061798170+1061008358+1059964980+1057855570+1054696025
1159+1051795214+1049413657+1046792345+1043789391+1040155503+1036421161
1148+1033771432+1031420577+1028322338+1024392257+1018905506+1012468576
1136+1006814005+1001543361+995763498+990165364+985081517+979521934+973286407
1123+967189784+960994994+954674315+949176137+944572297+940400573+936063515
1109+931183653+926586073+923078670+920212237+917516106+915479130+914172448
1096+913118637+912431464+912451038+913501073+915279218+916987115+918353015
1082+918827557+918611450+919097916+920668000+922999579+925064874+926514534
1069+929391400+933991563+937789992+939368125+939867706+941187106+943618144
1055+946985848+951014096+953197827+952142129+951024231+952338464+954159730
1042+954896484+956109270+958818317+961338978+961978061+961551012+961844720
1028+963057208+964261350+965487153+967004478+967909944+967883713+967929220
1015+968651666+969751282+970931876+972249984+972919471+972053450+970615514
1001+969478439+968467552+967823601+967312096+966372549+965425053+964769378
988+963681387+961909005+960390488+958848026+956217076+953759310+952554869
974+951221559+949167989+947043576+944674538+942080948+940286310+939821107
961+940113523+940660896+941701095+943226766+944091892+943537563+942537904
947+942238830+943105447+945006997+946728506+947716143+949168983+951428526
934+953525218+955284484+956895008+958190959+959169654+959678972+959681357
920+959828211+960490445+961283833+961402270+959909388+957498321+955807216
907+954976468+954664379+954353979+953268075+951570611+949725001+948024556
893+946887382+946520943+946343784+945906700+946025137+947218251+948690366
880+949253638+948685100+948744120+951218678+954923311+957993531+961864492
866+967849732+973516822+977363639+980765324+983069479+983419524+984360462
853+986054747+985782302+984265375+983425188+983480432+984154588+983744729
839+982144836+982299142+984609060+987126045+988623199+987391733+982997046
826+978944256+978796408+981984867+985896367+989087508+991841267+994175131
812+995167736+995006177+994173343+994073188+996688042+1000581260+1003401292
799+1004947927+1005667988+1005959908+1006078245+1006927375+1009154725
787+1011125131+1012204477+1015311063+1020960765+1025310243+1027398291
775+1029861621+1032690397+1034013771+1034419954+1035337940+1036882986
764+1038783243+1040573212+1041164999+1039668739+1037131386+1035582763
752+1035809701+1036809062+1037471097+1039095333+1042098783+1043044789
741+1040747191+1038797154+1038541998+1038532857+1038845840+1038263293
729+1035920586+1034112733+1032808635+1030930137+1029202070+1027687130
718+1026167918+1024064767+1020952021+1018000139+1017367415+1020571473
706+1024045591+1022744274+1018970288+1015950742+1012344972+1008754404
694+1008349811+1010107388+1010043002+1009732205+1009979511+1006205823
683+1002445450+1005245212+1010567921+1013665365+1014698807+1013741078
671+1008876418+1000495711+999818076+1009370038+1016539449+1019128072+1019678426
658+1020205530+1020879588+1020789270+1020679079+1019241243+1015362432
646+1014249105+1018458486+1021648136+1019659647+1016636524+1014632336
635+1012184903+1010590972+1010305213+1009700111+1007823203+1006991959
623+1011243965+1015465667+1010657941+999824137+991761282+991286839+996594643
609+999101791+995105139+990027651+990320167+996054722+999328828
##END=
