##TITLE=Sample description
##JCAMP-DX=4.24
##DATA TYPE=INFRARED SPECTRUM
##DATE=24/8/2023
##SAMPLING PROCEDURE=Instrument type and / or accessory
##ORIGIN=Default
##XUNITS=1/CM
##YUNITS=ABSORBANCE
##RESOLUTION=4
##FIRSTX=4397.6552
##LASTX=599.8556
##DELTAX=-1.9287962
##MAXY=1.2799283
##MINY=0.34015736
##XFACTOR=1
##YFACTOR=1.1920261e-009
##NPOINTS=1970
##FIRSTY=0.48366934
##XYDATA=(X++(Y..Y))
4398+405753970+406844181+407773333+407358910+406389080+406156242+406328577
4384+406453459+406430133+405835349+405160262+405035155+404852244+404338190
4371+403961844+403903266+403868614+403408913+402762552+402477436+402420433
4357+402428884+402885859+403464292+403312458+403065344+403460316+403882715
4344+403886690+403333309+402191945+401141937+400941325+401503807+402202596
4330+402405207+401884328+401375275+401579836+402007710+401793948+401143112
4317+401098334+401622213+401742295+401266093+400590706+400221610+400460673
4303+400699537+400458273+400134780+399816612+399534622+399584699+399524796
4290+399044444+398616270+398333629+398338605+399194177+400176757+399854314
4276+398904661+398819606+398820557+397817925+397026231+397510983+398067164
4263+397711944+397184340+396880573+396539804+396214661+396019500+396336567
4249+397145438+397430479+396784718+395829189+395181128+395034820+395154801
4236+395549298+396163658+396232887+395922919+396359819+397203341+397159013
4222+396307566+395431867+394623772+394290528+394598620+394648673+394411385
4209+394282877+393913557+393497683+393669243+394473663+395294434+395323586
4195+394636972+394178422+394111218+394085316+394568443+395312960+395023094
4182+394060365+394033188+394873611+395240556+394721577+393884705+393283671
4168+393057184+393186266+393640066+394127494+394177922+393648217+393125563
4155+392999756+393014881+393042208+392656261+391745660+391270809+391359089
4141+391392616+391626354+391982324+391734435+391226756+391308961+391707533
4128+391691657+391415242+391324137+391469345+391484121+390787607+390115794
4114+390498066+390984718+390453488+389301674+388663563+388958204+389261771
4101+388843773+388222138+388016577+387820266+387478421+387609054+388036728
4087+388374097+388582758+388364396+387778213+387081224+386443563+386302256
4074+386696003+387076624+387087575+386828060+386582721+386183524+385376504
4060+384930954+385301325+385553964+385215895+384796796+384624512+384542882
4047+384301594+384129659+384391199+384778820+384799746+384533307+384220539
4033+383708410+382929267+382250129+381984789+382186650+382762032+383236334
4020+382984845+382280280+382160274+382711179+382806085+381970013+381063637
4006+380813273+380978407+381061112+381008459+380977232+380946106+380824249
3993+380394875+379801967+379717037+379944575+379597880+378746382+378237429
3979+378290432+378299582+378079445+378074570+378467817+379194358+380030854
3966+380403425+379746288+378416239+377528239+377480162+377780678+377650196
3952+376813974+375726863+375342667+376149887+376654390+376144262+376246718
3939+377049537+377306027+376449479+374559273+373557967+374779160+375622683
3925+374524121+374032019+374691855+373948739+372365500+372898505+374986297
3912+376583686+377449410+376901904+373558317+369126269+367319468+368371302
3898+371254738+374234305+374846164+372758072+372038782+373638371+373204722
3885+371014350+370642854+371107830+372609639+374393514+374030468+372380451
3871+370241456+369113143+370766261+371214411+370035695+370889743+372624840
3858+373153019+370600676+363579283+362579202+368820527+373830232+375186708
3844+373923312+371773492+368759973+366219881+367500128+370515647+372479332
3831+373667348+374186427+374204153+374504345+372558861+367941052+368417854
3817+371444699+372929482+375638933+378334034+378226003+375523802+374200653
3804+374048494+371761666+371279039+373697450+375996829+378221203+380231141
3790+381374805+381438958+380517482+379923048+380224140+379549702+379054100
3777+381368954+384013252+384244215+381882508+379774615+380029554+381402706
3763+382943743+383047723+381496436+381512837+382947468+382159549+377923986
3750+376700143+380360748+382693654+382875289+385068536+387558051+386922515
3736+383553652+383323164+388434900+394648873+399404814+402154843+404572829
3723+409348471+417082904+427055763+437660206+447613864+457977544+472753471
3709+491865591+509879150+525084952+538103431+549761683+561326981+573113491
3696+583722385+589978485+589155339+583105800+580031228+581811728+583262009
3682+581853580+577408731+570284882+559073205+551312620+551996908+549928143
3669+545548997+546228235+547879378+547445354+546009773+544136118+540147845
3655+536328681+534869299+530212689+520382188+518461831+524364211+529002221
3642+530545707+530458102+530168286+530129134+530119983+529379092+525724387
3628+522450304+526105959+530987932+532153197+528837562+525267362+525834544
3615+527086414+527020760+527435033+527459235+526945756+527941612+528952568
3601+528279780+527183119+526371474+525515826+526290119+528807810+529167730
3588+525808792+525062250+528395637+531065986+531868831+532197000+532723179
3574+533426019+534139609+533725985+530060230+525878746+527426733+531829129
3561+534938603+536558194+537516648+537894669+537895819+538537905+539856329
3547+540543867+540943190+542506027+544648847+546203434+546904873+547631514
3534+549237754+550842694+551809148+553020716+554388092+554992826+555791821
3520+557574171+558831141+559099106+559870049+561009913+561000613+560473733
3507+561167522+562580601+563754967+565075541+565987892+565842334+565803132
3493+566697332+567934051+568633540+569149019+570450392+571341742+570881566
3480+570739508+571793717+573209346+574185701+574763883+575553728+576231415
3466+576009703+575242110+574545921+574125548+574315258+575462472+577227521
3453+578182925+577673746+576900153+576876152+577189919+577227821+577254623
3439+577686047+578545245+579278836+579024172+578234878+578282230+579387692
3426+580356446+580132784+579118627+578686953+579554852+580732417+581290199
3412+581691371+582283654+582897089+583010395+582479365+582591322+583909245
3399+585025858+584976455+584149109+583276010+583368665+584111157+584030002
3385+583659031+584418674+586254227+587345988+586286228+585180617+585836153
3372+586924314+587395491+587253733+586742704+586494140+586874261+587698858
3358+588854222+590068790+590780780+591304009+591735684+591308210+590553717
3345+590388258+590725177+591633728+592674486+592992654+592945751+593211266
3331+593666492+593689093+592717739+591506421+591828489+593517233+594886710
3318+595627001+595686305+594771454+593379876+592099504+591512871+591438217
3304+591191853+591269607+592246762+593344374+593515933+593040357+592984704
3291+593724645+594636396+594838807+594413384+594126217+594195521+594626745
3277+595865615+597647415+598266849+597600812+597907529+599594124+601069006
3264+601689291+602045461+603038266+604245584+604842067+605720017+607168948
3250+607890988+607680326+607726279+608845692+610400429+611127819+611121319
3237+611206774+611206274+611051315+611256477+611628897+612145176+613021375
3223+613089429+611792507+610637592+610338525+610423880+610695645+610320124
3210+608823040+607597072+607165748+606648869+606072336+605374997+604647407
3196+604692659+604809166+603943917+602539189+601537482+601352272+601422626
3183+601090707+600404269+599704330+599301907+599013591+598317202+597248692
3169+596205534+595317534+594741102+594306728+593226517+591657879+590493964
3156+589561962+588565256+587847066+587233582+586284678+584962354+583350114
3142+581981687+581527262+581535512+580873775+579184431+577485536+577001809
3129+577217371+576445677+574205602+571931625+570765509+570243830+569836107
3115+569120467+567592732+565964691+565338105+565264651+564600464+563479301
3102+562685357+562464495+562477245+562139076+561653549+561306480+560417430
3088+559166160+558695884+558550125+557641575+556830129+556909084+556910384
3075+556271948+555345796+554593654+554241034+553607749+552066312+550274212
3061+549180251+548856733+548545815+547547559+546204534+545336186+544930263
3047+544128968+542452874+540661524+539404353+538200186+537010919+536198224
3034+535202668+533753337+532424863+531317401+530232290+529064924+527455484
3020+525682135+524471667+523514614+522110785+520248581+518610839+517622434
3007+516624528+515400459+514542061+513927327+513077479+512071273+511291779
2993+510674245+509930253+509056754+507997945+506911284+505990182+505203388
2980+504789415+504659408+504335090+503602849+502230772+500427571+499168250
2966+498537515+497731020+496883622+495960071+493968009+491344062+489756623
2953+489247695+488648511+487992875+487729160+487456795+487029621+486684801
2939+486123270+484831598+483158354+482022040+481523912+480962031+479762614
2926+478096220+476644139+475415820+474019192+472746071+471731864+470566049
2912+469462087+468855203+468436330+467928501+467435424+466842840+466199554
2899+465740929+465323505+464906782+464479408+463766418+462723260+461622998
2885+460964411+460634893+459888451+458866494+458072349+457481216+456987739
2872+456200794+454936524+453717155+452692148+451693042+451031405+450666235
2858+450054450+449178251+448174045+446892573+445407490+444141069+443590888
2845+443717095+443761098+443127262+442193410+441790738+441826440+441507272
2831+440709927+439802526+439022433+438498853+438098931+437615154+436965067
2818+436274829+435955261+435874156+435441782+434737093+434068305+433347565
2804+432509318+431731774+431275649+431153292+431051286+430722418+430235091
2791+429776265+429473448+429218084+428680303+428064819+427793304+427619544
2777+427429283+427211021+426592937+425843945+425349417+424837138+424337060
2764+424078296+423882235+423641071+423440510+423225598+423048738+423063589
2750+422928881+422318397+421578956+420952921+420437542+420156176+419946814
2737+419672799+419527391+419509940+419377133+418920882+418346450+418144864
2723+418312123+418406528+418289972+418181016+418006106+417558406+417130382
2710+417005125+416941296+416526798+415780506+415362333+415601371+415909463
2696+415855860+415595571+415219975+414917483+414951810+415107919+415097543
2683+414869105+414397054+413920727+413769444+413829972+413833047+413768018
2669+413581233+413234014+413025777+413018051+412947548+412889469+412995950
2656+413076605+412915921+412646806+412580627+412769338+413026927+413152359
2642+413179811+413330194+413446926+413290392+413114907+413174585+413393398
2629+413591909+413664513+413655412+413677313+413875925+414326200+414920383
2615+415411536+415699752+416092824+416726034+417338493+417884349+418373151
2602+418643266+418811551+419194997+419731802+420160476+420556899+421045076
2588+421496251+421829170+422075584+422204691+422203191+422238593+422494207
2575+422882179+423153844+423252350+423344905+423476762+423504214+423474112
2561+423513214+423439510+423167745+423035037+423159094+423209697+423166045
2548+423276101+423344855+423138043+422885679+422796824+422787374+422846177
2534+423039088+423179945+423128493+423056239+423108692+423214197+423252900
2521+423308453+423487013+423649372+423680074+423601269+423422159+423246149
2507+423286601+423577168+423895686+424081746+424232354+424454117+424604825
2494+424550622+424408764+424341511+424420865+424497819+424301458+424076546
2480+424325760+424765884+424743233+424325510+423882685+423597969+423627971
2467+423684124+423450161+423200247+422927031+422429753+422025531+421816819
2453+421447048+420920119+420623652+420542148+420231680+419730352+419507890
2440+419528141+419404484+419094667+418770524+418392052+417838946+417256564
2426+416803388+416393991+415987193+415597171+415096918+414489459+413969830
2413+413540156+413138033+412880269+412727835+412361315+411672526+410986038
2399+410556114+410287199+409969806+409512130+409034003+408635856+408131453
2386+407187475+405692841+403793285+401548059+398875060+395832464+392697864
2372+389649293+386661951+383695360+380726118+378194827+376827100+376530108
2359+376500182+376755021+378220128+381169518+384897377+387605429+387435994
2345+384664014+382007140+380940605+380613962+380424551+380520782+380856676
2332+381160043+381641395+382353034+382889339+383205032+383700160+384588785
2318+385720348+386909165+387831916+388285442+388808921+389859680+390974617
2305+391660306+391924020+391947022+392065403+392442749+392840497+393090086
2291+393330374+393610865+393708270+393705320+393833677+393926057+393983336
2278+394160371+394309629+394317529+394197948+394061815+394080641+394262426
2264+394474638+394612721+394730578+394896837+395158026+395645204+396208460
2251+396481401+396558955+396827370+397302522+397729895+398030212+398378982
2237+398918962+399545747+400153606+400775041+401336322+401812099+402476711
2224+403410014+404306939+405105983+406007209+406997539+407975019+408962949
2210+409998757+411158822+412430994+413660762+415029764+416794588+418711720
2197+420533797+422374550+424372712+426520133+428751857+430987383+433216407
2183+435584690+438178885+440970542+443994911+447172389+450257512+453251929
2170+456234796+458992901+461518092+464082086+466697682+469201122+471475750
2156+473424259+475060851+476477580+477584242+478218427+478339284+477945412
2143+477167018+476111159+474526221+472082784+468808450+464977186+460800952
2129+456337202+451571085+446642009+441742285+436813059+431803428+426862852
2116+422068883+417431399+412904445+408389317+404070375+400200134+396680412
2102+393310723+389925358+386427413+383065274+380132635+377427784+374588675
2089+371705488+369143420+366942347+364853830+362799415+360805178+358792815
2075+356757401+354888922+353331309+351847326+350070677+348171145+346598857
2062+345208930+343693395+342219687+340855536+339454507+338031178+336663226
2048+335350703+334011478+332604799+331201820+330009028+329069976+328108797
2035+327103391+326226592+325442048+324670555+323899461+323149294+322416478
2021+321632959+320687882+319702251+319007237+318470957+317703914+316693483
2008+315672726+314768700+313856449+312808590+311802534+311069768+310368054
1994+309153736+307596924+306564991+306180744+305908254+305426402+304707537
1981+303999797+303391863+302764853+302189921+301657041+300820044+299501745
1967+298312954+297972435+298074515+297836877+297210242+296502527+295819764
1954+295241757+294845510+294449937+293774900+292695989+291296961+290455414
1940+290970593+291747311+291727935+291272534+290941366+290741055+290469290
1927+289900033+288749268+287629931+287443395+287526575+287647131+288364422
1913+288925078+288644187+288219214+288496804+289137140+289542113+289725548
1900+289787751+289573964+289076512+288689340+288301168+287679608+287726686
1886+288498479+288972406+289086987+289168742+289379128+289711172+289866981
1873+289353727+287543351+285360653+285773652+288349871+290357258+291124276
1859+291405242+291824290+292399073+292887875+293128338+292929952+292235238
1846+291134677+290764556+292542831+294769830+296003349+296854522+297650317
1832+297321448+295953622+296000999+297536435+299050495+300679586+302046813
1819+302610219+302687924+302385857+301290220+299883667+299500645+299953596
1805+299947495+298768879+296995130+296225737+296487051+296210936+294640323
1792+293691370+295716308+298215623+299032519+298800181+298519515+298687050
1778+299626652+300092028+298500914+295706808+295796738+298617496+301071983
1765+302039037+301573886+301298121+302077865+302887535+303517345+302757253
1751+299439017+296357969+296750816+298357181+299135225+299162701+299091697
1738+299281233+298038213+294921364+295124100+298524891+301885679+303970270
1724+304640358+304642458+303437166+299529147+296704739+300529878+306102115
1711+309892577+311416362+311080194+310820979+311750406+311967243+311650626
1697+314374278+320923795+328110322+332783159+335408106+336828610+336834936
1684+338955254+347077784+355631263+362160029+367078154+371938376+376422377
1670+380944906+388808521+397454280+403659052+409558658+417478476+424981096
1657+429489599+430891577+435758300+446514302+453473492+460412480+472502457
1643+484108607+492432123+497716469+500311264+504890721+514881030+523833281
1630+529913072+534299067+537975173+541382364+545926019+550520976+552609943
1616+554341590+559157059+563578557+565495064+566378114+567896099+569727201
1603+571553704+573744176+575885796+577217971+578510293+581025234+584431025
1589+588147583+592241262+596812968+601913754+607347308+612014219+615563018
1576+622072832+632213550+640620721+648742126+659630235+670919267+680785420
1562+687794762+690948889+698124991+713910025+728427488+741696480+754049272
1549+765748927+774765382+779674007+781361401+784957103+801160310+818114309
1535+828056216+836524990+847289543+856346350+861959364+866234204+870111621
1522+874464765+881707470+890110341+899347358+909107204+915408157+915994290
1508+911962364+913937875+926597284+935463180+938544753+937615101+936866559
1495+940083439+942826293+940024536+935012855+936531840+941271405+944077163
1481+944337177+942993302+939553309+932948439+924945891+921817316+925124401
1468+927045809+923468209+919753301+920726355+920633850+914699618+912428190
1454+919935511+927663243+933792587+938827769+944918510+953398885+962124573
1441+968938555+972345245+973329100+978491990+986992566+993425126+999713378
1427+1006969084+1011538640+1013650358+1014754320+1013631257+1014604012
1416+1020809259+1025866842+1027067009+1027233619+1028174372+1028165971
1404+1026499478+1024933690+1022936078+1020817260+1020224226+1020188524
1393+1021121277+1022056329+1019130565+1012018867+1008223054+1011049113
1381+1016174600+1019570090+1019583690+1017101151+1016618224+1019221370
1369+1020716954+1020603148+1019807903+1016795434+1014136785+1015350553
1358+1017052049+1016440714+1014771221+1013352742+1011757352+1010196565
1346+1009456923+1008928794+1006343249+1001165559+997200837+997294642+999403360
1333+1001199161+1002823052+1004549249+1005546304+1006213642+1007264701
1321+1008594775+1010495482+1013393444+1016842637+1020602848+1024709978
1310+1027940958+1029936070+1032502114+1036699149+1041152298+1043852249
1298+1045121220+1047142334+1050869242+1055138081+1058190652+1059660435
1287+1060462279+1061009110+1061506938+1062531595+1063616756+1063205433
1275+1061349229+1060071458+1059611132+1058114648+1055230887+1052548436
1263+1051702389+1052428730+1053451487+1054870966+1056283345+1056546360
1252+1056417453+1057018087+1057854933+1058735583+1060336172+1062058869
1240+1062813611+1063018523+1063483949+1064231790+1064530307+1064042880
1229+1063952775+1065109740+1066687928+1067401868+1066933842+1066830536
1217+1068529831+1070626549+1070859462+1069474384+1068748443+1069937710
1205+1071868018+1072917977+1072771769+1072256140+1072285541+1072934378
1194+1073741823+1073661919+1072532355+1071816215+1071700709+1071819915
1182+1072338544+1072021427+1070437038+1068889951+1067762888+1067025847
1171+1066568221+1065642770+1063660058+1061093815+1059230110+1057604919
1159+1055391395+1053738803+1052369126+1049832884+1046339689+1042386267
1148+1037902816+1033334960+1029600351+1026568482+1023128889+1018740243
1136+1013557053+1007801531+1001640486+995223626+989059781+983669079+978464188
1123+972446251+965442159+958273257+951820196+946243884+941477717+937030068
1109+932624021+928580095+925067298+922377748+920224027+918351922+917462272
1096+917681885+918085507+917854494+917618581+918255117+919505887+921122077
1082+922438251+922926278+923878432+926390772+929781462+932478213+933679480
1069+934694137+936859758+939613213+942507875+946138578+950089399+953122569
1055+955360894+957262701+958359762+958822388+959783642+961783954+963964476
1042+965163243+965856382+967545577+970044117+971760613+971933122+971021471
1028+970616749+971787214+973459608+974420462+974538568+974081343+973864030
1015+974459464+975259409+975658031+976034452+976617785+976499778+975182104
1001+973984037+973563514+972861374+971839417+970833161+969463184+968055505
988+966470516+964367599+962813012+962428990+962089771+960360674+957433810
974+954462944+951928102+949913489+948121289+946372791+945043717+944013259
961+943335621+943602036+944030260+943856650+944001758+944165568+943830249
947+944551589+946513699+948280598+949609672+951010151+952479033+953546893
934+954577151+956549061+959236711+961426934+962690705+963633658+964092683
920+963475649+962789810+962953620+962864515+961540440+959982253+959670836
907+960085259+959205410+956902681+954957972+953582195+951671888+949735579
893+949076042+949208050+948912833+948098188+947135434+946762013+947422950
880+948119989+948198893+948178492+949093643+951987105+956167840+960257569
866+964750620+970939067+978165871+983120349+984329616+984706038+985741696
853+985731095+984656635+983976497+983243256+981879979+980960428+980666311
839+980842321+981961284+983570074+984962452+984379419+980837521+977317724
826+976132257+977276822+980717914+984572130+986566742+987929318+990153343
812+991326108+990788778+991772333+994816304+995792358+993729843+992988101
799+995796559+999113544+1002692145+1010686792+1018869851+1019593891+1016373011
785+1014380999+1014968432+1019417181+1025028395+1028576194+1031309147
773+1034117004+1035625989+1036053713+1036921561+1037005666+1034973452
762+1034000398+1036278025+1039070982+1041119496+1043557633+1044980613
750+1044200969+1043076706+1043284918+1044337577+1044232171+1041507418
739+1037309883+1033822388+1032053789+1031933482+1031789874+1029885367
727+1027719446+1027309123+1027434730+1027234819+1027913657+1028335981
716+1025937346+1020981169+1016372111+1014445703+1014605412+1015763177
704+1018089607+1019695397+1018427126+1015922385+1013425846+1010467380
692+1009112304+1009849245+1009354618+1008552873+1011300827+1015903284
681+1018064405+1016278905+1010547585+1004425542+1003941315+1007013687
669+1007395908+1008614576+1012345885+1011220722+1007621221+1008927894
658+1014754420+1019067562+1018883451+1016047492+1016185000+1021762812
646+1026281766+1025019495+1020635449+1014601011+1010625189+1005975529+987531996
633+971705110+983012243+1003193473+1007431810+1001422874+996523699+995299231
619+993522331+990560665+989163987+988916973+989259593+991546021+999019239
606+1007682024+1013028323+1014960232+1008088847
##END=
