##TITLE=Sample description
##JCAMP-DX=4.24
##DATA TYPE=INFRARED SPECTRUM
##DATE=24/8/2023
##SAMPLING PROCEDURE=Instrument type and / or accessory
##ORIGIN=Default
##XUNITS=1/CM
##YUNITS=ABSORBANCE
##RESOLUTION=4
##FIRSTX=4397.6552
##LASTX=599.8556
##DELTAX=-1.9287962
##MAXY=1.5793518
##MINY=0.52951074
##XFACTOR=1
##YFACTOR=1.470886e-009
##NPOINTS=1970
##FIRSTY=0.6625542
##XYDATA=(X++(Y..Y))
4398+450445662+452674019+454013749+453976630+452954479+451604537+451119721
4384+451374529+451124908+450594624+450746869+451378217+451629216+451037824
4371+449937099+448979339+448520376+448750222+449670823+450963910+451935488
4357+452023342+451540309+451317919+451703940+451835680+451177547+450446999
4344+449733714+449072461+449069502+449534503+449762729+448881962+446995335
4330+445942670+446197438+446701544+447797203+449028007+448517661+447160061
4317+447438899+448956565+448869765+446665681+444839595+444610924+445208719
4303+445463486+445059797+445041845+445871309+446572356+446574180+446334770
4290+445923787+445176219+444388210+443952953+444272476+445237855+446090255
4276+446136411+445568522+445269989+445454977+445577680+445512600+445610868
4263+445734585+445467174+444488626+443435758+443782959+444840446+444808879
4249+444195037+444318875+444700237+444171736+443214503+442775031+442665498
4236+442573268+442414296+441851878+441401668+442288999+443680112+444009280
4222+444030919+444711340+445176057+444444253+443015211+441904801+441471773
4209+441494060+441790324+442347595+442753919+442724540+442431640+441845030
4195+441128179+440813315+441062856+441774479+442497976+442235549+441028087
4182+440225368+440318854+440208308+439258652+438676337+439199570+439684913
4168+439157304+438201895+437940603+438485069+439015352+438927458+438447302
4155+438185726+437997699+437118149+435834787+435322617+435771449+436383954
4141+436655579+436912414+437157496+436651122+435892005+436052030+436801462
4128+437017165+436528499+436143491+436042750+435938404+436253429+436793722
4114+436450452+435446658+435144762+435676139+435828830+435115342+434461991
4101+434443998+434866896+435732831+436332003+435689674+434591016+434157055
4087+434236521+434278016+433926925+433489602+433329496+433273047+433454914
4074+433672563+433312962+432506920+431659261+431160383+431116375+430972964
4060+430746684+430906790+431188789+431464062+431611160+431194382+430676904
4047+430550188+430553349+430437859+430215793+430072949+430118700+430582607
4033+431532262+432197446+431754733+430447381+429165519+428673043+429163250
4020+429759666+429785561+429717887+429778145+429532819+428797733+428338040
4006+428780713+429164830+428751334+428425853+428826706+429542504+430352720
3993+431292933+431757245+430974828+429420732+428105884+427376147+427357020
3979+428051502+429057728+429376927+428793194+428454665+428073020+426993043
3966+426794359+428060296+428702747+428083070+427707746+427603278+427271030
3952+427927543+429919165+431021308+430911572+430502857+428631345+426811865
3939+427057677+428161644+429548744+430214010+428625307+427180705+427730844
3925+428333380+427908618+427844997+427994284+426934649+425360373+424807559
3912+424783367+425055357+426612532+428706880+428918572+426970472+424807924
3898+424027411+424910406+426001081+425312151+424134270+425630742+427274758
3885+426019519+424182735+422111405+420983651+422667582+424367439+424658272
3871+423465398+420953015+420724466+421533264+420445141+419802528+421391433
3858+424079564+424791674+418710961+413931117+416369910+419547517+421476369
3844+422363012+422670824+421767041+418946521+417690796+418602319+418709422
3831+418525974+419343768+420460945+421847316+422033236+418967512+417794900
3817+418276839+417138549+417676127+419739880+420548718+418710637+417538106
3804+418381307+416499583+414759690+416319905+417613235+418552922+419710744
3790+420490932+420861150+420247227+419228034+419582610+419979087+419107479
3777+419114003+420500901+421658804+420869133+419351954+419698708+420500982
3763+421244457+422036559+421467981+421276348+423324986+424599919+421607461
3750+419991933+424550198+427791588+425989775+426672709+431063290+435347701
3736+436497013+433379866+431342655+433905327+438447220+441178022+440405006
3723+437341957+433618262+431455309+432308236+435313621+437760073+437683930
3709+438250968+441236902+445116326+448622332+452291726+457444422+462966890
3696+467941650+472814941+476705428+477581980+477799183+479702587+481182850
3682+481656077+481941723+481972642+478694497+474547783+475776682+476311666
3669+473713699+473889123+476118291+477957060+479867961+482710686+485565083
3655+488809188+494164621+499837835+500269850+496984330+497211015+499029523
3642+499994699+500104273+500411721+501054779+501719640+502842895+502109187
3628+496907903+494261714+495025329+495687149+494171064+490094414+487507226
3615+487338489+487677342+488026852+486802046+484265269+484100664+485436504
3601+484975636+483690167+484153547+484873761+484199095+484118778+484990589
3588+482556213+476913432+474341035+474580039+474335362+473017069+471903296
3574+471842795+473787208+477767332+480467376+477276315+472359625+470571509
3561+470159836+469306909+468652950+468776342+468510147+468265996+470469026
3547+473309037+471962419+468204077+467169526+469135254+471331152+471526189
3534+470557042+470444550+471435944+473371483+475745236+476266037+474492956
3520+472691508+471339378+470038875+469637617+470699561+471737516+471289292
3507+471755508+474289895+475181927+472931728+470323427+468942486+468444783
3493+468121896+468067636+468857915+470230954+471136723+471534496+471856005
3480+471590458+470693402+469732197+468830764+468207359+468410014+469493598
3466+470383685+470198009+469892020+470163524+469901745+469008093+468636781
3453+468611738+468225635+467654667+467540757+468245248+469375271+470725699
3439+471750443+471085502+469016521+467274399+466757731+466942314+466556940
3426+466095667+467158585+468832183+469149680+468640347+468355876+467702362
3412+466637946+466254801+466505030+466526386+466439181+466610714+466869494
3399+466980770+466970558+467286961+467596800+467039690+466330741+466404169
3385+466440234+465517121+464629709+464743781+465070842+465114039+465117119
3372+464900767+464450354+463981747+463613191+463948437+464828150+464723033
3358+463675515+463057378+463253671+463826301+463851952+463218254+462751916
3345+462379834+461676437+461398328+462009860+462355358+462044547+461769315
3331+461554787+461421912+461431556+461242152+460736790+460209141+459943716
3318+459890671+459866276+460115979+460388901+459685301+458674577+458512566
3304+458459968+458001532+457672323+457569192+457614051+457520565+456724126
3291+456003507+456239107+456844966+457089400+456614471+455776173+454845401
3277+453799301+453316349+453466851+453677043+453940524+454403661+454882520
3264+454837945+453966134+453017370+452602456+452308583+451922886+451599634
3250+451863155+452616639+452497137+451445485+450807005+450640253+449935640
3237+448918879+448542542+448676916+448823650+448942422+448983796+448786490
3223+448609121+448691302+449020915+449273495+448513609+446833608+446029997
3210+446673866+446935402+446224791+445793424+446091025+446308876+445219781
3196+443780568+444233169+445835163+445644624+443890628+443701427+445039292
3183+445118798+443741909+443833005+445773365+446328976+444499040+443027368
3169+444724023+447704446+447840360+445681784+445571845+448466845+449378855
3156+445870539+442919698+445370486+449645820+448203486+442557018+441854269
3142+448739240+453339123+448890513+443392642+445521596+452050614+452180166
3129+445105871+441884783+448271524+454776553+450347759+442070175+442904583
3115+452581262+456444396+448110851+441097786+445545302+454771082+453886263
3102+443564945+438960727+445738475+453831274+449934303+439387231+437180595
3088+446509424+454174949+447800202+437503117+436336866+443134308+446925352
3075+441387688+435058043+436635925+443985614+445925245+438783926+432848650
3061+434644060+441040041+442403112+436087204+430661991+430793123+433795712
3047+434327333+431730825+429976667+430414315+431379693+430844912+429151336
3034+428556256+429605841+430652549+430046609+428357045+428240015+435239667
3020+462807027+516023148+559257980+551174420+515425962+485734388+467563774
3007+455868201+447334593+441738616+438662114+436186688+433068528+430633017
2993+430444261+433446080+437077747+435596998+430392757+428274622+432325175
2980+438708999+438774038+432454564+428292371+429848331+434917104+437012667
2966+432545336+427515829+428223198+436471119+444511926+440799092+431251722
2953+427731087+432727284+441022576+441451998+433475986+427888681+429894932
2939+437523297+441190422+435037943+427662239+426575940+432709413+440459104
2926+438641609+429226222+424121141+427394058+434604469+436062728+429531441
2912+423838614+423991264+428528579+431990252+429663749+425041255+423469734
2899+426243490+430784208+431135502+426475362+422602948+422765445+425994557
2885+428195035+426010037+422191559+420957676+423179428+426216582+426100484
2872+423221896+421168395+421325583+423034031+424472596+423903086+422233217
2858+421502466+422097708+422686506+421569815+419079477+417355550+417516385
2845+418799950+419564983+419174260+418543764+418467662+418839379+419223293
2831+419297450+419063633+418909564+419132684+419613772+420051785+420015557
2818+419381940+418845254+418946319+419071859+418524070+417844702+417912497
2804+418435284+418683649+418717972+418659538+418425275+418296249+418440673
2791+418627038+418497041+418026245+417784850+418054044+418379565+418375229
2777+418152677+418093148+418387831+418708044+418723645+418676031+418775758
2764+418787347+418755577+418991583+419369297+419610287+419656321+419551205
2750+419292912+418885291+418864381+419578801+420170071+420090727+419852007
2737+419671477+419512789+419489326+419667344+420234949+420893244+420961809
2723+420706960+420629642+420560145+420526714+420777956+421209850+421373887
2710+421012219+420620930+420687793+420958121+421189588+421631005+422288693
2696+422643876+422509948+422191762+421868388+421758450+422126884+422848720
2683+423585630+423965613+423970111+424023197+424137512+424112793+424099825
2669+424187679+424308600+424501327+424862670+425260241+425440244+425427965
2656+425458844+425716489+426190405+426634698+426827831+426975496+427422667
2642+428011304+428355425+428478371+428718551+429171516+429624766+429938899
2629+430020553+429941331+430146174+430793204+431489916+431991468+432401074
2615+432788352+433149614+433537703+433846042+434021587+434381269+434976956
2602+435445969+435711800+436048343+436534375+436973603+437337702+437694628
2588+437951989+438114487+438384896+438850100+439298446+439584254+439911517
2575+440405006+440850515+441088385+441238806+441434937+441642901+441924455
2561+442415998+443053505+443752607+444326980+444581585+444793520+445216702
2548+445682229+446069669+446438185+446713701+446748267+446665438+446767272
2534+447258734+447946449+448376114+448550201+448768620+449123601+449578511
2521+450004772+450367777+450782772+451206602+451480416+451537188+451450469
2507+451414566+451607901+451984845+452283540+452464759+452805719+453309095
2494+453621203+453577681+453331666+453218810+453521922+453974279+454099819
2480+454024730+454129320+454491636+454932728+455107747+454973575+454862705
2467+454779754+454549422+454281160+454184391+454373268+454563443+454440861
2453+454280065+454294451+454348792+454414278+454394827+454122512+453776527
2440+453708206+453871229+453873985+453578492+453184082+452803936+452451386
2426+452213314+452085585+451965759+451801438+451501325+451046577+450656827
2413+450484645+450479296+450483065+450113657+449247560+448531641+448396781
2399+448381382+448293083+448879855+450988426+455245322+462729507+474669676
2386+491032359+510265809+530345784+549595970+567157322+583435028+599602025
2372+616429871+634066109+651308180+665856447+676744803+684348976+688569117
2359+687981453+680339311+666110486+648996548+632504719+622409721+624140214
2345+633699173+636720646+629688819+621420921+615414041+612647134+614951269
2332+619663076+620202314+616602336+615621397+618792602+619931540+614802023
2318+605484742+596732473+593880630+596669460+597604162+591750784+580057885
2305+565975227+554281801+546653031+540293440+532944764+524534995+515297787
2291+505820198+497080410+489484422+482919015+477361130+472744674+468729700
2278+465123319+462013061+459401275+457287193+455716280+454480857+453261724
2264+452072578+451181478+450537487+449768240+448850435+448183995+447867227
2251+447543692+447109367+446818290+446731004+446762531+446926689+447095224
2237+447098750+447125778+447421556+447839388+448123413+448416921+448950365
2224+449493859+449814598+450065476+450457495+451036041+451647613+452129755
2210+452525138+453116084+454017801+454835189+455447815+456191047+456996886
2197+457655952+458267686+458976473+459824173+460619233+461196807+461780621
2183+462584394+463502887+464285345+464732556+465047014+465704905+466729365
2170+467710872+468389307+468859779+469302654+469610304+469784431+470128350
2156+470595904+470959192+471166913+471057946+470620785+470158985+469899314
2143+469955762+470190998+470156959+469622299+468745504+467800509+466941138
2129+466108554+465161005+464098007+463008791+461740828+460219029+458866697
2116+457755638+456250373+454305838+452602983+451306491+450030261+448539827
2102+446981679+445538332+444164118+442850931+441704131+440825229+439955039
2089+438627061+436945642+435318848+434050115+433225189+432419512+431242644
2075+429887719+428697519+427725941+426940647+426467744+426103321+425304694
2062+424253975+423437073+422723747+422030845+421549351+421255276+420978788
2048+420763611+420787965+421141731+421698800+421970142+421926417+422127127
2035+422670419+423332240+424053589+424875354+425742667+426485047+426993934
2021+427558905+428494013+429002171+428343227+427309162+426516614+425652665
2008+424598420+423563747+422486404+421247496+419958987+418627484+417537255
1994+417034446+416267144+414500505+412476829+410605033+408907486+407568932
1981+406394779+405175525+403987635+402946479+401979074+401197386+400746204
1967+399979023+398584669+397339885+396535261+395888717+395298946+394664965
1954+393925218+393241231+392740003+392395233+392258793+392296519+391990652
1940+391287944+390826630+390649221+390461235+390210074+390018724+390002799
1927+390289782+390974863+391587732+391621569+391351443+391127635+391083586
1913+391135051+391178045+391236236+391165564+391095176+391435893+391955154
1900+392300855+392700939+393032092+392957327+392787252+392540508+392070645
1886+391827993+391878201+392293480+393167317+393650189+393334555+393169343
1873+393993621+395258828+395420596+394789167+395290112+396608648+397521833
1859+397557493+397188207+397178766+397758933+399029935+400958220+402614636
1846+403162101+402612407+401601481+400825224+400458288+400690242+401345903
1832+401098105+399008498+397208428+397105500+396634259+395256113+394388639
1819+394182134+393266882+391464137+389862225+388182832+386230598+384488273
1805+383541940+383822319+383156000+380222178+377980246+377022000+375560458
1792+373377163+371727433+371247519+371270536+370580430+369241998+368011356
1778+366830477+365656608+364149843+362238375+362382920+363970853+363886160
1765+362919606+362450513+362336238+362501531+362188572+361801497+362816313
1751+364089626+363305547+362054239+362258556+362427415+361301971+359994416
1738+360086525+360848114+361029940+361458065+361987052+361738079+361760893
1724+362467330+363113995+363576402+363985239+364285230+364466206+364651476
1711+365134429+365680962+365737046+365966446+367072804+367385763+366133725
1697+365810636+366673774+368373712+370705646+372987494+374356116+374312149
1684+374409201+377031442+379335334+380066246+380008136+380234173+381224635
1670+382633416+384547477+386787910+388493238+389723879+391642520+394235421
1657+396531209+397121831+395468697+396934615+399821105+401329775+402959568
1643+405858742+408501284+410002011+409917521+409391938+411833851+415330212
1630+417679247+419175111+420780833+422611660+424958142+427333800+428460095
1616+429372794+432309492+435612113+437949761+439742577+441721435+444091582
1603+446699963+449202864+451608630+454184999+457034127+460151639+463335244
1589+466420337+469629107+473293679+477043835+480405376+483455458+485930965
1576+488481236+492474773+496632023+500516189+504893235+509607108+514270814
1562+518388068+521299399+525461674+533543126+541635114+549244231+556320187
1549+562891308+569427418+575407674+577631735+577139746+585088243+596732068
1535+605174620+611981828+618590028+624823552+630833674+636212691+640239781
1522+645000336+652355252+660764819+668876704+676377868+684245804+691808117
1508+695314082+694490493+699610407+707314063+713363897+717553728+721796319
1495+727418879+733538979+739695551+745450053+751039385+756878580+762302659
1481+766926490+770904304+774278894+776354479+777292261+780840938+788095357
1468+794785372+798661069+801876970+806705199+810590054+810930933+812379629
1454+819112193+825768575+830984284+835459477+840823987+847401997+853299708
1441+857466440+859944743+861897139+866655020+872963066+877260525+880686822
1427+884956564+888466419+891257397+894048051+896411106+899531779+903736684
1414+907277255+909491105+911093464+912623368+913357319+913185745+913170671
1400+912850782+912255500+912718840+914707220+917877655+919170986+915984747
1387+910769199+909362648+912100703+915627983+918034317+918289935+916387707
1373+915895596+918449758+920517401+920998976+920862576+919348071+918065843
1360+919336724+920824565+920301900+918776211+918789665+920099853+920323296
1346+919711481+920476716+921309301+918424147+912951279+910541055+912625313
1333+915143814+914706815+913521599+913400841+912796806+912323255+913704844
1319+916332190+918844208+920865169+923146530+926315425+930781379+937638917
1306+944411680+946484267+945245399+944644201+945912731+949055449+953014055
1292+955960803+957780446+959812753+962109189+964106484+965514495+966285403
1279+967124310+967488044+966494502+965507849+965814203+966237667+965227835
1265+963108080+960907602+959378914+958807541+958988111+959492216+959639396
1252+960107355+962144849+964699578+966400894+967611314+968014842+967094161
1238+966295210+966577493+967043507+966984343+966533080+965904326+965713787
1225+966782782+968143462+968732179+969459566+970458944+971112498+971438545
1211+971033964+970197895+969898106+969882626+970287045+971865252+973829967
1198+975173546+975577236+974886644+973611710+972957265+974726740+977772121
1184+977620808+974645613+973335344+974138671+974497056+973961667+973594286
1171+973040985+972214398+971963399+971541798+970173419+968382628+966769815
1157+965918914+966190823+967267599+967531079+965287242+961402550+958143531
1144+956190244+954607498+952360987+949570333+947647276+946910406+945326607
1130+941519881+936916068+933098401+930150194+927302565+923035579+917922068
1117+914249635+911598866+908345440+904316162+899483151+893978918+889933674
1103+888480683+886995760+884110201+881480991+880068766+879297614+878005175
1090+875945555+874195288+872703476+869809489+865566573+861897463+859950254
1076+858864158+857133747+855750617+855496538+854765747+853861275+853427598
1063+851646128+849076568+848080027+847555174+846497930+845872661+844729427
1049+842704900+841181967+840201392+839234109+838040789+836510886+835421224
1036+835567511+836101928+836018937+836045439+836709610+837155525+836642585
1022+835282230+833974068+833824214+834974580+836732303+838494646+839475950
1009+839195450+838685753+838841280+839408034+840456768+841603324+841978729
995+841717680+840959901+840214441+840475814+840853488+840020255+838915275
982+838477222+837776904+836125594+834145804+832602366+831172959+829001415
968+826469460+824503853+823068449+821701610+820367027+819277446+818761346
955+818789225+818635886+818333828+818506132+819433135+821371024+823747776
941+825447876+826392385+827807528+830316547+832859768+835078805+837468200
928+839703122+841548051+843093272+844413267+846151459+848180038+849040745
914+848712023+848880274+850205537+851542714+851749867+851007486+850298416
901+850223853+849792527+848204352+846508304+845623607+845323575+844881631
887+844546669+845190416+846185822+846401485+846077707+846234774+846949356
874+847510761+848378438+850268105+852313298+854298355+857576662+862340298
860+867231094+870870866+873224520+875662867+879085355+883120388+886918604
847+889773284+891261611+891831445+892805536+894534002+895630148+895729834
833+896090164+896602131+896497501+895966083+896082465+898772217+904425331
820+909912220+912032786+912756364+915485990+919557088+922375784+922675897
806+922386887+924417411+928127369+931290023+934659669+937796389+941840661
793+954036854+966196415+960520851+946872639+941091797+941608788+943940560
779+946992263+951622335+957893019+961551917+959457042+954901938+952105692
766+952541152+956540687+960813184+961781925+961033629+960144636+959556810
752+960536088+962828795+964433667+963516713+961365512+960364351+959165439
739+956271047+954803792+956422603+956542307+953502843+951073897+949998580
725+948051533+945466168+946078470+948399625+946012256+941826316+942789141
712+947287837+948113452+944950878+943118268+941856303+940121029+940225254
698+941184027+940849469+940121191+941213690+943037466+942611083+939864194
685+937833751+936980743+934654644+934118526+938683031+943974599+947266198
671+948380660+945626072+942216471+943185131+946812584+951382033+952402888
658+949557447+948310718+947808152+944237431+937700674+932921072+934700192
644+938009864+932212083+920692785+918807981+947320985+1022425742+1073741823
631+1009632889+938207454+922983709+934047205+930361075+908416193+897754766
617+911197527+920835182+904194269+886527558+885186329+894820013+910761743
604+917941033+909254370+902655288
##END=
