##TITLE=Sample description
##JCAMP-DX=4.24
##DATA TYPE=INFRARED SPECTRUM
##DATE=24/8/2023
##SAMPLING PROCEDURE=Instrument type and / or accessory
##ORIGIN=Default
##XUNITS=1/CM
##YUNITS=ABSORBANCE
##RESOLUTION=4
##FIRSTX=4397.6552
##LASTX=599.8556
##DELTAX=-1.9287962
##MAXY=1.5344681
##MINY=0.58265269
##XFACTOR=1
##YFACTOR=1.4290847e-009
##NPOINTS=1970
##FIRSTY=0.82932526
##XYDATA=(X++(Y..Y))
4398+580319162+579548310+579235080+577813538+575954225+575551824+576087316
4384+576006694+575469200+575313795+575599621+575795108+575373813+574850082
4371+574823764+574727376+574334109+574390666+575095368+575264454+574720244
4357+575276841+576852496+577067168+575956352+575527091+575112969+573447016
4344+572032397+572258831+573443763+573978004+573373526+572950980+573516127
4330+574492892+575197887+575163103+574241016+573015919+572415821+572910981
4317+574358592+576022501+576055993+573442970+570532693+570000245+571420119
4303+572727674+572885581+572020176+570687722+570218838+571095170+572308172
4290+573509495+574179997+573183086+571796829+572227341+573567386+573851795
4276+572996483+572276474+572698561+573078023+572067307+570936846+571101010
4263+571947646+572480093+572691554+572699187+572190638+571341916+570775935
4249+570141678+569047461+568543834+569532278+571505830+572441889+570720046
4236+568239155+567713423+568783823+569835998+569989192+569227182+568596678
4222+568473305+568208583+568075409+568315773+568422380+568491740+568205580
4209+566875086+565620418+565857363+567131092+567854105+567391185+566829624
4195+566292339+565060443+564162423+564582133+565488620+565850940+565831754
4182+565956128+566476063+567145022+567009888+566002091+565025241+564675309
4168+565079754+565684858+565479945+563806276+561814331+561734710+563404667
4155+564619503+564464349+563293514+561774833+561366759+562562160+563933694
4141+564886770+565624839+565472896+564730865+564429272+564504138+564502011
4128+563812031+562925064+563212433+563863166+563362833+562144952+561311538
4114+561235712+561602578+561658092+561077054+560727538+561055282+561465691
4101+561751977+561818543+561414766+560651838+559747936+559270001+559691088
4087+560063251+559981503+560422484+561081099+561496347+561882607+561574758
4074+560847366+561039475+561675692+561559076+561222866+561133068+560713566
4060+560339443+560516828+560494681+560099370+559972410+559814419+559395001
4047+559146170+559177743+559649338+560302823+560637574+560719155+560333812
4033+559473830+559236885+560139494+560693546+559779468+558359385+557549577
4020+557828314+558553078+558384034+558013373+558407766+558321973+557289818
4006+556708822+556919741+556734264+556191765+556315847+556212243+555645678
3993+555969835+556473462+556571143+557099920+557852796+558265708+558290733
3979+558188756+557937839+557134288+556159274+555826901+555759208+555236854
3966+554778981+554678881+554675419+555137547+556138211+556805335+556404018
3952+555809383+555451318+554497783+554192312+555055173+555770636+556373571
3939+556450815+555499032+554259546+552584417+550868998+550950537+552203412
3925+552986943+553682470+554274436+553335082+551583293+551669838+553478475
3912+555001411+555863979+556198188+554543704+550649612+547608371+546886776
3898+548732408+552594594+555604471+555178921+553641304+554256334+553854809
3885+551757342+551414959+550780159+550691612+552840798+553464336+551592302
3871+548322416+545421314+545964273+547134523+547905625+550335674+552530405
3858+552982772+550487325+542048409+538220799+543569968+549012396+551097976
3844+550050223+547680109+544618472+541958819+543524631+547109206+548920346
3831+549849314+550474145+550196410+550514436+549336719+543770293+541669990
3817+542924574+543605712+546607080+550493707+551636388+548866626+546653543
3804+546105288+543270628+542865432+546031631+548296682+550466847+552838128
3790+553880418+554004750+553878457+553721217+553867864+552855437+550730902
3777+550269775+551408577+552281990+551090093+549531747+550596518+552443985
3763+553410908+552429220+549232657+548168638+549835383+549062863+543079354
3750+540170285+544002274+545898791+544359172+545873849+549148073+550023571
3736+546394076+542045364+542883074+546916013+549864329+549749881+547892946
3723+546488337+546545352+548706674+551107235+550811107+546181114+540705319
3709+541593580+546329929+550146360+551152906+550483405+550749837+551629131
3696+552546838+553118533+551685228+547505977+545310287+547681235+550800221
3682+552178637+551923424+549989579+543917064+539723381+542243728+541888416
3669+538823526+540535483+543678660+545009695+545313624+544747642+541336157
3655+538096717+538563099+536666875+527344535+522640469+526347332+530241675
3642+530949381+529285304+527459608+525602381+523209328+520595262+513750936
3628+503846474+503303016+507200820+508289531+504420589+498247140+496097079
3615+495881989+493889210+491376746+488862655+486998588+486710091+485978612
3601+483845568+481720949+479927368+477701023+475871198+475234938+473154363
3588+467973237+465504859+466977411+467587019+466207560+464519126+463533726
3574+463085154+462829441+461970042+458065439+451989212+450129107+451096405
3561+450954847+450264659+450043647+449135157+447174243+446031854+446195225
3547+445689304+444255124+443716670+444057677+444214083+443600679+442234942
3534+441420505+441228271+439928558+437992127+436761775+435710810+434955474
3520+434726954+434518121+434303949+433808872+432732381+431455316+430552290
3507+430091205+429136962+427949361+427998577+428212040+427215045+426014848
3493+425319071+424492205+423612369+423407122+423674389+423421345+422053397
3480+420505478+420155671+420559866+420505103+419800942+418790560+417844700
3466+417141498+416439506+415931500+416177036+416610302+416194512+415166904
3453+414552082+414524763+413890464+412451696+411855017+411921626+411429551
3439+410806764+410672672+410889304+410940814+410823906+411075490+411163286
3426+410324908+409083753+408125339+407710384+408034791+408952498+410194611
3412+411192440+411206913+410704829+410486986+410206582+409671631+409398442
3399+409448659+409857400+410788871+411488360+411367281+410972387+410846553
3385+411202825+412006794+412762047+413219045+413933590+415250946+416705605
3372+417874062+418566211+418953347+419754896+421132979+422653913+423912710
3358+424487617+424758595+425511847+426750373+428234479+429718000+430742146
3345+431064468+430807211+430550580+431087866+432200351+432876900+433085066
3331+433602040+434492553+434924735+434664100+434552447+435128479+436093150
3318+436505436+435826426+434982459+435078888+435962812+436538886+436090564
3304+435340524+435421313+436154169+436797185+437162883+437346108+438010896
3291+439215389+439845851+440003550+440514017+441152696+441620413+442188354
3277+442913494+443391471+443716420+444434386+445555337+446746692+447631449
3264+447923949+447849125+447986845+448489055+449001441+449274254+449272044
3250+449220034+449146252+448992140+449156345+449651923+450577679+452053985
3237+453075087+453281960+453378014+453325795+452778833+452202550+452322294
3223+453068747+453727196+453769613+453551646+453904956+454932231+455845809
3210+455911249+455461258+455220560+455167924+455303601+455894149+456701120
3196+457086588+456923634+457106650+458109108+459408904+460745028+461700857
3183+461935758+461977090+462022344+462146968+462720207+463361179+463469329
3169+463431416+464022839+465033514+465719406+466053364+466311580+466396748
3156+466230583+466311205+467304529+468896283+469989915+470107825+469602154
3142+469189784+469444371+469878721+469838890+469967518+470664088+471049931
3129+470894693+470961218+471281620+471307480+471348020+471823536+472216887
3115+472277280+472185188+471903991+471882053+472318822+472510638+472307060
3102+472186857+472164918+471978357+471852899+472188608+472657451+472826786
3088+473078037+473883424+474726890+474741863+474081121+473280322+472580457
3075+472364867+472862822+473926216+474739945+474472553+473849723+473944401
3061+474496660+474912367+475154733+475392929+475455700+475067438+474748119
3047+475064185+475542245+475789825+475931967+475819563+475308095+474776606
3034+474691855+474985314+475364401+475594589+475488608+475335455+475695147
3020+476552252+477255495+477419075+477288612+477198939+477232556+477273179
3007+477505119+478326355+479503070+480470535+480940963+480886867+480849955
2993+481401380+482419437+483741172+485215226+486193326+486332965+486445744
2980+487293382+488328247+488913247+489092509+488937646+488710628+488602854
2966+488372625+488081042+488016269+487923635+487511599+487178142+487207171
2953+487240245+487267522+487669340+488320740+488826035+489045379+489221012
2939+489515598+489514513+489090424+488884969+489311603+489809433+489583082
2926+488807517+488121958+487637600+487109114+486558023+486350024+486449290
2912+486650157+487147945+487741120+487953331+487901113+487918380+488157910
2899+488543337+488845138+489108609+489394018+489554053+489703911+490064729
2885+490507420+490650897+490385549+490262760+490747618+491334162+491445898
2872+491265718+490902147+490307930+489884424+489931972+490186517+490416496
2858+490689394+490840252+490662700+490369032+489975140+489202994+488431308
2845+488400027+489166333+490357563+491493404+492099133+492364314+492810134
2831+493299956+493590912+493916362+494055584+493845208+493930960+494320056
2818+494683627+495336862+496164604+496723328+497115469+497432953+497467863
2804+497452931+497871390+498655297+499325632+499554652+499408548+498953928
2791+498551068+498987795+500043056+500833094+501335553+501809109+502066449
2777+502124048+502290381+502568783+502944575+503506343+504058644+504231024
2764+503904449+503705751+504311021+505239030+505565522+505444735+505659991
2750+506115821+506323445+506421751+506576405+506677548+506821024+507374535
2737+508373990+509213494+509472377+509438885+509620858+509996566+510193638
2723+510453189+511065132+511686585+512054285+512162769+512120894+512120560
2710+512210066+512382780+512918022+513912347+514686369+514934742+515211935
2696+515669141+515892030+515769950+515716229+515989502+516536714+517298474
2683+517950374+518160876+518193951+518462760+518783622+518969933+519212508
2669+519368580+519333545+519320324+519337466+519417462+519776946+520415541
2656+520967175+521266974+521591673+521962709+522133505+522191145+522370074
2642+522743571+523251620+523671956+523872739+523818185+523612188+523781523
2629+524421286+525013252+525428666+525775512+526114642+526567260+527036895
2615+527448889+528012034+528726664+529408844+530071839+530637862+530915597
2602+530921478+530946378+531279210+531724737+532086765+532588724+533201460
2588+533703085+534037502+534094476+533984783+534086426+534530619+535234571
2575+536036204+536586753+536681848+536712504+537087669+537488861+537657071
2561+537905443+538293205+538612941+538844380+539004122+539186888+539498699
2548+539803753+540075107+540509165+540955944+541192847+541487891+541944263
2534+542343870+542643794+542708317+542524258+542494270+542887662+543573388
2521+544264410+544920690+545473366+545515325+545218654+545306366+545792059
2507+546322046+546875765+547182237+547049647+546921018+547123012+547486249
2494+547756894+547932527+548003682+547984412+548237081+548821956+549256973
2480+549246630+549109368+549126760+548902119+548407209+548362456+548936487
2467+549469894+549398156+548878095+548447749+548202505+547915093+547718522
2453+547803607+547927147+547708304+547250722+547068999+547108122+546935867
2440+546645285+546509316+546537094+546463062+546103745+545793561+545753020
2426+545560787+544922317+544240011+543930744+543851165+543876774+544012618
2413+543860299+543271629+542774675+542680831+542614473+542061422+541145592
2399+540361309+539966958+540040406+540154270+539639840+538700570+537971259
2386+537362193+536434476+534955960+532701420+529704848+526358927+522950945
2372+519459796+515577800+511313171+507352054+504178013+501759643+500368047
2359+500465477+502040798+504698574+508362854+512819757+515867964+515153126
2345+511510326+508540614+507568228+507401812+507530982+507863981+508085786
2332+508090666+508468834+509490312+510538357+511373607+512366680+513734545
2318+515393908+517082509+518541839+519498251+520074868+520931764+522111066
2305+523068813+523606015+523888297+524215748+524665488+525059423+525313093
2291+525610097+526178622+526780973+527091032+527159434+527099624+527117142
2278+527395878+527780845+528015788+528054535+528114261+528293315+528375605
2264+528352707+528519290+528936790+529456058+530024124+530502977+530772496
2251+531006479+531390404+531861123+532215101+532464266+532793595+533285043
2237+533981238+534614244+534883680+535091720+535457252+535757301+535972182
2224+536350935+536965631+537583205+538068106+538460997+538765092+539170622
2210+539793660+540429919+541042113+541734721+542528262+543294818+543792732
2197+544142831+544619473+545098826+545446089+545871472+546510359+547202466
2183+547891862+548676978+549500967+550298512+551074202+551638307+551940066
2170+552375542+553115822+553969381+554844546+555601342+556208615+556873695
2156+557527680+557953730+558216743+558562379+559084775+559487301+559567465
2143+559560666+559544692+559369100+559080813+558847246+558720370+558557291
2129+558066843+557150596+556234182+555573023+554772891+553666663+552534617
2116+551507009+550522360+549539171+548539633+547414636+546073340+544650462
2102+543333565+542116351+540985515+539947688+538918245+537898186+536881213
2089+535807768+534540003+532975943+531511066+530475158+529605457+528695424
2075+527704603+526494855+525151807+523907983+522681676+521327242+520072491
2062+519181060+518446160+517490749+516258020+515045727+514187997+513519372
2048+512640578+511597496+510612848+509715244+508879077+508035736+507052422
2035+505978559+505003628+504185104+503431394+502637560+501722648+500651162
2021+499664887+498929779+498284302+497731667+497271917+496668732+495786018
2008+494877863+494244189+493695267+493033648+492296538+491415409+490412075
1994+489345804+488195448+487202541+486580712+486234325+485981114+485586846
1981+485082176+484629808+484148203+483608748+483072797+482522749+481780467
1967+480791647+480032682+479719036+479437922+478962740+478427331+477939344
1954+477463953+476962745+476421747+475781817+474955410+473721470+472464675
1940+472268396+472762681+472816401+472325078+471799679+471507346+471217056
1927+470604904+469510312+468344608+467768158+467224532+466555240+466612464
1913+466827178+466277338+465491637+465338485+465471284+465320842+465085566
1900+464993808+464667941+463841283+463153639+462797283+462199771+461907980
1886+462322560+462604424+462486140+462184631+461755912+461383248+461276433
1873+461105847+459809804+457539081+457119663+458779318+460007918+460193603
1859+460074109+459997575+459830575+459454324+458997827+458463419+457598557
1846+455978691+454441241+455080128+456547217+456939691+456772608+456705833
1832+455731445+453434570+452210391+452762567+453374928+454084927+454942449
1819+455224105+454849774+454217101+453258645+452025415+451556531+452002184
1805+452273579+451561452+449895666+448687753+448741265+448659892+447080525
1792+445389296+446397719+448347747+448848038+448059752+447027681+446290445
1778+446096377+445595627+443369615+439931311+439462093+441980563+444094171
1765+444819228+444116110+443260548+443532486+443923001+444419621+444526186
1751+442399565+439347270+438972647+440139894+440581668+439972978+439375966
1738+439800389+439285584+436224906+435693460+438530372+441301428+442930928
1724+443155735+442581329+441104732+436957971+432891206+434887990+438800517
1711+440883719+440681768+438424225+436148747+435583934+433884030+430475589
1697+430059007+432740306+436304402+438345772+438192410+436884731+433591363
1684+429262254+431159229+435411804+437564951+437014235+435422314+434163350
1670+432459192+432707565+435173858+435893534+434745639+435119345+436457847
1657+436097029+432077353+425377129+425541334+427031487+426387136+428882542
1643+433658555+436407839+436564495+434303281+432828018+437591019+443535030
1630+447186589+449535140+451906255+454357074+458208457+462674077+465163936
1616+467570628+473102895+478788816+482750726+485922014+489500541+493245401
1603+496963401+500864000+504575535+507717961+510714616+514057116+517517860
1589+521024774+524759499+528412517+531570959+534377299+536602477+537505753
1576+539457658+544666520+548728279+550588134+554151480+559843073+564937154
1562+568102519+567590258+566716553+574695219+584194110+592270540+598971473
1549+604973042+609638529+611627095+610681319+610320918+620620440+633939265
1535+642266779+648870449+656900916+664018306+668980964+673250681+677304057
1522+682166448+689624220+697519219+705649453+714379993+721424770+724697450
1508+724078750+728475885+741841049+752064662+757904737+761673829+767814537
1495+776966832+783903583+787022694+790395809+798692083+808017217+815293057
1481+821352851+826714531+830448589+831696083+832646781+839062847+848668928
1468+855606097+859714361+864404288+870370822+874142751+874039231+876974075
1454+886481057+895695413+903189304+909596361+915919668+921488639+925950756
1441+930369746+934203653+937580521+943255598+949692435+953579311+956528753
1427+961584212+967015212+971376144+974196124+974409753+975956963+981649641
1414+987195172+990592727+992318365+992119249+989741294+987891950+988448505
1400+988098406+985957604+984730380+985063796+987591317+989817954+988079470
1387+984595162+984992141+988376433+991499798+993900693+995343382+995613901
1373+996240777+997341708+997456322+997420453+997763712+996354307+994622830
1360+995674295+997163030+997269386+996179215+994369577+993814273+995491363
1346+996907608+996010046+992990452+988434658+985155804+986410889+989940076
1333+990974775+989387108+988964603+990378930+992364577+995386675+999143088
1319+1001842280+1003700550+1006348358+1009070739+1010672754+1012502162
1308+1016387120+1021070457+1023692906+1024513808+1026111819+1029251867
1296+1032023882+1033309915+1035120887+1039322077+1044349592+1047126278
1285+1047702019+1048509657+1049867345+1050590816+1051107749+1052338893
1273+1053464599+1053026162+1051204595+1050427320+1051456930+1050911470
1261+1047733633+1045724797+1046619439+1048320636+1048684499+1047852669
1250+1047480131+1048166816+1049619348+1051381188+1051301358+1049028425
1238+1048507822+1050541851+1051688828+1051633273+1051486877+1050727369
1227+1050577553+1051877183+1052409797+1051324465+1050357083+1050838313
1215+1052992629+1055777489+1057401693+1057825949+1058140847+1058402274
1204+1059012883+1060153437+1060627910+1060337788+1060251118+1060286653
1192+1059344630+1057176134+1056242870+1058714669+1061834364+1061927039
1180+1059945980+1058391930+1058295084+1058727181+1058006379+1056987029
1169+1057066442+1057183809+1056371749+1055475688+1055153867+1055241788
1157+1055203333+1054111161+1051885775+1049228708+1047428829+1047759076
1146+1048665396+1048005822+1046039027+1043089668+1039930017+1038249758
1134+1037543804+1035984749+1033577014+1031441801+1029468917+1026666872
1123+1023040088+1018880607+1014777348+1012257251+1010527025+1007534791
1111+1004559490+1002811330+1000627986+997234601+993624334+990794345+988564454
1097+986469531+985860173+986549111+985389954+982519175+981042452+980565726
1084+979155153+977930431+977751336+976794548+974123635+970778048+967081695
1070+962828870+959786836+959839138+961008387+959648698+956073215+952897047
1057+950170995+947431346+945996498+945547634+943929353+941454468+939420940
1043+937425200+935924953+935318015+934291825+932737191+931636676+930588715
1030+929032829+928165881+928618333+928770151+927704922+926321375+925102326
1016+923833060+922645876+921651384+920498651+918885876+917436013+917661321
1003+919919824+922333481+922838652+921417484+919537943+918713371+919450689
989+920295365+919670992+917950443+916115696+914547883+913454042+912811735
976+911919678+910627723+909572003+908590358+907141913+905198975+903126658
962+900862400+898289334+896539672+896024658+895884686+895649284+894483622
949+892630607+892315125+894076716+896295429+898005634+899416291+900891012
935+902744277+905574934+909312161+913105611+916575655+919881536+923257987
922+925876014+927022908+927969519+929311858+930085546+930140851+930348141
908+931099641+931979518+932685222+932943230+932244366+930682391+929378591
895+929057854+929360823+929857569+930048676+929612741+928320035+926033171
881+924356082+924650375+924850575+923549444+923200346+924275585+924340817
868+923795773+925265822+929242705+933909193+939095365+945042046+949480807
854+952119021+954618514+957449671+960513977+963368908+966388837+969049407
841+970304826+972027711+975337512+979220551+982533022+983444764+982418658
827+982432672+984108343+986103082+988476533+991661626+994364238+996283986
814+998915611+1001853541+1003288139+1003265533+1004209391+1007627383+1011454033
800+1013526934+1014969372+1017490470+1020571043+1023631762+1027104642
789+1029835449+1030586031+1031149927+1032193801+1031649675+1032039231
777+1036464394+1040254674+1040513766+1040704540+1042473053+1044526101
766+1043675252+1039293299+1036024956+1035761360+1037453881+1040929764
754+1043537282+1043120950+1040773525+1036922518+1032549489+1030374570
743+1031410103+1033877814+1035391741+1034377646+1032687460+1032807830
731+1032383407+1032084192+1036526039+1042467214+1041634467+1033418523
719+1026414454+1025918876+1027522476+1026531321+1022916048+1018456517
708+1016573806+1017052867+1016385702+1016712361+1019153045+1019322381
696+1016785100+1014968038+1015937838+1020082806+1025734442+1028626911
685+1028943226+1030479258+1030138251+1027068189+1026252209+1028737521
673+1033896082+1036132980+1029187636+1023729610+1029784482+1037718061
662+1041248165+1040036457+1038095020+1030412775+1017477958+1015197517
650+1020637692+1019793183+1017059040+1023705502+1045930085+1071451205
638+1073741823+1058000123+1054973521+1066108376+1062353715+1041069070
627+1024463842+1020281671+1023825539+1019425483+1002352455+995944898+1003163848
613+997491274+980768846+972802150+981994568+1007043301+1036871383+1054738119
600+1043056135
##END=
