##TITLE=Sample description
##JCAMP-DX=4.24
##DATA TYPE=INFRARED SPECTRUM
##DATE=24/8/2023
##SAMPLING PROCEDURE=Instrument type and / or accessory
##ORIGIN=Default
##XUNITS=1/CM
##YUNITS=ABSORBANCE
##RESOLUTION=4
##FIRSTX=4397.6552
##LASTX=599.8556
##DELTAX=-1.9287962
##MAXY=1.4359908
##MINY=0.53183711
##XFACTOR=1
##YFACTOR=1.3373707e-009
##NPOINTS=1970
##FIRSTY=0.66602397
##XYDATA=(X++(Y..Y))
4398+498010005+497691742+497011046+496321527+496601774+497018044+496792616
4384+496794042+497192975+497558571+497543952+496751212+495686247+495003814
4371+494414528+494134326+494907189+496128946+496734142+496482107+495805423
4357+495530212+495847630+496258284+496357850+496326340+496236713+495502892
4344+494771166+494756102+494152064+493028581+493152570+494162493+494690318
4330+494189457+492579241+491065025+490392887+490076584+490742171+492619130
4317+494610407+495957803+495781044+493855550+491754322+490853637+490858450
4303+491011365+490761736+489845006+489160300+489579645+490567328+491036011
4290+490945581+491172079+491143065+490380764+490253209+490793603+490780232
4276+490350547+490378937+490939386+491266876+490675897+489567924+488974182
4263+488780219+488296562+487390929+486925411+488096404+489444558+488967095
4249+487642519+486765098+486516405+486954336+487338695+486558389+485941783
4236+487112688+488056114+487476501+486873399+486827093+487220677+487715299
4222+487955568+488586569+489296323+488616252+487135953+486655058+486833466
4209+486424773+485522349+484834612+484881988+485727320+486595069+486405341
4195+485226147+484420214+484700639+485081076+485068107+485515797+485840657
4182+484887916+483493055+482691222+482180066+481292885+480679978+481564753
4168+483269633+483921180+482838699+481529142+481567115+482113391+482001524
4155+481723996+481908465+482128856+481515059+480347987+479875427+480065958
4141+480240042+480796480+481445086+480990665+479947316+479549096+479531937
4128+479620718+480349146+481118087+480652034+479600751+479303791+479071723
4114+478246759+477880941+478339952+478964045+479505063+479867271+479650222
4101+478857526+478219439+477984785+477427322+476235961+475414964+475715802
4087+476355182+476727819+477389484+478170636+478046780+477342731+476837190
4074+476240908+475542341+475191319+475190517+475200144+475322128+475948761
4060+476581991+476412898+475784482+475615745+475600993+475333671+475567165
4047+475564670+474310199+473681248+474685689+475312857+474511515+473330583
4033+472682467+472560751+472523982+472511012+472555804+472366120+472342588
4020+473221568+474334712+474363191+473664713+473305357+473062280+472472371
4006+471958362+471774294+471519452+471209567+471201099+471374426+471604667
3993+472346911+473254772+472889176+471622984+470931860+470962211+471352721
3979+472311345+474044526+474983139+473702775+471474170+470123877+470323455
3966+471676288+473301747+473651788+472528349+471747910+471274637+470727112
3952+471584076+473788213+474855050+474607516+474276862+472796652+470581239
3939+469279259+469617088+471788512+473010492+471154212+469641334+470416737
3925+471059148+470400336+470740706+472300337+471574717+467935206+465671392
3912+466038815+467692887+470423066+473244699+474184873+473029924+470041648
3898+467432294+468194283+470195454+468530820+465015388+466022948+468715645
3885+468940137+468756426+467253441+464887476+465547759+467592919+469345577
3871+469080528+466167083+466072999+467327692+465486878+463688984+464859843
3858+468094717+470520493+466022280+460006955+460992276+463917620+466272354
3844+467304918+467036259+465756028+462876321+461143229+461584057+461480880
3831+461367231+462388028+463102016+463534153+463262062+460379013+459712357
3817+461003195+460352004+461297035+464306391+466056731+464006044+461749495
3804+462537734+461551655+460091501+460973423+460699995+460190443+460907685
3790+461797629+462922628+463875859+463506832+462758883+461903123+460764174
3777+460957245+462154355+463075230+462951018+462304863+462426847+462988545
3763+464236553+465547982+465142854+465008168+467633165+470424626+468916159
3750+466879154+470712627+474477287+473466071+474310422+479125160+484307099
3736+485734896+481530390+478613915+480878308+485248297+487592423+485842440
3723+481850972+478051282+476232663+477201493+480135752+482073903+480614507
3709+480314873+483797458+489042906+494146360+498642789+503930132+510354552
3696+516994996+522810699+526345117+526559848+526871382+529003942+530477467
3682+531124735+531965120+532794852+529849407+524836205+525247038+525655508
3669+523613690+524090930+525622572+526491525+528381854+531904952+535153775
3655+538609129+544307438+549896510+550534509+548916359+549906404+551317578
3642+551546972+550978857+551075125+551627151+552174229+553911956+553641114
3628+547443013+544299817+545315489+546036207+543879313+538746132+536066360
3615+536052455+536026204+537339550+538226062+535579449+533219902+533136069
3601+533299680+533869087+535422078+535071279+532418426+532002067+534037512
3588+532531987+526799048+523834928+523838137+523429845+521885055+520668156
3574+520097278+521065039+525140118+529472090+527654942+522667991+520055250
3561+518462058+516612509+516085664+517208390+517584861+517405205+519647893
3547+522503934+520506996+515509750+513663766+515368378+517191944+516844042
3534+516002678+516711273+518195048+520318694+523062065+522966912+519235010
3520+516620576+516749156+517093448+516984612+517639457+518805771+519393986
3507+520442015+522619500+523056851+520542428+518286414+517842689+517896617
3493+517672883+517596359+517709697+517437517+517048879+517876784+519162453
3480+518920669+517983749+517423077+516724287+515867902+515442674+515572725
3466+515685216+515745829+516320006+516943787+516739440+515892059+514879640
3453+513870787+513719254+514331581+514200505+514091579+514808107+515173257
3439+515225403+514749411+513396979+512716551+513356198+514292182+514750124
3426+515134973+516044082+516312340+515011474+513594997+513047784+512795749
3412+512495268+512337495+512538188+512844463+513214292+514181920+514815105
3399+514160705+513616167+513773850+513221735+511804367+511175594+511759843
3385+511854997+510795781+510127297+510209259+510011820+510016144+510475467
3372+510335878+509779084+509350334+508971814+508896448+509505968+510716271
3358+511400398+510838344+510217014+510518342+510815703+509848388+508161647
3345+507369174+507771806+508458607+508931925+509352340+509665033+509568364
3331+509114210+508339030+507361909+506231072+504676477+503747357+504823553
3318+506623676+506839700+505943739+505731815+505776339+505051610+504259137
3304+504150658+504251873+504056351+503797675+503638119+503203621+502405532
3291+501905696+502120338+502440830+502090700+501685572+501807645+501432423
3277+500343257+499378348+499128631+499448811+499365156+498826055+498421150
3264+498409785+498479802+498082474+497719062+497980501+498361161+498082429
3250+497309834+496447878+495560207+495059836+495061574+495113318+494821083
3237+494123050+493585286+493859383+494076744+493743148+494304221+495411393
3223+495282010+493911573+492671052+492196620+491933577+491886156+492205400
3210+492153567+491182107+490155025+489946088+490323806+490555518+490027648
3196+489690309+490463573+491483524+491075320+489508870+489468090+490931186
3183+490931676+488781958+487874810+490147003+491967850+490328664+488291971
3169+490286235+493939740+493348895+489149470+488030577+492167784+494732792
3156+491258497+487217246+489254072+494356456+494073490+489330864+489198896
3142+496224055+499928369+493501498+486720663+489345126+496727769+496464815
3129+488601544+485638717+493654902+501907345+497170423+487049579+486660763
3115+496442263+500878971+492202503+484308168+488902783+499119316+498095889
3102+486507492+481834169+490530426+500404806+495953970+484130607+482110628
3088+492554639+500613521+493384371+482062851+480609471+487659276+491366397
3075+485329857+478754974+480343263+487983869+490437545+483468364+477225917
3061+478732779+485401524+487107295+480624758+475033056+475271632+478438181
3047+478836356+475576525+473079484+473366594+474850815+474844932+472945600
3034+471534293+472074865+473616445+474059991+472803426+472218999+479407948
3020+510388647+570155046+617054957+605826138+565978396+534310316+514639282
3007+501527443+492255985+485889861+482246740+480237858+477595078+474646068
2993+473706429+476713022+480516545+478546126+473089244+471400364+475841440
2980+482482107+482569149+475657595+470639981+471933850+478021109+481587081
2966+477454375+471730885+471848055+480416177+489060110+484762411+474012660
2953+470122362+475671411+484583424+484846467+476357410+470646354+472759794
2939+480797862+484918802+478508065+470682544+469907720+477073849+485365780
2926+482923603+472840463+467556641+471022379+478693470+479896107+472143366
2912+465530466+465936307+471632745+475870009+472980319+467346010+465303701
2899+468236712+473658696+474819840+469826249+465255924+465502343+469418090
2885+472143857+470004790+466128576+464914173+466686084+468798186+468042794
2872+465025638+463273026+464204552+466768446+468477293+467140460+464012373
2858+462254055+462886973+464078379+463443857+461139976+459556545+459994609
2845+461422362+462221654+461988338+461323464+460881879+461036532+461684960
2831+462204228+462100873+461659422+461595867+462157386+462617734+462195982
2818+461391030+461190249+461329258+460988888+460434099+460247491+460453665
2804+460834815+461012643+460796798+460340550+460043679+460194989+460570568
2791+460995663+461333938+461190338+460775271+460763461+460962236+460772196
2777+460466634+460559114+460852197+460875417+460658948+460543782+460559916
2764+460690547+460944855+461219531+461564224+461771333+461598853+461383855
2750+461384345+461542920+461798431+462052695+462174946+462072483+461899780
2737+461858822+461844292+461843312+462086656+462536397+462787006+462573701
2723+462332273+462593445+462987921+463067565+463057982+463275388+463656315
2710+463747859+463459144+463231933+463264112+463501261+463907904+464258971
2696+464278670+464194970+464285578+464353946+464334381+464556376+465212915
2683+465864998+466179161+466562807+467078287+467249430+467044860+466817249
2669+466810162+467100259+467456763+467499236+467475303+468034415+468916783
2656+469267359+469172116+469227738+469375393+469331360+469378112+469976801
2642+470749307+471085087+471286135+471826172+472520773+473037679+473471910
2629+474004370+474548195+474867440+474966649+475265258+475764292+476122890
2615+476404742+476730181+477155231+477639959+478080964+478568856+478994708
2602+479172403+479359814+479746713+480167217+480657204+481296896+481863807
2588+482261225+482551455+482660604+482714799+482997453+483532141+484294843
2575+485018145+485384231+485754551+486290086+486547559+486518990+486631972
2561+487079261+487760581+488443014+488890259+489181292+489602553+490131314
2548+490533724+490756566+490879353+491091187+491628550+492362504+492951299
2534+493193618+493228248+493528818+494082359+494514718+494853261+495165152
2521+495392585+495639093+496072656+496554977+496771000+496785039+496814677
2507+496899536+497118501+497468453+497783776+498107655+498536538+498812506
2494+498814378+498823426+498917822+499091461+499468332+499884424+500127144
2480+500261162+500369151+500341742+500048793+499715777+499742161+500002709
2467+500030876+499997004+500248861+500437564+500239101+499881928+499755220
2453+499872970+499871722+499737482+499775142+499889550+499778128+499458082
2440+499126269+499078714+499325357+499426126+499303562+499004463+498440716
2426+497960534+497824199+497857225+497864311+497657290+497165075+496541784
2413+495989714+495628040+495327515+494877239+494370718+493974682+493575481
2399+493166387+493197228+494050849+496077737+500377798+508617806+521896554
2386+539798083+560846953+583259219+605039816+624994439+643547338+661746451
2372+680094513+698459912+716252472+733103209+748012808+758448976+763496451
2359+762678707+753406492+736030559+715162860+696208889+686070529+689553916
2345+700857744+703960694+695904442+685822906+677939758+675017222+678636944
2332+684428223+684520124+679438509+677709027+681492361+683484930+677952059
2318+667097305+657093452+654096976+657347760+658287488+651652883+638729925
2305+623321158+610500619+601916988+594639571+586648344+577846416+567852814
2291+557170718+547332438+538835715+531411088+525055036+519702044+515270773
2278+511632377+508579432+506177946+504168307+502120516+500266064+498800517
2264+497613301+496732047+495972733+495078109+494245525+493773856+493529576
2251+493232883+492860290+492444421+492103160+491970479+491918111+491983850
2237+492307908+492656300+492801504+492793705+492861805+493332761+494163875
2224+494881785+495333576+495692219+496077826+496712972+497574660+498323278
2210+498866523+499321078+499807053+500436361+501241982+502105185+502890527
2197+503565918+504138713+504810138+505770189+506769950+507503013+508118193
2183+508897251+509802348+510710388+511600020+512371546+512883638+513184610
2170+513570083+514323113+515507388+516804154+517596537+517745797+517809308
2156+518108140+518408309+518564165+518642605+518731386+518751085+518382459
2143+517786890+517474999+517391166+517128256+516422959+515348679+514129953
2129+512911092+511865515+510830589+509428819+507792308+506330683+505218564
2116+504156719+502589511+500600774+498726935+497088774+495602547+494211786
2102+492778730+491162496+489379844+487660390+486171668+484925665+483704488
2089+482219019+480683945+479387402+478188597+477052679+476079347+475074104
2075+473869372+472585531+471330303+470344135+469896890+469408329+468270718
2062+467150666+466392734+465483268+464568365+464085554+463947659+463818188
2048+463617585+463544582+463765731+464308174+464749804+464855075+465033304
2035+465458577+466050581+466799154+467575270+468198116+468805317+469588253
2021+470426542+471220397+471523284+470828907+469736577+469024684+468462763
2008+467464250+466158704+465005939+463917665+462618269+461082438+459708702
1994+458945733+458147600+456523255+454394128+452088865+450062690+448670414
1981+447493270+446295446+445139873+444011354+442944739+442120890+441608575
1967+440737260+439094865+437501986+436481055+435828705+435268167+434518881
1954+433678407+433099507+432722546+432370321+432371792+432767560+432422332
1940+431103906+430097771+429811775+429867085+429841904+429649902+429550247
1927+429810349+430595335+431349211+431449624+431196921+430830656+430529195
1913+430504014+430724360+430996496+431002156+430971047+431305178+431695821
1900+431923432+432261707+432500684+432322365+432177651+432145294+431959265
1886+431899142+431877705+432076481+432933177+433533114+433189669+432910670
1873+433756670+435359398+436006890+435332925+435426251+436632677+437650711
1859+437660115+437111521+436911720+437516694+439116303+441435248+443342335
1846+443996512+443398091+442282407+441480797+441131781+441344818+441930627
1832+441764431+439977946+438323206+438185712+437592772+435793853+434502212
1819+434228338+433332377+431356253+429599228+427824019+425620016+423616527
1805+422765357+423435222+422837023+419529459+417106089+416209282+414875880
1792+412654273+410478214+409510364+409415388+408751629+407425448+406151323
1778+404854111+403556008+402035776+400277458+400391776+401695673+401338457
1765+400192421+399564495+399262187+399447414+399370845+399278633+400706252
1751+402427756+401837000+400411075+400246884+400111797+398908402+397673675
1738+397962970+399375213+400319531+400288377+399811271+398857772+398617949
1724+399384706+400195898+401069753+402351455+403212296+402980406+402757474
1711+403072039+403545535+403804656+404454822+405697437+405929951+404852061
1697+404635859+404976185+406281508+408893580+411656695+413235847+413443804
1684+414046237+416528526+418311133+418824875+418945700+419535520+420901947
1670+422385499+423916874+425997957+427919039+429368675+431416287+434298846
1657+437091153+438361178+437086652+438331897+441297085+443097520+444850624
1643+447813629+450716644+452802674+453519960+453120537+454682263+457676377
1630+460195747+462210111+464292085+466430349+468882153+471438203+472985890
1616+473912960+476366814+479523291+482038650+484114919+486498756+489292579
1603+492143985+494873718+497623775+500311524+502983408+506235351+510042662
1589+513738908+517274218+521058131+524987114+528828342+532511352+535676118
1576+538887548+543214083+547458567+551393879+556469789+562418707+567863778
1562+572380219+576411978+582218767+589970482+597496859+605317968+613161762
1549+620351824+627550355+635611599+641543448+643574970+650086878+660184057
1535+668730786+675879578+682189813+688546534+695528818+702113194+707572483
1522+713603274+720578783+728717799+737826626+746056740+754249283+762966887
1508+768970714+769186693+772508831+779308563+785792571+790905027+795821917
1495+802215005+809207272+815679069+820876829+826147771+832187520+837759656
1481+842748390+847860043+853154428+857386121+859466224+861939510+867207866
1468+872540848+876060603+879843312+885394412+890084982+891721984+894446904
1454+902339278+910155261+916133684+921405695+927095046+932780832+937961121
1441+942680483+947226741+951254399+954437750+958055735+962060841+966855613
1427+972369809+976506750+979705076+983326002+985996548+988646593+993486736
1414+998190142+1001326251+1003589263+1005161908+1005373341+1005301942
1402+1006405192+1006203207+1004014981+1002845860+1003736874+1006921919
1391+1009925392+1009279416+1004880235+1001589740+1002458559+1005647527
1379+1008581740+1009883676+1009992691+1010905454+1012695683+1013479554
1368+1013640536+1014406936+1014093798+1011810374+1011074458+1013510039
1356+1016196719+1016415640+1014812599+1012695505+1011302917+1011199518
1344+1011877048+1011853427+1009142323+1005520774+1004004820+1004339618
1333+1005275736+1005953445+1007198422+1008846299+1009433980+1009421144
1321+1008962712+1008258529+1009882607+1013814888+1017122675+1019336483
1310+1023121065+1031489787+1041143509+1044824869+1043665731+1043121638
1298+1044084586+1045583158+1047332116+1049462492+1052594858+1056222290
1287+1058701638+1059999562+1060632079+1061141586+1062721719+1064510165
1275+1064769821+1063986841+1063388732+1063107593+1062675813+1061885079
1263+1060997095+1059671984+1057623257+1056627151+1057470833+1058505982
1252+1058521759+1058387251+1059736073+1061499383+1061453388+1060057591
1240+1059688207+1061533344+1063290592+1062928339+1062450208+1062713518
1229+1061569712+1060690642+1063130591+1065750240+1065232532+1063629758
1217+1063582516+1065397703+1067947914+1069947704+1070204151+1068941347
1205+1068213186+1068848198+1069710689+1070689681+1072391397+1073410411
1194+1072945116+1072319998+1072033244+1071944998+1072267229+1073026231
1182+1073741823+1073591538+1072717192+1072310282+1072367330+1071475781
1171+1069602833+1068467048+1068822705+1069443723+1068716276+1067112700
1159+1066430890+1065565370+1063120251+1061288306+1060733250+1059622067
1148+1057410755+1054572185+1051775777+1049801570+1048741908+1046727143
1136+1043466242+1041205013+1038739928+1034945541+1032337124+1030158168
1124+1025939400+1021386279+1017818747+1013389437+1007931396+1003424627
1113+1000573221+999411230+998805722+995261811+988635629+982565574+977659203
1099+973177926+969619575+967119013+966175586+965921813+964126058+961469417
1086+959504034+957242894+954152601+952035328+951137807+949028557+945687878
1072+942740116+940143018+938498083+937855850+937034363+936426894+936298359
1059+935480170+933025602+929381412+926464134+925611806+925985022+925971830
1045+924787912+922524187+920222846+919604681+920870962+921650644+921074283
1032+920750805+920806783+920826215+920232740+918552863+917802419+918288839
1018+918310322+918812341+920270713+921201839+921613919+922165589+922394760
1005+922216486+922600310+923711047+924161635+923685554+924029355+925413208
991+926325259+926084321+924505615+922468031+921348380+920466636+919241715
978+918498757+917653203+915723029+913314189+910951611+908801893+907192434
964+905749038+903975745+901821481+899819641+899377788+900447611+901152240
951+901183527+901611117+902525931+903607876+905010983+906443861+907585885
937+909233405+911701700+914266975+916782869+919944560+923884151+927300418
924+929635452+931564735+932925234+933647690+934526314+935859002+937050319
910+937744875+938424901+939210199+939249865+938121122+936729425+935535345
897+934048807+932886192+932683673+932241107+930714189+928931805+928054518
883+928547089+929733949+930787371+931080364+930522812+930686022+932095368
870+933264668+934413555+937326822+942224101+948070779+953845791+958213329
856+961107698+964096108+967364674+969797314+971458918+973230963+974935798
843+975450119+975264892+977251133+981755051+986003501+988572075+988253321
829+985411453+983771509+986265386+992237301+997187172+998980074+1000401543
816+1003008178+1006317035+1009524365+1012169061+1014328852+1015691669
804+1017119912+1020482518+1024333596+1025177367+1023143795+1020915101
793+1021276997+1025737683+1031578121+1035185409+1037727063+1042093620
781+1047503527+1050967571+1051685303+1052345630+1055473539+1058623732
770+1058700568+1057467357+1056614315+1055086417+1052664652+1051743599
758+1053675110+1056107927+1057803136+1058238838+1055594052+1052491369
746+1052980554+1054948700+1054058132+1051176241+1049182424+1047580987
735+1046013601+1045851639+1047386401+1049625346+1050589363+1048930433
723+1047274712+1047904287+1047178355+1043333250+1040445387+1039751188
712+1037680177+1033398122+1031646668+1032992637+1033051201+1032983189
700+1034874677+1036123755+1035465300+1035219549+1038678334+1042870539
689+1038809187+1029205471+1025479542+1027707701+1030066713+1032705616
677+1035571818+1035762037+1034119508+1030951577+1026230967+1029241483
665+1036751458+1036256391+1033827228+1036494209+1040841869+1043546465
654+1042115370+1035655340+1032315552+1035370547+1032713728+1021010566
642+1013816403+1015338597+1020012231+1024473274+1027921363+1032511297
631+1033920643+1026190856+1014173843+994849730+966872727+955129365+974374680
617+994155709+987348579+979873635+983674082+981539963+978697560+995125521
604+1024320047+1037561268+1031192515
##END=
