##TITLE=Sample description
##JCAMP-DX=4.24
##DATA TYPE=INFRARED SPECTRUM
##DATE=24/8/2023
##SAMPLING PROCEDURE=Instrument type and / or accessory
##ORIGIN=Default
##XUNITS=1/CM
##YUNITS=ABSORBANCE
##RESOLUTION=4
##FIRSTX=4397.6552
##LASTX=599.8556
##DELTAX=-1.9287962
##MAXY=1.2854418
##MINY=0.34440744
##XFACTOR=1
##YFACTOR=1.1971609e-009
##NPOINTS=1970
##FIRSTY=0.48221436
##XYDATA=(X++(Y..Y))
4398+402798279+402775402+403468505+404074080+404357276+404834423+405433576
4384+405509030+405005944+404810524+405214009+405336887+404396883+402676970
4371+401249215+400667463+400260045+399476228+399207221+400107195+401441024
4357+402337687+402245280+401575652+401478067+402159246+402703383+402009906
4344+400800771+400872840+401431963+400797560+399611726+399259997+399920962
4330+400199752+399022955+397683524+397661020+398539112+399346604+399894823
4317+400251009+400029127+399389596+398961167+398456936+398004783+398289473
4303+398693804+398796467+399079962+399268884+398894575+398183001+397712551
4290+397686013+397600178+397387109+397461344+397358531+396730451+396498910
4276+396888678+396964979+396771277+396778920+396565427+396155172+395879369
4263+395221093+394208124+393558835+393532521+394373546+395910188+396888778
4249+396474937+395758184+395991318+396529978+396311382+395405583+394592640
4236+394280989+394119800+393882036+393498865+392855176+392438398+392988111
4222+394024704+394053631+393138770+392640414+392530805+392415197+392833070
4209+393453881+393264710+392669540+392848554+393660004+394189205+394236728
4195+393936504+393740438+394069563+394440636+394356070+393709942+392747783
4182+392135809+392173723+392595804+392838796+392654927+392612931+392907877
4168+392735161+391885847+391133819+391189283+392216317+393372079+393785944
4155+393546039+392912632+391964214+390858838+390204893+390394637+390792794
4141+390870539+390870489+390783210+390345745+389919656+389859586+390142982
4128+390612834+390715946+390140567+389126005+388473529+389095510+390448184
4114+391160232+390826575+389898446+388863446+388083911+387950826+388308282
4101+388369496+388070592+387931135+387735815+387360312+387209453+387156503
4087+387167855+387378584+387295438+386987148+386932282+386698650+385850804
4074+384666091+383897309+384096114+384611349+384515407+383863105+383267686
4060+383262409+383839231+384397856+384404628+383834925+383086780+382578914
4047+382394673+382522355+382944236+383293949+383105600+382424969+381706747
4033+381100724+380780087+381132713+381877247+382681404+383340327+382956161
4020+381500723+380259525+379891266+380214317+380653450+380518374+379924972
4006+379604634+379711181+379799954+379694925+379485067+379302543+379219272
3993+379099332+379064331+379163111+379173666+379170654+379118401+378928260
3979+378814219+378761394+378597516+378347280+377933115+377431174+377358857
3966+377746733+377979941+377949272+378046210+378157636+377999483+377458981
3952+376284549+374754852+374217188+375195604+375931351+375692889+375975040
3939+376611285+376622263+376061423+375020797+374555674+375600980+376492590
3925+375697022+374764088+375043625+375055001+374113056+373902800+375152661
3912+376419251+376748203+376099984+373654505+369938578+368031561+368710972
3898+371159064+373912857+374630282+372663294+372038451+374264711+374837800
3885+373174098+372759112+372692321+373075442+373881889+372641462+370296083
3871+368644355+368427602+370099892+370591278+370139922+371837306+374209421
3858+375472078+373819852+366968206+364752327+369656303+374028963+375580866
3844+374519030+372565162+370685254+368680925+368723593+370820031+372485475
3831+373695332+375156943+376019874+375925625+373638772+369276717+369274252
3817+371752591+373519952+376558086+379278645+379180637+376362692+375191322
3804+375992864+374549948+373814799+375344993+376670259+378530501+380657110
3790+382035574+382671073+382420164+381890018+381986184+381558254+381147027
3777+382856907+384971617+385389067+383842891+382225044+382290491+383477718
3763+385342217+386289614+385170497+384600520+385566090+384877666+380381855
3750+378422584+382297834+385220185+385230442+387492276+391017962+391804319
3736+388925408+387667381+392248331+398735751+403401365+405754860+408338102
3723+413554028+421004951+430325476+440787249+450771203+460427152+473927458
3709+492683618+511240376+526771249+539752710+551941192+563864352+574365608
3696+583108588+589170915+590164789+585636690+582792930+584917846+586446497
3682+585027530+581398608+575913278+566860415+560158607+560480488+558546162
3669+554421000+554619854+556055501+555699265+554092098+552518787+549864571
3655+547608711+547581079+544552454+535764665+533322796+538885098+544011703
3642+545881156+545977297+547061039+549144084+550536912+550681946+547137116
3628+541584124+543244366+548506992+551884782+551136414+547918444+547479411
3615+549366140+551337011+553013732+552930885+552391826+554444599+556360255
3601+555566281+554672281+555092545+555102652+555747759+558400033+560063760
3588+557969812+557153433+560788330+564291785+565168607+565370848+566215955
3574+567276596+568450604+568804400+566399624+563253898+564801867+568882618
3561+571836062+573834316+575643973+576621567+576421567+576213601+576761870
3547+577603542+579089226+581843666+585373907+587961606+588657497+589139100
3534+590471137+591956124+593261175+594367721+594913003+594703195+594939490
3520+596644940+599334804+601760641+602727033+602483667+601877644+601769354
3507+602799574+603674455+603887947+605255732+607459214+608994786+609931255
3493+610754505+611539517+611572427+611036605+611864336+614106753+615842474
3480+616203738+615204636+613688880+613535084+614552608+615097441+615151462
3466+615134086+615098885+614970979+614666623+614780688+615509141+615809215
3453+615660747+616637992+618285886+618778591+618744885+619109485+619462335
3439+619813143+619918147+619210903+618097437+617663681+618205279+618588997
3426+618363954+618500623+619156087+619791734+620612196+621821704+622716301
3412+622628026+621941146+621614286+622026583+622538357+622216127+620984961
3399+620841770+623007662+624753589+624154387+623020806+622762106+622810600
3385+623256653+624568427+625105394+624437931+624542487+624919783+624150603
3372+623271391+622868753+622442415+622761907+624751697+627320278+628334914
3358+627457693+626357819+626459736+627829911+629409495+629842206+628417065
3345+626438476+626508877+628379126+629160554+628482188+628097523+628244697
3331+628641959+628821943+627847387+626689609+626437281+626140145+625968425
3318+627018261+628196751+628207008+627438575+626423888+625691701+625523168
3304+625408555+624718290+623696484+623780228+625090607+625651671+624948361
3291+624571215+625273778+626262923+626397202+625415575+624229567+623612092
3277+624021104+625643158+627721273+628774794+628162995+627772356+629110865
3264+631026123+632686613+634186238+635294626+635957657+635920664+634923503
3250+634423380+635407645+636132862+636006051+636436272+637210331+637163928
3237+636775082+637228653+638235124+639088297+639481824+639304926+639000969
3223+638436668+637697211+637986681+639160689+640032533+640477641+639704926
3210+636738288+634107273+634526192+636049865+635883821+634241005+631870334
3196+629562146+628768520+629006658+628579225+627464863+626405666+625561754
3183+625317791+625530686+624981122+623814382+623207313+623293596+623367980
3169+622629719+621029970+619195121+618104657+617715760+616634208+614962266
3156+613881959+613325923+612734139+611898292+610370139+608327573+606731558
3142+605167706+603171294+601549688+600192906+598873167+598238565+597692337
3129+596402321+595198489+594392864+593542430+592882386+592010791+590404172
3115+588844154+587982368+587491704+586915553+585987299+584814734+583937713
3102+583480756+582727458+581404781+580365052+579667517+578634310+577532842
3088+576634312+576054826+575798416+575226050+574330258+573644971+573007880
3075+572068225+571174176+570736934+570454734+569939873+568852894+566944557
3061+564886059+563405354+562168661+561042001+560472871+559902296+558332271
3047+556494036+555902850+555859086+554590927+552467803+550894890+549736117
3034+548003483+545816779+544065126+543129504+542730899+541963959+540141208
3020+537931751+536532948+535794986+534657621+533098948+531656679+530288346
3007+528807094+527402615+526287705+525252058+524289848+523461420+522506082
2993+521642503+521044545+520337252+519605115+519097672+518380173+517248832
2980+516185403+515176941+513991331+513041718+512338110+511372166+510193079
2966+509000151+507753500+506508145+505295749+503910986+502202151+500690727
2953+499802603+499097401+498388465+497731508+496841193+495735543+494601664
2939+493470174+492413268+491431093+490492633+489695522+488938391+487766423
2926+486315442+485209693+484018308+482095831+480026678+478350802+476955235
2912+475975451+475368979+474745878+474323374+474297236+474164500+473737615
2899+473101170+472145683+471071599+470103017+469260698+468589302+467998364
2885+467482906+466866974+465837800+464966255+464585225+463814651+462385925
2872+460977513+460029941+459601712+459334996+458818143+458007539+456945454
2858+455903186+455151979+454181754+452599979+450952134+449733017+448978824
2845+448389778+447630356+447006658+446855998+446775889+446272380+445482787
2831+444783559+444217466+443676018+443056203+442346769+441669050+441070445
2818+440673483+440510476+440230715+439646947+439017622+438370474+437405377
2804+436385811+435873240+435727261+435436945+434852181+434137868+433500229
2791+433158133+432957287+432467569+431960774+431802546+431548775+430891968
2777+430146188+429584775+429141410+428798617+428677831+428526574+427922143
2764+427017987+426346542+426068076+426001359+425899692+425497651+424984980
2750+424649706+424221875+423706316+423392600+423055633+422609579+422360886
2737+422223670+421907564+421516426+421170696+420753420+420240501+419765072
2723+419641746+419917922+420043937+419728926+419309409+419109410+419049713
2710+418950286+418852303+418766368+418589968+418333757+418036720+417690890
2696+417471722+417490243+417410283+417105230+416898210+416796542+416597514
2683+416343718+416034831+415722011+415670206+415729628+415530973+415286736
2669+415233039+415042325+414527340+414044716+413959056+414189999+414316635
2656+414118802+413870308+413829755+413865254+413903218+414049695+414281161
2642+414522560+414560698+414235929+413852309+413721764+413808247+413969685
2629+414185095+414405682+414522635+414693732+415009365+415356539+415759999
2615+416173740+416518226+416896368+417387480+417901346+418344711+418654145
2602+418852153+419236370+419834178+420339132+420760241+421129272+421391756
2588+421706120+422155211+422549485+422667632+422637162+422853144+423412914
2575+423976518+424225559+424207137+424179953+424244678+424244777+424116722
2561+424075596+424238106+424405494+424413410+424279430+424085853+424057772
2548+424226853+424234371+424023070+423949035+424083214+424221526+424321352
2534+424469123+424716621+424813659+424529865+424268078+424261606+424163373
2521+423958843+424049756+424467779+424679131+424443980+424178708+424240844
2507+424539922+424829840+425010522+425083860+425134594+425175520+425132304
2494+425099493+425097502+425147141+425364816+425523939+425432727+425340718
2480+425404497+425503725+425514728+425378109+425170890+425020031+424882566
2467+424645075+424413012+424331857+424148188+423673008+423282518+423268577
2453+423250006+422806691+422157999+421585632+421178662+421027654+420866340
2440+420495666+420194745+420072615+419882274+419483021+418952128+418410780
2426+417970800+417664453+417366146+416907770+416441427+416252704+416155617
2413+415823828+415254025+414684770+414265453+413784000+413118828+412455224
2399+412021269+411854677+411609246+411014026+410290129+409758962+409315248
2386+408591102+407450227+405889288+403951352+401683568+398991040+396049147
2372+393156420+390333049+387771563+385432607+383031490+381156984+380473764
2359+380529278+380984169+382426487+385005075+388073878+390384878+390388015
2345+387977065+385584611+384773584+384659594+384712444+384959294+385033230
2332+384760241+384706420+385176695+385849360+386556604+387285505+387914630
2318+388614007+389658068+390718286+391425604+392042133+392810143+393572053
2305+394156494+394482906+394600531+394745191+395007227+395292539+395629257
2291+395999633+396236924+396369884+396620120+396943545+397085666+397083301
2278+397008195+396761469+396503317+396448400+396576381+396800453+396983749
2264+397035828+397095250+397415787+397899307+398176752+398403911+398924672
2251+399387380+399508142+399749192+400320687+400811451+401083370+401446377
2237+401992704+402524593+403060938+403752971+404405920+404776868+405106516
2224+405709303+406553689+407523142+408599591+409725927+410779025+411878600
2210+413106754+414249969+415361842+416646207+418113344+419674607+421232085
2197+422897455+424815103+426929912+429138422+431385469+433658357+436030771
2183+438546923+441086527+443661878+446368620+449181213+452113348+455072119
2170+457895067+460610224+463416195+466391147+469186364+471464528+473341449
2156+475067411+476800493+478462926+479653215+480113857+479986897+479497228
2143+478742388+477592128+475801839+473358626+470387507+466931898+463051246
2129+458755360+454107071+449339540+444503301+439513365+434491714+429680966
2116+425091229+420497807+415956837+411709992+407683909+403753518+399989794
2102+396437471+393071805+389847289+386765615+383851031+381024124+378257237
2089+375662543+373312534+371140344+369097827+367156282+365120362+363009909
2075+361112825+359381684+357581189+355705887+353870913+352233101+350921128
2062+349702683+348214386+346587104+345135052+343783772+342351387+340915342
2048+339592989+338324930+337029885+335760034+334666782+333730537+332774327
2035+331824416+330925363+329913166+328733058+327610057+326676750+325779764
2021+324850913+323874464+322837174+321965305+321298366+320631227+319904243
2008+319086569+318154307+317192173+316324362+315583860+314888367+314100193
1994+312992353+311659469+310700820+310200074+309763654+309363381+308967489
1981+308351682+307521213+306659526+305869535+305198811+304564906+303702323
1967+302754129+302297072+302196649+301838024+301202576+300579450+300014203
1954+299475393+298958964+298422719+297804223+296975148+295812541+294932656
1940+295105472+295642489+295723843+295393049+294938606+294572886+294282919
1927+293761386+292676647+291679636+291649962+291810480+291775553+292139581
1913+292377171+291983669+291597734+291831963+292368781+292790065+293082497
1900+293147396+292774954+292119118+291727707+291536669+291099901+291003710
1886+291451182+291687030+291703136+291760368+291786009+291728254+291589220
1873+291107917+289625270+287686836+287765526+289648820+291098830+291665720
1859+291941523+292245431+292642717+293042417+293288571+293174705+292609807
1846+291656709+291315161+292901292+294894344+295929170+296608980+297388640
1832+297360435+296453565+296704523+298234743+299746341+301384129+302809071
1819+303427218+303538569+303422015+302711834+301650745+301329984+301673623
1805+301688111+300800933+299390703+298771735+299133397+299184157+298059961
1792+297182168+298849031+301266404+302390948+302413776+302240911+302510366
1778+303437051+303943797+302830455+300773325+300935436+303260950+305425223
1765+306498486+306326965+306257087+307149020+307998683+308641500+308309959
1751+305904386+303411211+303719550+305286961+306206701+306215638+306000553
1738+306229181+305475908+303267074+303870234+307134581+310387577+312545702
1724+313362828+313504550+312749311+309808115+307717677+311471195+316909450
1711+320683281+322294381+322439191+323069959+324766048+325484967+325581780
1697+328751231+335561378+342722110+347540874+350780327+353180697+354408901
1684+357459033+365385186+373566753+380117852+385581275+391422268+396949295
1670+402306694+410434913+419229051+426200612+433229978+441781323+449736801
1657+455123550+457817846+463610569+474149962+481150251+488324301+499935538
1643+510691659+518275717+523177726+525935651+530742565+540264036+548189044
1630+552875520+555760754+558100955+560117780+562963532+566068780+566845777
1616+566162582+567757850+569726530+569951125+569422124+569412067+569308607
1603+568806043+568801762+569404798+569803951+570176168+571602106+574136930
1589+577161222+580446456+584090264+588422198+593485173+598225918+602357155
1576+609705763+620037689+628102353+635645534+645856274+656666117+666247732
1562+673389868+677648264+686706604+703318331+717935538+730411100+741410039
1549+752217393+761066373+766878961+771275769+778000729+794140413+809783060
1535+819549738+828264041+838846252+847913205+854369955+859811620+864187019
1522+868679021+876645154+885767074+894649810+903448205+909680808+911727705
1508+909710880+911155438+922096623+931152922+935320603+935271711+935043581
1495+938518806+941603791+939473149+934285902+934560833+938371632+940593287
1481+940123584+938011961+934740071+929203310+921564784+917846791+920481589
1468+922107676+919766629+918123714+919377882+918909971+914054613+912745180
1454+919882536+927151135+932652447+937633172+943675981+950441419+956864910
1441+962670429+966935397+969805296+975975863+985118494+992181566+997139886
1427+1002332610+1007169248+1011139369+1013726072+1013642129+1014433465
1416+1019247997+1023331138+1024072486+1023236938+1022874877+1023081599
1404+1023615230+1024253018+1022603531+1018291861+1015356839+1016115315
1393+1019010307+1019669704+1015558582+1008862350+1005806740+1008195585
1381+1012442430+1015391791+1016029778+1015046260+1015021565+1016303415
1369+1017248696+1018332688+1018714365+1016111332+1012450794+1011580594
1358+1012995877+1014547082+1014740460+1012664087+1009067776+1007145549
1346+1007574624+1007376566+1004986328+1001413020+999813819+1001392607
1335+1002653944+1001551133+1000062959+1000504084+1002414861+1003971244
1323+1005016002+1006663000+1009011217+1011711836+1014632718+1017808317
1312+1021278166+1024337758+1027365984+1031411784+1035514143+1038856135
1300+1042111694+1045363769+1048284751+1050860400+1053097988+1055321734
1288+1057631215+1059189889+1059787150+1060308234+1060534970+1060026034
1277+1059965193+1060467955+1059926656+1058531587+1057762856+1057183917
1265+1055237691+1051809266+1049196375+1049641980+1051824701+1053636797
1254+1055179638+1056539158+1057109234+1057064724+1057335970+1058139255
1242+1058841271+1059167982+1059113812+1058848241+1059032956+1060081896
1231+1061305992+1061813734+1062045847+1062767479+1063937306+1065238374
1219+1065987290+1066025329+1066233743+1066740687+1067411137+1068713500
1207+1069905632+1070189226+1070745561+1071906227+1072096817+1071296519
1196+1070957261+1071030151+1070943719+1071388826+1072729128+1073741823
1184+1072623478+1069584995+1067472377+1067587487+1068000233+1067081439
1173+1064964439+1062395261+1060611346+1059969176+1058912866+1056979984
1161+1055409062+1054462885+1053238391+1050761023+1047181242+1043635118
1150+1040504527+1037049217+1032732170+1028171460+1024062429+1019989743
1138+1015602097+1011449451+1007091180+1001020887+993523162+986539752+980758430
1124+975572478+970634471+965264899+959085370+952982615+947385511+941919051
1111+936670863+931948041+927480136+924009192+922823931+922126198+919728889
1097+916993917+915482144+914713412+914265815+914361906+915202931+917037830
1084+919531528+921982807+923905035+925047080+926332814+928730321+931321604
1070+932802110+933861407+935848658+938297647+940722538+943896544+947577793
1057+950653517+952707485+953647588+954037132+955105291+957079598+959310314
1043+961224078+962491689+963847126+965901692+967307216+967360788+967546399
1030+968279483+968722698+969205147+970070369+970864792+971913334+973500885
1016+974460903+974238150+973910045+973977558+974107904+974195631+974151419
1003+974009721+973560830+972271412+970810622+970296408+970391205+969932953
989+968174629+965528379+963224473+961861767+960816112+958961397+956173749
976+953220703+950419512+947919242+946009560+944865923+944263285+943676778
962+943398760+943803440+944151062+943767990+942996470+942908743+943828035
949+944940008+946192582+947712023+948837438+949536367+950144780+951131386
935+953150601+955675766+957816863+959393062+960534310+962071774+963936646
922+964136596+962349394+960793807+960705084+961392761+961533861+960211284
908+958327492+957714598+957652462+956043702+953548211+951768577+950365542
895+948848292+947731838+947239233+946851979+946117402+945580983+946182226
881+947372765+948209209+949369178+951439277+954017416+957524805+962028359
868+965613915+968398875+973138326+979726915+984902711+986270397+984918544
854+984204081+985822800+987435643+985413739+981186610+979126468+979942399
841+981587904+982078518+980953799+980355842+982165050+984013989+982731143
827+979856763+978383128+978836999+980402941+982462685+985145479+988200889
814+990790978+992756024+993933120+994674966+996171603+997341131+996842451
800+996584846+998418252+1001425865+1003872065+1005434921+1006633127+1008735788
787+1012399114+1015848748+1018754295+1022258498+1025997402+1029993812
775+1033704536+1035679839+1036850661+1037731516+1036899454+1036136796
764+1037633931+1039115532+1038641846+1037598781+1037969007+1040736043
752+1044918661+1046570837+1044425557+1043236015+1044007037+1043553664
741+1042535991+1042525834+1042143360+1039494621+1035871225+1032920868
729+1030230108+1029118235+1029342481+1028345918+1026919084+1026136909
718+1025628670+1026181121+1027177983+1026964690+1024678609+1019880508
706+1015922036+1016282604+1017868661+1016434856+1012529061+1010167899
694+1011316915+1012963713+1011919055+1009028842+1008788265+1012802897
683+1016425695+1016142798+1014280416+1014654027+1016177849+1015460200
671+1011968743+1007569845+1009642633+1017010907+1020436842+1021585459
660+1022309481+1019248594+1013842975+1012024208+1014424702+1017056912
648+1018327510+1019630968+1020776797+1021198106+1024846894+1031381811
637+1031835383+1025025634+1016890420+1011003149+1009721398+1012411461
625+1019570127+1028303100+1027348458+1017142747+1007586673+1000158055+996920718
611+999731070+1003566763+1008176665+1012932247+1009980297+1001568758+996944716
##END=
