##TITLE=Sample description
##JCAMP-DX=4.24
##DATA TYPE=INFRARED SPECTRUM
##DATE=24/8/2023
##SAMPLING PROCEDURE=Instrument type and / or accessory
##ORIGIN=Default
##XUNITS=1/CM
##YUNITS=ABSORBANCE
##RESOLUTION=4
##FIRSTX=4397.6552
##LASTX=599.8556
##DELTAX=-1.9287962
##MAXY=1.292592
##MINY=0.33268386
##XFACTOR=1
##YFACTOR=1.2038202e-009
##NPOINTS=1970
##FIRSTY=0.48939174
##XYDATA=(X++(Y..Y))
4398+406532273+405934949+405561300+405403106+404959644+404075566+403647452
4384+404424211+405221740+405025199+404388240+403755688+403276378+403098032
4371+402903348+402308623+401576402+401609303+402789443+403901478+403893804
4357+403385702+402779318+401720657+400489742+399990478+400804619+402106190
4344+402149291+400783427+399600341+399271872+399275165+399476683+400064648
4330+400581068+400370069+400058162+400394107+400356478+399340646+398586317
4317+398434683+398090049+397661985+397381469+397430363+398224897+398868887
4303+398309317+397477153+397708700+398468154+398516157+398163452+398291566
4290+398672147+398587505+397935667+397072707+396163848+395654607+396144117
4276+396979474+397081545+396669251+396131169+395306878+394769861+395239664
4263+396208038+396743396+396606171+396157535+395950744+395855135+394885300
4249+393295812+392850221+393940792+394958084+394706683+394189966+394870372
4236+395847856+395654088+394778105+394123520+393821070+393814138+394127481
4222+394469986+394255793+393482476+392681604+392450676+393203347+394374253
4209+394872997+394685986+394477091+394307633+393959582+393411029+392821429
4195+392588149+393067830+393783193+393777078+393390877+393305764+393016312
4182+392485707+392163724+391918982+392136690+393070949+393422392+392519128
4168+391617448+391337898+391184482+391234317+391630148+392177167+392666033
4155+392538685+391847485+391419273+391430487+391442123+391086150+390514672
4141+390247896+390613995+391478911+391892567+391042727+389682137+389234515
4128+389791907+390229898+390026103+389601431+389220924+388793479+388335782
4114+387930865+387925567+388493530+388973607+388901442+388323973+387477228
4101+386757855+386491549+386962095+387688450+387770022+387187206+386536953
4087+386175286+385910837+385669313+385742716+385995851+385870781+385459032
4074+385280835+385085259+384652318+384285972+383922448+383650993+383790991
4060+384038803+383965227+383562910+383067261+382665266+382207469+381829884
4047+381889200+382031674+381864295+381540431+381102613+380563393+380360712
4033+380690913+381093577+381249889+381151705+380884509+380553094+380098615
4020+379615468+379316435+379305418+379708528+380252575+380347665+380085568
4006+379931039+379807628+379511095+379169703+378967616+378973236+379210527
3993+379298486+378867476+378569161+378786399+378881984+378648159+378255175
3979+377760219+377375306+377205130+377198891+377261327+377208373+377044337
3966+377024111+376933700+376229923+375494285+375623489+375992757+375807356
3952+375420090+375109793+375342330+376492540+376671059+375195698+374789395
3939+375758882+376305233+375801191+374176846+373216221+374502690+375708528
3925+374978584+374169419+374307684+373734695+372560967+372564507+373674463
3912+374805016+375520527+375478317+373778440+371258951+370637786+371240656
3898+372300727+374167686+374837076+372740600+371531717+373498940+374397079
3885+372861832+371759427+370634618+370888965+372843512+373068846+371645424
3871+370218536+369603140+370760034+370850568+369628292+370666776+372980861
3858+374255497+372771050+366845939+364917658+369448461+373900415+375837781
3844+374880721+372394406+369785669+367890637+368953951+371935619+373747395
3831+374006868+373889918+373769132+373804187+372382522+369389591+370449291
3817+372924095+373277122+374846656+377304750+377844787+375935099+375197876
3804+375895662+374345363+373893607+375949581+377219637+378334668+379819659
3790+380689750+380691805+379718925+378695122+378884880+378859233+378469417
3777+379852783+381991939+383012351+382584089+382151792+382359003+382599636
3763+383612844+384195190+382834996+382093441+383197752+383520824+380644173
3750+378919886+382330954+385243972+385008291+386763920+389916902+390376952
3736+387485001+386249258+389990058+396062297+401580932+404790235+407024407
3723+411210501+417425362+425722241+436155404+447120485+458602183+474287280
3709+493524682+510823256+525136004+537416445+548006663+557315190+565743130
3696+572969342+577733029+578753589+575630463+571679431+570824838+570618716
3682+568692961+565241515+560266259+550416952+541009597+539390525+536486691
3669+532250911+533097384+534834445+534414229+533140559+532447824+531305313
3655+530563164+531214259+528267201+518717992+514104527+516795306+519973738
3642+522167160+523451971+523459744+522483053+521889343+522416309+520341768
3628+514729083+514605449+517817451+518993432+516012507+511277438+510598220
3615+512138072+512449607+512158323+510727597+508229176+507348985+507462369
3601+506588021+505148730+504379398+504155699+504445943+505149373+504108810
3588+499921107+497518839+499087656+501180567+502126560+502214446+502117599
3574+502093733+502605053+503629872+502297479+498424381+498364965+501330393
3561+503131078+503767121+505203491+506820434+506828802+506570146+507621108
3547+508616614+508940033+509618112+510745422+511774449+512597304+513714761
3534+515094191+515977303+516153025+515833765+515563326+516100640+517403325
3520+518797064+519662450+519736621+519652498+520236503+521185765+521779078
3507+521959206+521753232+521697085+522600745+523947546+525051238+525414366
3493+524713213+524255664+524971275+526076106+527231242+527850203+527446079
3480+527571594+528909631+530413932+531358688+531253523+530389522+530067540
3466+530654714+530795281+529511361+527938980+527694931+528593689+529340740
3453+529788782+530369519+530348080+529540029+529301971+530216425+531444445
3439+531938930+532074645+532873338+533041088+531213516+529322073+528843234
3426+528857395+528759458+528421731+528127772+528814715+530384967+531550254
3412+531831140+532081280+532032014+530581534+529133726+529617913+531075029
3399+531769447+531619077+531185393+530505234+529944500+529948857+529988270
3385+529810964+529759421+530110121+530944909+531647745+531807176+531703892
3372+531702456+532141042+532499070+531907093+531080178+531188908+531710676
3358+531876791+532169512+532935724+533476900+533196905+532825706+533251418
3345+533857655+533830323+533876321+534483795+534450671+533797694+534096257
3331+535012989+535257484+534796667+534325552+534608864+535606005+536368405
3318+536517340+536373356+535915708+535140188+534584455+534387443+533824580
3304+532855909+532458667+532678603+532857147+533132637+533632222+534044615
3291+534322185+534353526+534109923+534363429+535777567+537553992+538484636
3277+538860836+539130087+538957980+538949117+539652052+540615375+541561220
3264+542189638+542376500+542537169+543068096+543916203+544502189+544795404
3250+545594146+547015316+548245563+548774410+548616316+548173472+548349590
3237+549156799+549422485+549187001+549297910+549039948+548362810+548910323
3223+550135768+550229347+549605287+549503934+550014412+550339613+549943608
3210+549067675+548065336+547238668+546724972+546036643+544937209+544142131
3196+543944822+543960468+543971212+543469646+542458989+541954402+542187311
3183+542347337+541730951+540538185+539454000+538209642+536751536+536130396
3169+536564030+537133033+537026630+536090043+534604210+533071687+531971807
3156+531365273+531031705+530234547+528632606+527200148+526396702+525932815
3142+525828393+525514481+524349046+522972933+522128045+521624053+520971225
3129+519914620+518670410+517514481+516320824+515230153+514494490+513724862
3115+512947063+512572201+511983393+510968725+510442552+510578910+510770476
3102+510478696+509732685+509186805+508904680+508410195+507727016+507133504
3088+506769981+506519148+506163497+505700304+504992566+504167780+503798760
3075+503551344+502872126+502465031+502618867+502321889+501365052+500553089
3061+499955568+499226639+498415518+497426448+496217541+495116769+494146217
3047+493358863+493172744+493309796+492737575+491214607+489565381+488053703
3034+486446266+485229932+484644144+484020777+483074337+482027436+480831501
3020+479472768+478271040+477635443+477281772+476224028+474685117+473548003
3007+472565716+471567041+470774636+469997580+469140066+468447034+468137628
2993+468032660+467649381+466860195+466051203+465369311+464701927+464385836
2980+464410642+464089303+463452963+462793204+461692581+460360189+459599324
2966+458945704+457408130+455354780+453849983+453120014+452607605+452137480
2953+451871695+451387013+450606343+450037142+449340149+448321569+447744843
2939+447648094+447233275+446312929+445387533+444553488+443558575+442593073
2926+441728974+440750698+439822677+439026014+438119334+437284695+436940035
2912+436897355+436476297+435421573+434460775+434169540+433956734+433404764
2899+432849773+432325580+431787821+431508914+431319725+430757011+429945643
2885+429198345+428533881+427994438+427719839+427620764+427214412+426482858
2872+425846172+425020989+424003796+423492130+423205796+422478402+421668420
2858+421041092+420226901+419371962+418662937+417673719+416641523+416303845
2845+416405148+416351872+416173527+415943440+415585412+415210129+414852052
2831+414357987+413955670+413973792+413917991+413263059+412488107+412131812
2818+412040609+411842063+411405284+411027872+411008364+411041067+410669919
2804+409986121+409354856+408962887+408822245+408745896+408455008+407938291
2791+407367308+406874457+406477536+406163674+406112502+406138918+405888333
2777+405759970+405900315+405786856+405355351+404875224+404495832+404290378
2764+404251411+404291838+404242350+404038926+403606183+402943156+402516652
2750+402442927+402239008+401932201+401902271+402160827+402326002+402060365
2737+401725336+401698030+401607916+401314949+401187081+401133533+400870669
2723+400596689+400460182+400333206+400265671+400310431+400256709+400075417
2710+399981442+399922472+399725782+399481163+399509906+399861472+400066802
2696+399944084+399723504+399505153+399489531+399747716+399828373+399543154
2683+399311334+399273432+399154626+398936645+398838189+398930035+399030918
2669+398891886+398590055+398468204+398549479+398558688+398494223+398592456
2656+398730251+398518385+398168403+398232423+398627833+399026561+399483070
2642+399999935+400238166+399999044+399592048+399518174+399830081+400166868
2629+400412823+400615282+400701112+400829425+401242462+401817851+402294982
2615+402565868+402774787+403261598+404046329+404755948+405246076+405639506
2602+405924155+406129782+406478997+407016584+407582739+408048804+408442754
2588+408954519+409567761+410002287+410172215+410294512+410527990+410846779
2575+411249962+411629330+411779874+411825723+411961290+412129064+412344124
2561+412516280+412483057+412483354+412544750+412470926+412578270+412965065
2548+413199533+413180248+413120214+413150293+413303882+413506761+413669980
2534+413733852+413668049+413613362+413762792+414062024+414305380+414452235
2521+414645509+414955360+415223275+415281007+415217482+415248898+415459402
2507+415703501+415779354+415728208+415726623+415858674+416184568+416582503
2494+416716584+416567006+416427776+416382125+416255223+416049546+416089305
2480+416374896+416484567+416312262+416021374+415636015+415323489+415370328
2467+415535008+415402016+415128260+414920008+414581587+414075838+413687706
2453+413422366+413133533+412970586+412898693+412669844+412324962+412019245
2440+411821193+411672209+411409815+411005245+410524202+409991567+409400804
2426+408784368+408306370+408018180+407742963+407416895+407197108+407018762
2413+406529030+405888853+405581526+405477004+405238104+404845120+404314961
2399+403661489+403055328+402616470+402187539+401729867+401454550+401157101
2386+400357938+399091051+397592964+395724000+393368769+390790731+388208137
2372+385554616+382778353+379944655+377215181+374927585+373485150+372909488
2359+372634791+372741021+374184941+377021808+380232647+382450875+382450652
2345+380151371+377410757+375960103+375671418+375919651+376448374+376909711
2332+376870175+376749438+377253529+378174197+378851905+379257985+379820402
2318+380660983+381708453+382703069+383355129+383852437+384480632+385197331
2305+385789209+386104952+386237474+386435080+386815438+387206813+387448832
2291+387674141+387904697+388003872+388083736+388221333+388300504+388320977
2278+388351997+388508136+388865892+389149922+389059190+388827222+388835491
2264+389059710+389366715+389713800+390005753+390278594+390668508+391072955
2251+391320148+391567292+391997707+392513335+393033344+393525527+394033505
2237+394666701+395248131+395649384+396134412+396801525+397444425+398067595
2224+398761493+399438162+400143201+400962986+401811093+402680713+403663346
2210+404757532+405919823+407166187+408479393+409817331+411232559+412786695
2197+414457483+416198432+417969261+419720929+421505969+423480544+425715903
2183+428067816+430341350+432643156+435187674+437853846+440356971+442801424
2170+445488193+448206947+450713786+453172349+455508517+457594496+459648391
2156+461600784+463036758+463977899+464724158+465289992+465590238+465533199
2143+465026533+464063408+462479242+460114852+457202305+453996442+450405469
2129+446357491+442051501+437705257+433361143+428908545+424305973+419766728
2116+415485545+411401002+407331486+403227608+399278953+395585017+392070887
2102+388711263+385387238+382089133+379056492+376232077+373439574+370809200
2089+368323231+365784258+363353694+361266725+359322377+357298735+355240879
2075+353154306+351105214+349251178+347548751+345823721+344122284+342677546
2062+341318689+339671097+337893039+336338383+334968187+333571453+332159790
2048+330841236+329575241+328277928+326944669+325722369+324717108+323711699
2035+322546115+321397094+320382599+319418978+318446817+317393628+316224034
2021+315144702+314269709+313451063+312673537+311965799+311219120+310394482
2008+309484905+308515492+307596136+306697130+305745021+304855769+304044599
1994+303037457+301834615+300910630+300342222+299873384+299454802+298922216
1981+298162737+297326341+296563668+295999419+295632330+295155793+294232551
1967+293128165+292465064+292179993+291883906+291491912+290928505+290211582
1954+289536449+288931970+288329819+287738511+287087515+286213588+285491590
1940+285482381+285632603+285361470+284858716+284368811+284014373+283779830
1927+283456164+282826805+282173829+281974762+281836027+281669169+281961815
1913+282271790+282131768+281878187+281931587+282201284+282374332+282371584
1900+282262383+281985878+281557047+281258954+280990347+280441050+280146745
1886+280397182+280618876+280621871+280520147+280385695+280225174+280000311
1873+279519367+278220272+276486677+276356779+277713805+278734810+279005300
1859+278974329+279001041+279252839+279526002+279530310+279216992+278662819
1846+277819738+277329362+278408619+280019374+280975295+281634831+282342718
1832+282348164+281492086+281533305+282740331+283913193+285142920+286262680
1819+286790388+286908576+286795191+286202472+285302822+284941131+285128908
1805+285069220+284228417+282717134+281637084+281570613+281526398+280568992
1792+279686572+280707430+282256218+282774520+282612241+282467812+282554113
1778+283141361+283614308+282812224+280961084+280775436+282538442+284373440
1765+285497482+285635128+285691078+286488236+287271357+287815999+287574995
1751+285600048+283447078+283639486+284855374+285499191+285547466+285524417
1738+285733040+284945463+282658362+282653312+285023446+287322751+288732879
1724+289139603+289093086+288371806+285731579+283530780+285973054+289762822
1711+292401019+293557739+293304085+292954424+293630375+293672832+292849630
1697+294283896+298281866+302764022+305898091+307851202+309293216+309818152
1684+310835642+315593140+321329731+326000260+329541176+333004951+336467810
1670+340122432+346105622+352926200+358307362+363378846+369611928+375676666
1657+380042814+382628552+387673447+396233042+402195709+408653282+419058743
1643+429038814+436719505+442273715+445933066+451352601+460789218+469097584
1630+475220054+480232049+484717721+488890719+493674805+498245887+500924684
1616+502836675+506403040+510005650+512079795+513170812+514377392+515600807
1603+516541057+517454521+518425519+519167618+519793511+520761291+522168051
1589+524177731+526829544+529749172+532890667+536324140+539406319+541905682
1576+546696304+554370855+561103819+567708694+576112867+585012269+593443675
1562+599985965+603950414+612717666+628277743+641777241+653676977+664475051
1549+675217076+684750837+692030869+697321918+703796425+719760874+735630655
1535+746371244+757089304+769255172+779071900+786744916+794306132+801480702
1522+808820645+817644837+826805419+836736472+846657870+853968254+857528629
1508+857142032+861076229+874566023+885022259+890117930+890782394+891614310
1495+896897040+902128476+902923356+900975914+903073281+907846425+911562964
1481+914057623+915640154+915253359+912162367+907718781+906227848+909610075
1468+912764444+912333484+911562172+914077626+916369876+914238642+913162132
1454+920353388+928792171+935108236+940157464+946408668+953656170+960992697
1441+967840531+972496825+975438288+980727059+987785521+992961304+997552934
1427+1004004269+1009744895+1012839948+1014057965+1014055787+1016043334
1416+1021263778+1025488121+1027546571+1028794098+1028787067+1027071346
1404+1026035139+1026234379+1024079379+1019845926+1017533376+1018066333
1393+1020631894+1021511342+1017008242+1009712811+1007398379+1010864580
1381+1016068388+1020342838+1022110350+1020920158+1018916470+1018846755
1369+1019115511+1017890067+1016514004+1015386298+1014466645+1014854034
1358+1016282779+1017291258+1017232931+1016767015+1015460963+1012998290
1346+1010242797+1008083044+1006212347+1003278410+1001350278+1002638208
1335+1004538216+1005631758+1006556957+1007263704+1007273706+1006853440
1323+1007480175+1009891057+1012386706+1014254730+1016965661+1020409581
1312+1023914798+1027501316+1030703613+1033685083+1036787760+1039618017
1300+1042318254+1045015222+1047422738+1050032366+1052690318+1053996865
1288+1054331572+1055648715+1057662207+1058591762+1058901515+1059948812
1277+1061155640+1061534909+1061243278+1060751615+1059739373+1057685181
1265+1055333614+1053803071+1053262291+1053319825+1053648294+1054121439
1254+1054434361+1054939294+1056565199+1058325680+1058802192+1058940729
1242+1059672134+1060577131+1061112663+1061263281+1061670277+1062193233
1231+1062059350+1061355375+1060773301+1060872228+1061689587+1063205673
1219+1065084094+1066646226+1067871374+1068438099+1068155380+1068421660
1207+1069843374+1071041191+1071242015+1071173588+1071335099+1071594943
1196+1072198902+1072886933+1073011706+1073219165+1073741823+1073737466
1184+1072842272+1071187551+1069451133+1068312732+1067678670+1066978755
1173+1065761133+1063740808+1061436081+1060164887+1059778785+1059214635
1161+1057974732+1055425114+1051605688+1048225441+1046584187+1045188121
1150+1042355289+1038574780+1034574731+1030546162+1026422429+1022219476
1138+1017791635+1012399184+1005920914+999022378+992423000+986612759+981060083
1124+975213004+969408209+963372090+957209316+951623368+945733015+939191566
1111+933426283+928558173+923486763+918411590+914158035+911028620+909085437
1097+907566876+905635179+903889650+903271432+903497310+903596831+903377390
1084+903683082+904871888+906365791+908050320+909723262+910914741+911912030
1070+913029536+914711490+917183868+919447103+920863272+922669404+925807829
1057+928858023+930737731+931834343+932287783+932526534+933043944+933767229
1043+934690743+936214949+938163579+939138092+939399620+940545150+941898140
1030+942535867+943017528+944032741+945586853+946039103+944968337+944555994
1016+945337307+946168431+947292671+949204068+950590331+950199080+949234865
1003+949338743+949952901+950121146+949869324+948642294+946651380+945553877
989+945568335+945296311+943651492+941094942+938779322+936495192+933858629
976+931355950+928627392+925242986+922000088+919471662+918046977+918142141
962+918863049+919132993+919061794+919181417+919580194+919143193+917577694
949+917423907+919785177+922225570+923364763+924130332+925381325+927269253
935+929474360+932415625+936505689+939813944+940949275+941484906+942300086
922+942696090+942882754+943499982+943994220+943566825+942504872+940957989
908+939220086+938543640+938769221+938466103+937176589+935390163+933839913
895+932331453+930454022+929472478+930027518+930324199+929525259+929127472
881+929491095+929229073+928495688+929205604+931936439+935155472+938010881
868+941733658+947249199+953402664+958222350+961273336+963176712+963214242
854+961676668+961402862+962380346+961867491+960808905+961103804+960654425
841+958629545+958290579+961183520+965665231+969618837+970744860+968660762
827+966169569+965023147+964561687+965002055+967410759+970982720+973739203
814+974658856+974542599+975310743+976423892+976610358+978026229+980963335
800+982131048+981383304+981771683+984307932+987499733+991116156+996220146
787+1002146940+1006691137+1008436170+1009523176+1013311410+1018285477
775+1020826678+1022247104+1026195066+1031930642+1036087449+1037846247
764+1037501934+1035251176+1033013093+1033720633+1038035585+1042057915
752+1042953306+1043427541+1044667443+1044507220+1043372086+1043259890
741+1044268072+1045354782+1045065527+1042801599+1040196922+1038275524
729+1036151321+1033929478+1032887925+1033739943+1035880485+1037555804
718+1036919960+1033250557+1029295070+1028680119+1029570460+1028030708
706+1024636400+1021526889+1018392524+1015902321+1016099086+1017053893
694+1015722490+1013593435+1014044597+1017944927+1021502925+1021728011
683+1021885660+1023771508+1022975043+1018311620+1016153748+1018419657
671+1017552686+1012475830+1016551040+1026920430+1028847275+1024661354
660+1020745477+1020038531+1021930321+1021971416+1019028963+1016750379
648+1018093466+1022559729+1024567180+1022159466+1020152510+1019654509
637+1017651018+1013370726+1011583805+1015595935+1020146172+1023788342
625+1027668075+1022688462+1007471955+996530492+997585811+1004139637+1009952651
611+1015608413+1021125538+1023966490+1021179408+1016220590+1015839638
600+1020355414
##END=
