##TITLE=Sample description
##JCAMP-DX=4.24
##DATA TYPE=INFRARED SPECTRUM
##DATE=24/8/2023
##SAMPLING PROCEDURE=Instrument type and / or accessory
##ORIGIN=Default
##XUNITS=1/CM
##YUNITS=ABSORBANCE
##RESOLUTION=4
##FIRSTX=4397.6552
##LASTX=599.8556
##DELTAX=-1.9287962
##MAXY=1.5529406
##MINY=0.5880034
##XFACTOR=1
##YFACTOR=1.4462886e-009
##NPOINTS=1970
##FIRSTY=0.82994461
##XYDATA=(X++(Y..Y))
4398+573844380+572585885+572346772+573817798+574676741+573589276+571882641
4384+571083002+570808364+570637746+570977416+572269252+574627657+576032208
4371+574365631+571473322+570158407+570387629+571031981+571138926+570352104
4357+569806497+569824507+569535156+569654300+570859220+571671470+571099322
4344+569909774+569339728+570212642+571316674+571013023+569939118+568893071
4330+568315648+568866489+569483105+568763335+568057165+568934819+569431796
4317+568107485+567255466+567547907+567197934+566387373+566325802+566684430
4303+566759107+567008523+567806802+568076082+567100178+566066537+565960992
4290+566226440+566572787+567402840+567998397+567094450+565723981+565828784
4276+566873141+567533689+567557345+566931662+566325967+566501654+566906440
4263+566807531+566472394+566043746+565386413+565384064+566068886+565831710
4249+564702745+563857484+563572461+563838897+564181123+564176507+563890124
4236+563232790+562480586+562040111+561851071+561762712+561875469+562515246
4222+563331493+563121064+562120516+562032075+562430143+561793498+561046899
4209+561742024+564027978+566418117+566486365+564717416+563673554+563683733
4195+563774400+562949416+561526237+561476288+562408300+562743520+562848281
4182+562610363+561628525+560972098+561149434+561406474+561406557+561357597
4168+561314283+561053080+560465890+559933676+559621659+559655206+560539948
4155+561590693+561435034+560499437+559677831+558943802+558817033+559237068
4141+559196721+559051860+559527201+560224593+560550251+560021705+558593004
4128+557420437+557606386+558541118+559250214+559945422+560569003+560342253
4114+559288665+558026791+557456827+557792046+557865486+557885433+558868013
4101+559684425+559256726+558907000+559569938+559936149+559544922+559069458
4087+558429268+558066437+558366173+558730900+558732507+558318573+557737399
4074+557100053+556486982+556385723+556588116+556513193+556295428+556127818
4060+556148053+556359348+556354402+555952708+555266608+554791927+555128877
4047+555732305+555759464+555363127+554718198+554112668+554453740+555916771
4033+557477721+557979768+557195377+555969028+555631294+556200516+555437597
4020+552956997+551818471+553015189+554070384+553752969+553258917+553440745
4006+554002838+554280896+553676726+552254083+551046114+550985945+552024367
3993+553526013+554308673+553899807+553475158+553381565+552856399+552005368
3979+551677237+552346728+553566113+554509294+554442860+553217705+552027210
3966+551431983+550371554+549384812+550279280+552125048+552676178+552199395
3952+552301354+552386498+551520466+551000410+550454184+549359054+549711088
3939+550846812+551032226+550613881+549403151+547876242+547706365+548025223
3925+547876654+548893687+551166083+551831494+550067532+549049840+550254553
3912+551633181+551778907+551241625+550243838+548254857+545736796+544237004
3898+545308561+548294050+550563108+549867859+548101754+547923223+546307708
3885+543901826+544405603+544571234+544707358+546426811+547126304+547330222
3871+546121552+543040162+543546536+545398073+545521421+546824343+549304325
3858+551171688+550255212+542022429+536659452+540811657+545839497+548411587
3844+548035444+545543099+542659238+540679366+541178115+542876880+543604315
3831+543984291+544538141+544617969+544950345+543972175+540799129+541546882
3817+543237898+542597750+544237334+547175223+547954709+545849717+544960318
3804+545503329+542652851+540676770+542320887+544270798+546513768+548406642
3790+548922412+548335633+546990675+546180197+546532396+545900820+544796541
3777+546379664+549591985+551390071+549543643+546253184+545363249+546014195
3763+547226862+547586726+546028495+545217853+545966595+545971870+543309071
3750+540964060+542355917+542666615+540010658+540795337+544273394+545304975
3736+541667180+538181828+539664023+543482822+545958806+545550847+543942873
3723+543131530+543383088+544925164+546810455+547660867+545400340+540606792
3709+540568588+544467792+547067247+546789436+545832120+546869841+548494712
3696+549546693+550068068+548226380+542684337+539992772+543090894+546832709
3682+548760819+548747631+546452115+540022857+535411507+537348189+537336691
3669+535662242+537888439+540303594+540555730+539673089+537971976+534854896
3655+533100578+534214295+532815514+524964849+520082365+522130196+525151045
3642+526111535+524928500+522991859+521149553+519740222+518609319+513648202
3628+504769748+503069748+505627496+505910995+501381822+494941890+493058825
3615+493420833+492446289+491045489+488660954+485727062+484562572+483359879
3601+480408966+477766032+476361028+474428467+472660425+472620614+471500015
3588+466759919+463564907+464207939+464629128+463156824+460911875+458834042
3574+457308657+456860681+456489854+453116394+447464025+445704267+446837931
3561+447408842+447201133+446911123+446753858+446275797+444935043+443238792
3547+441722763+440605048+440293773+440662663+440718588+439782207+438266218
3534+436855774+435713291+434715340+434047827+433524639+432042485+430337993
3520+430313265+431083232+431062172+430396967+429561556+428789488+428151647
3507+427487267+426462032+425293256+424709280+424365983+423728225+423201163
3493+423043321+422755949+422189488+421739410+421264275+420115652+418408192
3480+417391736+417316606+417221406+416893975+416676375+416518451+415906450
3466+414654920+413275550+412328866+412161339+412427610+412510611+412145637
3453+411242432+410238133+409381992+408685177+408546581+408780048+409186729
3439+409466807+409058024+408628181+408623689+408631107+408675451+408695151
3426+408541265+408164132+407526787+406983116+406952248+407113140+407063068
3412+407134323+407022144+406560197+406770379+407321097+407330328+407322993
3399+407501936+407621039+407736598+407717063+407785310+408430033+409170656
3385+409135502+408712707+409069851+410394080+411908791+413012122+413668054
3372+414095218+414358358+414590135+415335374+416916230+418903974+420283674
3358+420602656+420886566+421875080+423273491+424984907+426382823+426741451
3345+426923897+427816098+429054770+430001083+430084950+429631081+429978746
3331+430993513+431110143+430654873+431199944+432125981+432199215+431971353
3318+431837208+431456778+431172621+431442849+432090374+432881976+433429439
3304+433477327+433785800+434570232+434965786+434978067+435017218+434697083
3291+434013167+434212057+435855803+437633530+438453981+438536529+438689055
3277+439619337+440702886+440985684+441264443+442385825+443747556+444390672
3264+443894519+443044312+443140172+444070165+444453767+444086608+444293947
3250+445576015+447150978+448023151+447968503+447828877+448050309+448322598
3237+448707643+449312802+449588305+449496320+449573221+449799352+450302511
3223+451028628+451339161+451118017+450479476+449825769+449961192+450645850
3210+451064812+451388698+451620146+451324201+451254429+451931957+452625969
3196+452995518+453293400+453886937+454704091+455238736+455636928+456105180
3183+456488453+457087554+458063746+459042122+459732219+460027174+460126248
3169+460436905+460936850+461270668+461368423+461362489+461481180+462264169
3156+463622727+464502400+464442849+464081665+464403367+465568970+466542689
3142+466872304+466865133+466530161+466308316+466579451+466821902+466913228
3129+467285044+467609836+467454796+467435427+467938091+468152683+467542125
3115+466944384+467383252+468549927+469260506+469019044+468650360+468867672
3102+469024525+468624479+468392661+468865158+469452555+469402647+469089270
3088+469285646+469851365+470248114+470258747+469976031+469887343+470535239
3075+471689179+472199261+471596946+470939736+470774352+470677462+470854715
3061+471447923+471644546+471251918+471221009+471586602+471531295+471258182
3047+471287937+471518313+471705128+471749678+471764762+471729113+471578071
3034+471756437+472598112+473313885+472969557+472187433+471959901+472056956
3020+472247809+472858120+473568823+473809502+473879480+474270707+474726225
3007+474862802+474825628+474960392+475441502+476159624+476882320+477537098
2993+478171271+478811254+479461128+480015679+480469095+481333148+482748208
2980+483768950+483885375+483914264+484507595+485098371+485057118+484699562
2966+484543780+484439472+483828873+483048068+482928717+483297731+483778182
2953+484410335+484864410+484629089+484076722+484210003+484985903+485535632
2939+485612287+485419414+485271504+485538599+485828032+485426049+484842568
2926+484857569+484952274+484450723+483584155+482767454+482141195+481972019
2912+482517008+483279803+483695098+484073384+484630449+485069028+485257945
2899+485210551+485151411+485331179+485578616+485703613+485746515+485832071
2885+486066156+486442299+486882651+487144224+487040947+486805831+486536139
2872+485947712+485282631+485207666+485676866+486148127+486457630+486748093
2858+487036454+487109194+486831053+486306299+485620199+484984749+484809474
2845+485198352+485998774+486908161+487409919+487517647+487862634+488722319
2831+489641226+490033401+490074283+490263901+490650264+491178686+491562495
2818+491540282+491531874+491849908+492321416+492805865+493185058+493288624
2804+493202491+493434350+494297703+495365304+495957975+495876087+495606147
2791+495727105+496180315+496593673+496814034+496987784+497431268+498060330
2777+498454318+498516219+498516672+498699324+498985872+499250207+499596224
2764+500096045+500494442+500562649+500654964+501121856+501695653+501957473
2750+501916014+502023330+502552494+503125302+503056972+502485607+502498836
2737+503346405+504086039+504343367+504648214+505263058+505867598+506207021
2723+506501029+506934910+507260651+507351895+507466753+507752435+508001934
2710+508241994+508841219+509642177+510239176+510716247+511043884+511016725
2696+511152478+511827203+512351957+512472585+512633518+512873579+513071933
2683+513150483+513070326+513027053+513362808+514100341+514735626+515018671
2669+515154011+515231367+515192586+515037134+515012407+515417893+516075845
2656+516626233+516982676+517025537+516872846+517073384+517664078+518131176
2642+518355370+518613070+519060098+519567584+519802122+519877417+520252488
2629+520750290+521124084+521557883+521950923+522164690+522454123+522913226
2615+523331736+523724858+524165375+524598267+525138764+525778747+526295136
2602+526677625+527093703+527554991+528016979+528583151+529217859+529634802
2588+529643168+529450131+529481205+529878119+530389973+530893338+531521700
2575+532037676+532097969+531864791+531737693+531941404+532316764+532684171
2561+533054091+533351148+533552510+533799618+534154455+534520295+534805194
2548+534996913+535243197+535658863+536181721+536788693+537243469+537402383
2534+537632883+537954173+537985782+537919431+538201940+538684122+539069373
2521+539530413+540267245+540906651+541052171+541032678+541220852+541628070
2507+542097929+542300116+542296036+542501478+543081416+543801103+544191753
2494+544137559+543938340+543846643+543964386+544203334+544322643+544133108
2480+543762982+543664815+543954866+544222291+544195132+543949879+543733309
2467+543825212+544274548+544688689+544547579+543978398+543565617+543506684
2453+543714846+543950538+543777859+543274288+542937626+542875849+542980611
2440+543092996+542964744+542591527+542128962+541572763+541001934+540688845
2426+540492428+540109856+539801507+539849848+539926627+539521552+538869329
2413+538572478+538375154+537787840+537137719+536897328+536985316+537105161
2399+537035760+536644863+536004385+535421522+535115192+534758913+534006874
2386+533064971+531975899+530431186+528362501+525875678+523129673+520377691
2372+517249195+513078156+508676247+505262975+502825483+501147037+499936842
2359+499100936+499412335+501425837+505186527+509703912+512535392+512019334
2345+508847565+505620408+504015978+503981772+504687777+505000948+504915021
2332+505215540+506162842+507264731+507981204+508566581+509565275+511010832
2318+512684333+514268692+515408002+516087714+516578138+517287152+518446985
2305+519550852+520075771+520209751+520349378+520693994+520966695+521024639
2291+521301420+521775895+522096690+522270523+522350640+522443779+522686972
2278+522927280+523041602+523238596+523557290+523759188+523903101+524212274
2264+524593528+524838039+524953227+525097923+525329535+525574624+525828120
2251+526158517+526597921+527059002+527432426+527799008+528294913+528880991
2237+529373146+529754482+530158814+530537430+530857031+531218585+531632313
2224+532052471+532434920+532759094+533227388+533968918+534646239+535140331
2210+535734858+536418402+536911464+537158078+537531748+538286425+539202158
2197+539931077+540335369+540793483+541498952+541967493+542182950+542678526
2183+543490281+544269149+544891205+545528633+546210241+546828382+547501994
2170+548227204+548909347+549649641+550436092+551080939+551497717+551930733
2156+552612423+553423024+554057032+554334472+554553803+555002026+555398033
2143+555408749+555207180+555072828+554869776+554515558+554165296+553750207
2129+553072309+552225358+551568808+551130517+550505411+549548506+548488860
2116+547370280+546172820+545042990+543921360+542718831+541535590+540422450
2102+539413371+538428359+537295026+536137624+535085602+533838893+532291584
2089+530852868+529666865+528521745+527426367+526474408+525547630+524451469
2075+523244819+522143590+520981984+519591322+518267259+517205840+516341209
2062+515532833+514577248+513407565+512149482+510958904+509849597+508745607
2048+507714644+506887228+506121218+505181499+504243881+503466950+502603721
2035+501673975+500904668+500130910+499187441+498273974+497488470+496640407
2021+495706087+494794969+493912081+493169109+492534730+491833300+491201188
2008+490675569+490037193+489282763+488439151+487516246+486794003+486349366
1994+485644597+484429292+483400308+482910501+482599309+482317624+481843396
1981+481045817+480331034+479930493+479586248+479035530+478212606+477154320
1967+476232446+475940911+475925621+475532746+474814460+474087972+473505191
1954+473057339+472481647+471728248+471075612+470458131+469528838+468651638
1940+468528908+468755039+468715476+468366656+467882372+467430646+466897979
1927+466181877+465243065+464245113+463654090+463201168+462791190+462892160
1913+462940831+462281519+461378974+461016760+461113980+461137512+460886200
1900+460478777+460068757+459665414+459384059+459076369+458312090+457783338
1886+458104752+458459794+458425794+458215159+457962817+457667120+457239750
1873+456648686+455423202+453599812+453296326+454773657+455903818+456067265
1859+455963204+455958753+455935592+455671752+455074547+454252942+453218847
1846+451620805+450178298+450717105+452062393+452597780+452669860+452702912
1832+451834119+449726118+448609022+449185374+449678230+450118293+450765942
1819+450914635+450497486+449988475+449293886+448297417+447796690+448005512
1805+448129601+447526173+446101964+445001971+444962037+444796858+443459854
1792+442036840+442744535+444389394+445020434+444540766+443648812+442803304
1778+442501342+442163156+440315080+437159879+436440851+438503477+440477002
1765+441315628+440703751+439673984+439691911+440036939+440489819+440475024
1751+438308420+435240135+434893994+436288036+437120521+436922208+436420162
1738+436577428+436076453+433580522+433183484+435482504+437612594+438792827
1724+438862764+438344769+437038262+433266403+429485437+431230771+434907677
1711+437034223+437049142+435084188+432977795+432405564+430621532+427053179
1697+426751506+429665987+433084246+434916249+434693992+433350971+430352582
1684+426742975+428453114+431819734+433250743+432353142+430672635+429578123
1670+428301206+428828268+431314514+432183802+431184861+431295598+432275169
1657+431957300+428514932+422181493+421945512+423514705+423093187+425031806
1643+429284322+431969416+432171356+430010603+428596203+433091004+438802388
1630+442414921+444762776+447143519+449761314+453781351+458332531+461071325
1616+463714177+469095452+474558491+478323508+481217960+484673557+488584011
1603+492364895+495971699+499324100+502265369+505119557+508270431+511500926
1589+514810920+518438289+522249464+525857504+528866979+530772587+531223242
1576+532991119+538343792+542920153+545565436+549256807+554488482+559468968
1562+562937093+562609539+561059303+568512601+577858236+585473909+591636442
1549+597401690+601985469+603918235+603488104+604354631+614807842+627323679
1535+635290521+641966640+649874466+656808655+662022320+666470346+670007418
1522+674297725+681668846+689390022+697128342+705557625+712439063+715664490
1508+715194836+719460869+732281388+742627530+749262024+753310622+757699303
1495+764547358+770696951+774310596+778244294+786502052+796071675+803642262
1481+809492078+814700962+818705628+820360213+820881299+825648472+835056296
1468+843259736+847759030+851421388+857050389+861845750+863012960+865184428
1454+873578186+882723819+889907094+894935387+899964751+906354198+912871156
1441+918704816+923040910+925795117+930507642+938031659+945015386+949757913
1427+952886327+954863190+956959405+960091609+962180323+964647116+969957960
1414+974280124+976337186+978188518+979732572+980392048+981504611+982650226
1400+981605663+980038613+980725125+980675093+979693832+980067874+978332101
1387+972817093+970856879+974880502+980068203+983293877+983917252+982785896
1373+983126721+986702368+990089346+990283620+987891009+984062319+982163016
1360+984711080+987983818+989187790+988936231+988602083+988219222+987205156
1346+986076273+985085946+982789853+979321687+978019383+979500877+981071307
1333+980984349+979413260+979274293+982123370+985530707+987453171+988357283
1319+989603950+992458714+996207618+999239842+1001800352+1003910660+1005421085
1306+1007756412+1011325795+1015658098+1020666031+1024982426+1027774466
1294+1030271262+1032611534+1033931394+1034483389+1035340767+1037583613
1283+1040703537+1042790602+1042873768+1041900832+1041414034+1041720488
1271+1042039799+1041423266+1039868002+1038580370+1038110964+1037483798
1260+1036191138+1035450968+1036025465+1037346561+1038621830+1039209185
1248+1039155692+1039145389+1039003454+1038419808+1039217510+1041864565
1236+1043678229+1043679218+1042396037+1040228691+1038836874+1039508715
1225+1041225860+1042088182+1041988696+1042220638+1043137691+1043695703
1213+1043305754+1042623858+1042809147+1044510467+1046409522+1047853678
1202+1049839361+1051687808+1052318188+1051840870+1051085946+1050741330
1190+1050478891+1050195104+1049659429+1048262090+1047099908+1047920854
1178+1049597116+1049851560+1049501834+1049283656+1047964291+1046900606
1167+1047306463+1046993580+1045626244+1044681744+1043852968+1042764144
1155+1041703673+1039934354+1037374998+1036248175+1036661533+1036782037
1144+1036712471+1035966367+1033986536+1031811029+1030102704+1028520982
1132+1025710397+1022130793+1019643064+1017121376+1013317166+1009738139
1121+1007075917+1004463068+1001764745+999542009+997065737+992987631+988377312
1107+984638300+981992068+980821396+979958167+978485740+976677186+974185006
1094+972083764+970797039+969469843+969579220+970595511+969046265+965739485
1080+964425230+965899965+966946836+964307446+959562528+955227918+951769395
1067+950253448+950095111+948777312+945360002+941211258+938725342+937727019
1053+935950611+933581985+932111536+931306168+930254187+928932432+927348072
1040+925365439+923872571+923308624+923006374+922997142+922764706+920513040
1026+917081058+915690725+916122216+915219588+912610200+910651800+910644711
1013+911889895+912755102+912272096+911215829+910655756+910380212+909649026
999+908328012+907443517+907598228+907439314+906716700+907179100+908241467
986+907534679+905382828+903966779+904004117+904339584+903668074+901913343
972+899957498+898378826+896460236+893851508+891646905+889960917+887959573
959+885804755+884309991+883732609+883352304+883137176+884041535+885632736
945+886881381+888089309+889894236+892341907+894670145+896178262+897303271
932+898778666+901201197+904325984+907161461+909909734+912857226+915488538
918+918074765+920418417+920979479+920324865+921062974+922915130+923674258
905+923429705+923152182+922837487+922389840+921078965+917904559+914502991
891+913664572+915000752+915797547+915187772+914916514+915794497+916937392
878+917938353+918293189+917498454+916600112+917268903+919979425+923329889
864+925109677+925593589+927618507+931605369+935546650+938760290+941387646
851+944094706+947986781+952610782+956877063+960000530+961182495+961989593
837+964523068+967403054+968908369+969456902+970169048+972551439+976656498
824+979574976+980023777+981246541+985157160+989994229+992841081+992931583
810+993988921+997659521+1002151067+1006641954+1008703137+1007525212+1005951485
797+1004420537+1003602476+1007485154+1014301889+1016785662+1016275043
785+1018131815+1020790739+1021772825+1021652980+1021662953+1023137194
773+1026483619+1030210268+1031751272+1029921206+1027133617+1027099246
762+1030152159+1033480286+1034771874+1033710579+1031281866+1029165952
750+1028996158+1029908430+1029034238+1026683003+1025297286+1024985558
739+1025432874+1025750538+1025640748+1027121995+1028522878+1026869200
727+1023490959+1021311908+1021780820+1022654929+1022046391+1020137609
716+1016132861+1012269718+1014117258+1021282235+1024502634+1019905420
704+1015001671+1013925951+1013418960+1012120613+1013404700+1016396289
692+1015198005+1012033160+1012249277+1012670135+1010626425+1009374236
681+1010045499+1011689863+1018165032+1030465124+1037085771+1031038549
669+1019201435+1014353898+1021990425+1031209167+1033609857+1028370888
658+1020833188+1017375984+1022786890+1031725720+1032709124+1027068584
646+1025402377+1036652796+1051090974+1041319658+1016372386+1011783662
635+1042101288+1073741823+1052413883+1014857511+1007461993+1010943512
623+1005281376+999063207+998758814+1003131586+1002561210+994308315+995855501
609+1021361610+1048658633+1040586330+1017783820+1012691895+1020047932
##END=
