##TITLE=Sample description
##JCAMP-DX=4.24
##DATA TYPE=INFRARED SPECTRUM
##DATE=24/8/2023
##SAMPLING PROCEDURE=Instrument type and / or accessory
##ORIGIN=Default
##XUNITS=1/CM
##YUNITS=ABSORBANCE
##RESOLUTION=4
##FIRSTX=4397.6552
##LASTX=599.8556
##DELTAX=-1.9287962
##MAXY=1.3515562
##MINY=0.42270979
##XFACTOR=1
##YFACTOR=1.2587348e-009
##NPOINTS=1970
##FIRSTY=0.58600467
##XYDATA=(X++(Y..Y))
4398+465550553+464955659+464839929+465341348+465635598+465278321+464911053
4384+465115806+465384250+465118884+464085788+462935777+463042179+464290541
4371+465172772+465489183+465636356+465077829+464471287+464743282+465087963
4357+464975689+464551929+463624050+462071257+460617809+460129412+460200394
4344+460435169+460823178+460609380+459970070+459630029+459209252+458956577
4330+459294392+459820672+460636703+461410022+461032194+459409460+458333793
4317+459127474+459671794+458588551+458360216+459623210+459874512+458566153
4303+457347055+456822480+456942662+458392889+460442320+460705175+459249928
4290+458284830+458040158+457412544+456750220+457119004+458125535+458292596
4276+457349138+456555363+456557873+456938211+457624732+458373475+458503458
4263+458039637+457067626+455604376+454662387+454999870+455661815+455476240
4249+454577341+453883480+454104239+454675077+454564177+454250228+454471271
4236+454547319+453945654+453503805+454001673+454691982+454326324+453285888
4222+452782669+452747628+452727408+453040174+453807574+454430737+454446316
4209+454220159+454183318+453944423+453189193+452775377+453144445+453105000
4195+452128111+451231485+451001729+451163629+451686025+452427807+452635023
4182+452409671+452310561+451869044+451182333+451412420+452407493+452667081
4168+451885901+450774104+449687689+449363274+449899829+450088672+450005189
4155+450502110+450899211+450542928+449962572+449486913+448949647+448343626
4141+448032802+448155635+448002591+447030438+446016708+446147355+447088350
4128+447578120+447731543+447795091+447097063+446158719+445892218+446328432
4114+447106723+447214309+446520164+446132344+446271230+446426594+446382982
4101+446124815+445665540+445237707+445134431+445242679+445213652+444871480
4087+444579266+444711144+444902212+444761054+444312433+443610617+442857802
4074+442517003+442519229+442347338+442377265+442941711+443125724+442532630
4060+442258978+442978883+443513023+442976705+442272521+441907762+441702298
4047+441751024+441768592+441457957+440946168+440369979+439858000+439322582
4033+438772768+439055654+440249229+440671853+440052905+439896545+440139892
4020+439824048+439154527+438717223+438509202+438386369+438458914+438788868
4006+439190468+439076205+438259416+437702358+437986854+438746819+439579897
3993+439973825+439522932+438487136+437612908+437176883+436930980+436878892
3979+436969525+437078579+437164809+436918006+436245122+435551498+435369900
3966+435690336+435635928+434878993+434511062+435084978+435529763+434957031
3952+434194934+434120732+434275623+434449171+434184043+433170551+432977635
3939+433710799+434163303+434064477+433035595+432166481+433340263+434671824
3925+433676705+432271983+432780174+433480049+432692287+432067277+433213452
3912+434837654+435483215+435057797+433131011+429912298+427873948+427744912
3898+428990433+431346425+432994303+432008796+430814511+431968168+432108332
3885+430461211+430038019+429331278+429623966+432164208+432983791+431531338
3871+429429157+427466619+428054741+428678141+427533008+427888627+429997485
3858+431942313+431399413+424852980+421476203+426018191+430695324+432817677
3844+432218049+429709959+426554225+424226928+425315238+427976088+428968651
3831+429270477+430141296+430605353+431056768+430166914+426100301+425327503
3817+427055596+427436739+429635757+432953391+433971429+431331604+429738039
3804+430716822+428890471+427224362+428707358+430071971+431662411+433764971
3790+435140570+435401295+434613249+433754932+433907313+433547384+432755882
3777+434049987+436125083+436600505+434709423+432618511+432520775+433259669
3763+434368388+434527209+433082995+433718186+436755775+437866530+434495909
3750+433749297+440254154+446820807+449499651+453604004+460707164+466692845
3736+467638149+466192657+469109543+475060988+479476260+479518736+475991424
3723+471693398+467634361+464924643+464541843+466910336+472677105+484222860
3709+501164658+518697703+534426559+548142067+561085630+573789066+583940564
3696+589741616+591051774+586748965+575750988+565432808+560977523+557094166
3682+551133061+544197719+536827205+524641335+512132329+507953395+502445741
3669+495467024+494434543+494856788+494044451+493856460+494866448+495993966
3655+499335134+505814563+511136547+510790540+509240871+510977536+512103349
3642+509953294+505382516+501450006+499253166+497909388+496492260+490604600
3628+480217663+476720894+476683533+473169101+463801055+452387936+445732449
3615+441640313+438741942+439116644+440197331+439608404+439883050+441164796
3601+440816232+438549784+436140330+433577453+430514625+427707171+423445938
3588+416144512+411001711+409836690+408992578+407385376+405725328+404359105
3574+403204501+402177560+400661228+396396396+390085046+388143509+389536298
3561+389716760+388507676+387623125+386830510+385495397+384653654+384523623
3547+383592430+381671681+380044756+379204125+378885251+378545613+378108002
3534+378005223+377577840+376078673+374909721+375044345+374675159+373362563
3520+372994821+373588909+373741196+373041771+371894672+370723708+369838068
3507+369448970+368782645+367210247+366092886+366167751+366435081+366368858
3493+366082208+365454689+364508366+363496862+362902040+362825589+362444777
3480+361779234+361474234+361181901+360720661+360508521+360399775+359896225
3466+359144191+358259356+357075583+356109798+355791185+355956896+356117067
3453+355778423+355385963+355121403+354444707+353587314+352687776+352032957
3439+352276114+352753146+352716969+352082583+350959682+350277186+350355010
3426+350436125+350368363+350155181+349658639+349413731+349521245+349270204
3412+348561025+347979106+347866359+348011779+347887999+347446931+347314840
3399+347544857+347500227+346942837+346095600+345678445+346350358+347465493
3385+347901589+347879120+348269615+348941812+349664203+350585239+351389006
3372+352168457+353347827+354543201+355367519+355958601+356627057+357697539
3358+358959799+360094112+361433747+362972951+364226356+365377385+366724194
3345+368018654+368979585+369724469+370587687+371270610+371349215+371191365
3331+371215704+371593840+372189775+372402176+372096916+371675524+371157200
3318+370612027+370406018+370228019+369561978+368922454+368947409+369174561
3304+369378509+370184880+371259411+371545185+371104946+370865648+371168777
3291+371535549+371976522+373000645+374061632+374460698+374805592+375657399
3277+376855733+377913548+378288771+378478656+379426849+381126934+382840680
3264+383814325+384037404+384451268+385493574+385998119+385551203+385759958
3250+387181537+388548944+389135314+389037673+388547074+388513501+389278414
3237+389899991+390042689+390508925+391310632+391568184+391372830+391573203
3223+392129765+392455955+392560817+392632344+392132322+390876004+390021830
3210+390364286+391517209+392725676+393282167+393393706+393614276+393681848
3196+393525607+393556718+393959430+394489948+394921237+395285451+395448961
3183+395618673+395960750+396101435+396087158+396244086+396297310+395992121
3169+396292480+397498675+397825836+396841252+396694032+397861540+398395585
3156+398119376+398357229+399277815+400162555+400113782+399209438+398888670
3142+399918594+400513913+399052700+397429019+397945117+399439099+399367075
3129+398037597+397812908+399336817+400338945+399016475+397254429+397732266
3115+400197596+401459691+399725631+397595133+398131261+400313895+400257687
3102+397810351+397112726+399653370+402021675+400846093+397946633+397212214
3088+399697030+402175098+401161653+398797421+398507574+400250111+401513153
3075+400422238+398584617+398607962+400585369+401260099+399028550+397055192
3061+397522257+399138266+399517847+398362248+397422484+397543281+398169333
3047+398050951+397184560+396800813+396903995+396646324+396086117+395601176
3034+395153645+395292602+396142372+396331972+395488666+395103332+397081781
3020+404259711+415901639+422382631+417626466+408702637+402826578+400111698
3007+398469361+397109861+396396207+396531849+396956414+397190053+397462403
2993+398114025+399482190+400901686+401045638+400630875+401384968+403782205
2980+406791382+408460664+408474160+408546183+409762535+411870825+413694666
2966+414484748+414924372+415806176+417607903+418969392+417716578+415478684
2953+414740643+415611272+417086833+416908123+414587362+412469507+411901320
2939+412379915+412182927+410372534+408591310+408350521+409403459+410177914
2926+408957632+406796781+405723576+405670399+406067121+406036436+404730019
2912+403323451+403130820+403564714+403739966+403636358+403398268+403173674
2899+403367868+403835004+403904091+403716527+403893816+404574418+405609266
2885+406611726+407343137+408165798+409538651+411586234+414075336+416756216
2872+419762315+423533825+428451132+434401298+440829633+447149956+452703353
2858+456770818+458961360+459098920+457020415+452861369+447491086+442193915
2845+437259704+432304467+427567386+423237775+419255308+415881230+413262903
2831+411263430+409646615+408094816+406489982+405096151+404158518+403453766
2818+402740206+402200053+401983982+402084086+402305934+402175713+401768668
2804+401546536+401441271+401419299+401570970+401701569+401890649+402307401
2791+402641949+402635935+402548333+402563249+402531096+402498754+402599237
2777+402860340+403203506+403388466+403478579+403574516+403538717+403581666
2764+403908400+404364361+404804600+405153685+405483213+405888222+406171392
2750+406148236+406106424+406478522+407184600+407803786+408230529+408650928
2737+409140082+409643916+410152770+410830720+411868552+413025760+413829527
2723+414311484+414818443+415337951+415591668+415500182+415362527+415436303
2710+415474375+415222410+414900174+414770096+414803006+414870153+415019172
2696+415362859+415675340+415596545+415262045+415083714+415132913+415171459
2683+415006529+414805800+414769717+414707780+414659906+414859830+414996963
2669+414757595+414428067+414446676+414815839+415161372+415361107+415527362
2656+415608525+415667479+415946956+416407936+416700434+416731924+416865790
2642+417251195+417590714+417704929+417849308+418405041+419189961+419667846
2629+419852380+420116656+420537717+421097238+421914974+422788113+423359235
2615+423738295+424137716+424637856+425346444+426197942+426989397+427625298
2602+428181315+428678851+429071548+429522016+430077133+430584234+431183200
2588+431957561+432608283+433007325+433309389+433652318+434122911+434729737
2575+435363744+435849300+436219078+436697673+437103155+437084072+436866817
2561+436898070+437298296+437919991+438516590+438954698+439246107+439479414
2548+439864061+440364344+440540354+440434237+440497926+440715560+441097792
2534+441662522+442044801+442138323+442103566+442214229+442580456+442839997
2521+443003932+443426083+443910550+444178567+444463725+444883792+445163505
2507+445323558+445586934+445807835+445859166+445953398+446226955+446515618
2494+446623819+446633810+446613827+446427257+446263322+446395247+446712795
2480+447089392+447376445+447396286+447265781+447205406+447243146+447178084
2467+446750630+446069175+445638975+445647404+445771515+445778618+445602608
2453+445250398+444941231+444794201+444663649+444381000+443920541+443490719
2440+443257696+443098875+442848852+442485419+442010991+441383992+440729529
2426+440288248+440099263+439932486+439480882+438797771+438220445+437871881
2413+437646339+437325429+436797777+436286982+435948646+435552492+435045201
2399+434630343+434221357+434189204+436027820+441814572+454226030+476038445
2386+508289221+549433473+596245384+645611791+696150606+748115404+801656388
2372+855088555+905043699+949250022+987385617+1016238260+1032889028+1039226351
2359+1033034780+1007593718+965893781+917106547+871303393+847016035+856625060
2345+890791636+914982394+912063092+899055556+888552700+883320024+883216321
2332+884287916+881218032+873878439+865078485+855244157+841058387+820951716
2318+797034468+773458256+758083173+753030059+747162760+728742275+697997319
2305+665054008+640016913+623033160+607842469+591438221+573365590+553291781
2291+532877506+514377468+498157754+483994524+472712714+464993399+460134716
2278+456674124+453661916+450971897+448585836+446397662+444453686+442803014
2264+441361500+439963929+438515169+437127352+435908159+434801192+433753180
2251+432774207+432005861+431541613+431142808+430647782+430232355+430034515
2237+429922952+429740786+429648969+429870816+430326209+430895153+431552883
2224+432183055+432709713+433231636+433923887+434833440+435782816+436627733
2210+437363974+438138146+439125121+440109018+440905161+441872011+443179706
2197+444562030+445903014+447150382+448281168+449573852+451209277+452889639
2183+454274899+455593012+457274226+459131215+460696604+462034321+463491652
2170+465149900+466957831+468840532+470659685+472318644+473785635+475126051
2156+476457660+477827103+479069073+480043452+480920805+481655484+482033881
2143+482274291+482555141+482560870+482047660+481265060+480476162+479502209
2129+478169370+476820240+475630453+474134578+472116684+469825281+467505940
2116+465281257+463036875+460712562+458430866+456184022+453817612+451278128
2102+448776052+446526319+444471112+442418178+440344740+438436090+436818565
2089+435485914+434467829+433913516+433895712+434382451+435414506+436972698
2075+438965778+441273613+443732456+446205078+448474604+450456509+452404131
2062+454534108+456723939+458767071+460639118+462312851+463763552+465012056
2048+466015984+466775381+467260321+467369232+467149989+466758002+466089759
2035+464972706+463591235+462162884+460579406+458672555+456559483+454469235
2021+452448832+450340021+448045019+445699066+443271334+440702443+438251793
2008+436083933+434049324+431913191+429601900+427251258+425081079+423196862
1994+421331066+419266910+417372655+415916934+414821521+414066859+413412633
1981+412651957+411993137+411595658+411390525+411399380+411618624+411873335
1967+412316936+413346907+414770712+416160659+417551601+419191287+421150747
1954+423331534+425709498+428285302+430883599+433335338+435572286+437883672
1940+440729245+443744246+446335014+448488194+450342483+451853038+452977952
1927+453652825+453661159+453223382+453053432+452950156+452579762+452304121
1913+451739913+450385574+448773874+447580299+446615437+445475560+444189363
1900+442890664+441441052+439748426+438288680+437128299+435775003+434827521
1886+434740391+434856595+435059597+435451252+435749480+435855456+436109267
1873+436633605+436603157+435745029+435883962+437369704+438632793+439173373
1859+439226030+438920841+438466396+437969949+437170870+435850057+434100560
1846+431707064+428943696+427667395+427246807+425920502+423899389+421839115
1832+418991269+414704560+411139366+409287870+407362931+405447367+403729691
1819+401609089+399144138+396543663+393565597+390180983+387470105+385775371
1805+384201150+381911854+378623106+375694310+374257886+373084459+370729604
1792+368139167+367818281+368577702+368378867+367277796+366074679+365072812
1778+364663233+364371540+362877298+360248506+359724192+361705718+363645550
1765+364528089+364092963+363448018+363847202+364316232+364519376+364184710
1751+362106962+359337485+358781042+359464107+359384436+358318997+357120876
1738+356617989+355332999+351970523+350857045+352518489+353928633+354372068
1724+353765360+352664123+351002797+347133739+343090613+343966309+346524261
1711+347743383+347236827+345173664+343202745+342721830+341246316+337906095
1697+336833530+338426431+341005029+342614718+342536136+341568078+339087074
1684+335821174+337442037+340957653+342912401+342911359+342312607+342018190
1670+341522525+342957860+346348038+348413781+348968993+350476730+352724924
1657+353923613+352661424+350096132+352436995+355310814+357467380+362726787
1643+369251438+374193723+377285152+378880942+382927170+392428679+401551130
1630+409184878+417021912+425483767+434926583+446330231+456966007+466273157
1616+478874264+494313462+508642473+522980529+538970488+556539238+575070907
1603+595506065+618247400+641992709+665971658+690817684+716027995+739985209
1589+761978985+781106873+796326070+806476716+811166161+811060090+805011241
1576+792608874+783326726+776670103+765376739+753916788+747809599+744005510
1562+741443107+736788041+729141128+732707790+741632471+749989439+757591888
1549+765399752+772431931+777101771+778920972+781120984+792914773+806985948
1535+816235849+823931913+833070913+841249030+847928240+854462077+859474752
1522+862895899+868627011+876725196+885984662+895241192+901517051+903486833
1508+900910461+901822287+914424483+925642935+931658732+933432853+935233681
1495+940251659+943954177+942892621+941262642+945781996+952029348+955470383
1481+956217800+956048372+954847315+951207871+946632073+945806145+949124442
1468+951451928+950467368+949925368+952685658+954012863+949086654+944503753
1454+948239796+953025367+956403044+958914449+961918796+965440614+968852575
1441+972716754+975744210+975737391+976866282+981745422+986212688+989844649
1427+994480964+999107240+1002412751+1003027391+1000907879+1002566932+1009706412
1414+1014931322+1015921754+1015715864+1016343478+1016345372+1015842201
1402+1016162211+1014708669+1012251342+1012803855+1013923275+1014007563
1391+1013433931+1009980490+1004985146+1004151357+1007254672+1010816930
1379+1013671074+1014873173+1013773167+1013126896+1014494350+1015326434
1368+1015745412+1016433164+1014537820+1011387910+1012030583+1014731777
1356+1015415552+1013300302+1010925652+1010330617+1010857180+1010929346
1344+1010383652+1009021690+1006132315+1004218883+1005160162+1006368417
1333+1006676021+1006875944+1007243970+1007843078+1009234020+1011078128
1321+1011994690+1012834445+1015803751+1019896455+1023272711+1026398566
1310+1029646212+1033218888+1037262819+1040526849+1042742014+1045053589
1298+1048022800+1051328217+1054085761+1055977317+1057408130+1058788275
1287+1060141145+1061131482+1061967828+1063425158+1065494192+1067053805
1275+1067574686+1067594764+1067459240+1066492769+1064037999+1061154401
1263+1059025986+1057507665+1056559946+1057151193+1059589674+1061546198
1252+1061495531+1061323261+1062049085+1062792430+1063716378+1065161776
1240+1066150408+1066185638+1065967247+1065762588+1065299099+1064685217
1229+1064347023+1064489839+1064782574+1064892149+1065587572+1067746482
1217+1069953408+1070445972+1070010799+1069889103+1070361968+1071215929
1205+1072020832+1072628937+1072841835+1072706596+1072168952+1071244340
1194+1071151529+1072432233+1073741823+1073364232+1071736999+1071163367
1182+1071754993+1071521449+1069961931+1068405918+1067878975+1067857288
1171+1067411887+1067274185+1067764287+1066777643+1064192653+1062043782
1159+1060185562+1057955907+1055932805+1054347812+1052945032+1051434192
1148+1049190332+1046312795+1043439994+1039733878+1034919517+1031204972
1136+1029259055+1026301682+1021158502+1015565850+1010212803+1004837026
1124+999036590+992995980+988122711+983737461+977768164+970864217+964655599
1111+959122517+953588582+947710297+942046142+937766394+934432471+930202443
1097+925260608+921223117+918178047+915591541+913457728+911850289+910623945
1084+909250429+907604635+906092754+905070691+904605591+903998623+902853726
1070+902248557+902687328+902824651+902154704+901891706+902403495+902972108
1057+903338998+903461831+903037171+902675206+903697743+905269194+905511166
1043+905303288+905816497+906215303+906415795+907228085+908611640+909596389
1030+909589760+909886094+911347023+912163480+911789298+912205435+913005224
1016+912919800+913395506+914572413+914928506+914758983+914941386+915737766
1003+916501757+916326930+915787865+915259503+914360841+913438692+912655097
989+912011099+911424303+909995858+907556998+905226955+903559851+901934797
976+899738194+897344793+895422364+893592272+891276150+888800071+886254384
962+883718356+882278546+882361887+882909948+883162623+883301651+884034578
949+885832754+887776209+889000279+889978967+891356082+893357402+895641228
935+898052245+900741033+903531724+906591000+909713067+912402044+915067913
922+917663416+919425888+920056912+919719854+919306559+919586604+919690590
908+918681123+917188278+916019894+914908524+913251459+911517777+910613149
895+910031940+908636074+906501030+904532005+903096930+902108014+901713375
881+901868030+901997303+901931672+902945306+906061596+909828134+913141790
868+917423243+923231919+929298667+935589016+942987705+950156923+954939842
854+956933585+956451344+954682148+952878005+950972623+949034187+947684632
841+948037316+950823272+955093170+958930833+960009625+957805445+955010019
827+953703176+953550131+954831404+958457399+962469983+964296760+965596311
814+968943113+972855877+974226078+973778026+975251456+979157022+982177185
800+983044310+983788507+985792384+989156518+993362490+997686466+1002171536
787+1006429881+1011022915+1017111351+1022808464+1026995685+1030480569
775+1031879181+1031569589+1033308290+1036194634+1035435663+1032957311
764+1033554619+1035947168+1038141782+1039928404+1039348900+1037287726
752+1038179475+1042242157+1045775341+1047652596+1048841815+1049233707
741+1049490170+1050437416+1049512899+1045068647+1040030212+1037257894
729+1037612282+1039914671+1040013923+1036680568+1034964218+1036096424
718+1035271822+1031453574+1027239457+1025094753+1025322236+1026030729
706+1027474895+1029943872+1031605482+1032125132+1032216997+1032431315
694+1033194643+1034893852+1038176160+1041023296+1040830854+1040306658
683+1041378347+1040223601+1034435760+1028574996+1028983178+1034733704
671+1038393320+1033845649+1025422056+1024552469+1029329043+1036844030
660+1040868641+1037217833+1035355731+1037298901+1036709264+1035663903
648+1035838067+1034978803+1033658701+1030998324+1023505498+1015031047
637+1014455616+1022047978+1029634563+1031933448+1030729266+1028714024
625+1024322429+1015114293+1005895078+1006942522+1017834334+1023405299
613+1016639433+1007711532+1006820541+1013336763+1016776567+1010637084
602+1001361140+999122488
##END=
