##TITLE=Sample description
##JCAMP-DX=4.24
##DATA TYPE=INFRARED SPECTRUM
##DATE=24/8/2023
##SAMPLING PROCEDURE=Instrument type and / or accessory
##ORIGIN=Default
##XUNITS=1/CM
##YUNITS=ABSORBANCE
##RESOLUTION=4
##FIRSTX=4397.6552
##LASTX=599.8556
##DELTAX=-1.9287962
##MAXY=1.4387163
##MINY=0.44727218
##XFACTOR=1
##YFACTOR=1.339909e-009
##NPOINTS=1970
##FIRSTY=0.69418991
##XYDATA=(X++(Y..Y))
4398+518087367+517911477+518039680+517805604+517603202+517666013+517316146
4384+516347594+515490785+515420233+515672948+515507778+515071389+515023836
4371+515440029+515849861+515907112+515250838+514316094+513842872+513488067
4357+513250166+513697320+514585979+515283222+515213738+514281396+513510576
4344+513533485+513768450+513787222+513562666+513335397+513314312+513252701
4330+513107105+512890823+512699274+512727166+512410172+511829699+512041488
4317+512376587+511283390+509520218+509090279+509975246+510823914+511365241
4303+511461860+510819599+510207853+510066572+509672843+508796640+508069013
4290+507778710+507955001+508600954+509464658+510366528+510906832+510670533
4276+510093663+510076848+510260701+509236098+507624172+507388896+508371594
4263+509026133+508948642+508481870+508148507+508676355+509232050+508752957
4249+507960917+507237784+506557088+506232710+506145743+506326393+507034758
4236+507936584+508155891+507258113+506182398+506278662+506774882+505977593
4222+504697830+504310018+504612287+505247387+505896588+506261447+505895476
4209+504243737+502206009+501488436+502403652+503412596+503284882+502816731
4195+502642443+502279719+501944976+502200449+502527318+502440351+502692220
4182+503414019+503799696+503594180+503150362+502924294+502501339+501949870
4168+502032877+501938126+501200268+500531227+499959562+499803779+500734431
4155+502005386+502317086+501605741+500626245+500291769+500539813+500277445
4141+499791546+499819659+499568369+498686605+498208490+498413028+498448259
4128+498187493+498070411+498167965+498723838+499875309+500980383+501301692
4114+500870997+500519973+500863212+501011522+499739054+497823613+496908575
4101+496864269+496621964+496487400+497068896+497462803+497105773+496859732
4087+497056974+497245809+497489938+497924548+497910046+497197722+496731573
4074+496962802+497112090+496606617+495766802+495202699+495228278+495560574
4060+495784418+495986909+495966669+495456837+495192112+495512753+495847808
4047+495777300+495165688+494502208+494153720+493897180+494100517+494687974
4033+494787084+494517777+493973692+493062480+492738814+493415373+494364085
4020+494490553+493439438+492550957+492789837+493297223+493008610+492561144
4006+492988726+493319020+492487701+491615501+492089568+493038993+492907631
3993+492207540+492039969+492365770+492642639+492724001+493026092+493255897
3979+492839926+492173955+491756160+491732628+491619638+490771549+489864385
3966+489919456+490359181+489854242+488775236+488490404+489024836+489573192
3952+489638806+489136047+488807709+489400416+489792143+489325015+489466030
3939+490303309+490711184+490204154+488728261+487664868+488502904+489686715
3925+488946233+487747075+488218473+488641294+487901969+487780794+488607442
3912+489155219+489647080+490020657+488284265+484743064+483101289+483286387
3898+484258899+486875765+489297702+487981150+485602497+487022829+488211756
3885+486709394+485992978+484902005+484634389+487046584+488000278+486373273
3871+483871843+482151020+483583808+484597734+483149510+483474600+486294358
3858+488772700+487434530+479072586+475130583+479974546+485012860+487623987
3844+487549076+485669401+483515881+481159691+480309912+481824062+483647331
3831+485331321+486575364+485987996+484734790+482839456+479264891+479168761
3817+480667697+481083757+484012857+487615447+488323455+485787951+484389415
3804+484487636+481512673+479869163+482383716+484975315+486728789+487716159
3790+487965047+488296765+488538447+488684666+489116340+487999834+485761661
3777+485868333+487445651+488119407+486945694+485267932+484576649+484396043
3763+485386215+486254767+485089862+484531275+485643066+485215040+480677973
3750+477475296+479986290+481378108+479673878+481356089+485075760+485931590
3736+481555822+476668755+477665287+482002977+485207834+485322380+483707296
3723+483036342+483763924+485314907+487253213+488470431+486476342+482295637
3709+481942300+484122777+485761305+485704899+484495643+484774870+486366066
3696+487649566+488025234+486570515+483041369+481683892+483908186+486389554
3682+487449032+487319227+486136395+481332067+476903275+477934950+477209370
3669+474817282+476559635+479216359+479826325+479427347+479053948+477371826
3655+476111725+477515198+476493710+468468200+463957201+466657074+469022694
3642+468347915+465858184+463044698+460163063+458046198+457095750+452832038
3628+443947229+440900335+441989039+441863460+438239118+432548668+429953999
3615+428883311+426996518+425352074+422533206+418980483+417925276+417903434
3601+416392443+414073487+411788116+408946427+406928272+407004874+406137212
3588+401491381+397884788+397888925+398063970+397298132+396405292+395599818
3574+394301416+392424765+390227785+386358024+381305119+379524376+379976201
3561+379893950+379641458+379541992+378369169+376265204+375363645+375803059
3547+375337711+373425784+372111234+372115816+372293997+371977782+371405672
3534+370691947+369504132+367839671+366511998+365649163+364020978+361998130
3520+361357003+361854135+362309541+362299021+361594882+360294167+359188336
3507+358762735+357915201+356332279+355654809+355629631+355023535+354307363
3493+354073866+353800778+353069593+352287206+351672080+350885713+350049323
3480+349726390+349623209+349107639+348461085+347965331+347384258+346783678
3466+346411324+346042617+345304026+344425665+343751620+343283536+342787960
3453+342121856+341804328+341893163+341627971+341014246+340493782+340121361
3439+339893180+339863798+339926988+339626653+339048494+338742532+338372624
3426+337808722+337859367+338333367+338440952+338191196+337609522+337019374
3412+336766548+336477624+336384763+336992728+337664326+337798624+337980453
3399+338519422+338836037+338792754+338716086+338754698+339076029+339569113
3385+339597071+339436239+340138910+341491405+342788161+343949107+345030337
3372+345912235+346328650+346639127+347567110+349153413+350825948+352105311
3358+353400621+355138971+356735616+358015735+359540495+361150152+362303714
3345+362940259+363478227+364531121+366012509+367243362+367949547+368311558
3331+368549215+368726439+368846324+368861048+368817810+368859046+368839384
3318+368810781+369077574+369365164+369178909+368680087+368593098+369064385
3304+369353042+369190208+368989985+369098838+369733782+370561898+370995084
3291+371323866+372139549+373148937+373912218+374844916+376085266+376928596
3277+377376017+377959381+378594036+379464590+380975225+382269001+382438352
3264+382084926+381852096+382025361+382887597+383918516+384579238+384885689
3250+385018385+385227950+385465361+385998592+387336452+388707185+388946509
3237+388504693+388443260+388756740+388968173+388985744+389216528+389890150
3223+390437260+390377340+390219110+390686772+391383037+391536240+391365732
3210+391374006+391708616+392264000+392695718+392894606+392952480+392803903
3196+392688022+393150301+394241763+395363207+395923217+395963298+395914854
3183+395973618+396087853+396214232+396412498+396819528+397319395+397680295
3169+398255474+399140841+399489285+399177452+399088083+399502275+400064064
3156+400642358+401192582+401625501+401966338+402080262+402039114+402200591
3142+402421677+402200502+401591604+401325945+401631729+402128216+402696545
3129+403146768+403197747+403039695+403123681+403388628+403405176+403066919
3115+402523368+402315182+402736313+403284268+403636049+403777820+403759448
3102+403804421+404155667+404725776+404899442+404555580+404332670+404445526
3088+404748596+405278357+405835120+406050690+406138947+406425958+406638503
3075+406574713+406504739+406588325+406600914+406565104+406788014+407012481
3061+406897578+406770220+406847178+406882320+406851582+406847623+406754429
3047+406778005+407163816+407496690+407396379+407088816+407055275+407344332
3034+407270756+406713058+406441928+406555362+406721066+407076627+407641708
3020+408068267+408169290+408132235+408199673+408418979+408695270+408919381
3007+409168581+409505904+409770273+409888333+409959997+410274500+410948968
2993+411608445+412289407+413200575+413989412+414652536+415481853+416306944
2980+416897115+417320692+417630747+417864689+418155437+418303391+418040579
2966+417378477+416595157+416210503+416137949+415848046+415486391+415708366
2953+416445824+416754099+416591776+416814508+417486707+418105926+418288088
2939+417942313+417511262+417388486+417481814+417576254+417485061+417242667
2926+417175719+417432926+417543202+416909704+415889995+415230563+415080073
2912+415425092+416116730+416808681+417481992+418023408+418045294+417836219
2899+417888488+418209084+418990492+419910023+419920833+419169140+418950101
2885+419579506+420106509+420084045+419968342+420095522+420527640+420871547
2872+420552996+420064828+420192497+420671902+421099617+421504511+421837653
2858+421883204+421549662+421096992+420594366+419865272+419296009+419407753
2845+419999036+420627996+421226663+421868613+422539968+423166037+423586767
2831+423731118+423923779+424462882+424924093+424966931+425069956+425552965
2818+426268892+427084686+427806485+428301726+428620677+428813160+428919788
2804+429004041+429206711+429630689+430038207+430241945+430490388+430950043
2791+431518282+432023133+432337413+432507297+432591283+432802405+433362949
2777+433906990+434023760+433996581+434285105+434776609+435124164+435297162
2764+435385018+435525633+435862021+436483019+437391741+438193478+438559181
2750+438661940+438626441+438595747+438974263+439656960+440010564+439973642
2737+440147620+440723155+441225069+441621778+442148915+442374494+442436682
2723+443082814+443995539+444683352+445323790+445783889+445939005+446264450
2710+447016276+447658760+447647016+447404934+447609205+448196439+448898576
2696+449481985+449707164+449802182+450111435+450639773+451252541+451762329
2683+452101387+452380792+452633595+452830170+452928791+452912599+452947875
2669+453195785+453558686+453793963+453908998+454115583+454365049+454518653
2656+454546900+454509890+454578351+454757488+455063450+455559270+456049084
2642+456475197+456892725+457160297+457294950+457455315+457723510+458120397
2629+458500291+458751404+458975204+459346068+459953720+460626053+461195138
2615+461704837+462149500+462587891+463246567+464102085+464801019+465231136
2602+465625888+466072420+466445152+466739681+467220198+467929853+468432924
2588+468649339+469098095+469795650+470183418+470368116+470850635+471494764
2575+471943742+472206688+472487383+472816254+473053220+473251886+473566256
2561+473903000+474226355+474746330+475350958+475732898+475941795+476204341
2548+476679075+477282190+477803589+478240645+478575343+478791491+479116136
2534+479438958+479487267+479749234+480534556+481142832+481201507+481348526
2521+481972371+482572284+482879892+483100755+483264412+483470552+483825624
2507+484324157+484971490+485521491+485803921+486064419+486464420+486863443
2494+487159618+487323142+487353213+487467448+487848632+488236000+488281907
2480+488092494+487952280+487845830+487672119+487614112+487779193+487970563
2467+488155172+488359888+488419941+488190937+487798143+487699966+487875767
2453+487770162+487362199+486904946+486491778+486331368+486354723+486177809
2440+485770424+485394266+485121534+484884523+484659078+484337013+483831540
2426+483279581+482868637+482684829+482565789+482320193+481978288+481419078
2413+480625838+480034377+479834421+479658976+479307418+478881572+478312887
2399+477708393+477271737+476776584+476017507+475223422+474757985+474556472
2386+474107672+473043034+471425770+469371449+466693729+463399548+459874672
2372+456313809+452745161+449294084+445903373+442725028+440511188+439438632
2359+439171594+439863989+441873781+445330951+449349601+451966066+451587062
2345+448479403+445056885+442937484+442197892+442716621+443720494+444372942
2332+444551812+444686332+445230551+446197279+447063741+447804846+449050089
2318+450841064+452545294+453558019+454036579+454638404+455510293+456380046
2305+457091524+457592504+457836589+458043039+458458877+458946734+459368932
2291+459752919+460189753+460768091+461339000+461627034+461670006+461837489
2278+462157240+462270986+462166182+462149456+462421876+462926237+463390073
2264+463719611+464103909+464579933+465026776+465508984+466117348+466753204
2251+467353740+467945556+468476652+468954856+469500809+470089245+470665892
2237+471320120+472022746+472738362+473564921+474313811+474754114+475069106
2224+475434276+475920087+476669244+477673473+478738778+479579928+480128105
2210+480733667+481643901+482708139+483679760+484450136+485221090+486258948
2197+487360953+488276080+489195522+490247259+491323953+492405939+493549670
2183+494592600+495373874+496245584+497454707+498780155+500088343+501259565
2170+502286703+503318156+504256237+505176079+506404329+507815054+508967503
2156+509813457+510681565+511695402+512597806+513115468+513416403+513889980
2143+514488292+514884245+514913159+514574146+513961244+513303947+512822985
2129+512358482+511668222+510738994+509540236+508179779+506767498+505137200
2116+503302809+501593330+500080158+498488161+496761289+494922449+492836723
2102+490674262+488602015+486486084+484421444+482617480+481041319+479416804
2089+477458347+475329160+473430446+471832399+470213044+468339596+466463524
2075+464876287+463474726+462011955+460429656+458740639+456906560+455155221
2062+453680439+452237553+450671401+449062322+447501598+446059735+444666404
2048+443278144+441882366+440366259+438851219+437569544+436412912+435134039
2035+433700361+432277404+430976777+429698705+428375258+427103235+425894425
2021+424690240+423455139+422174486+420992099+419934756+418804326+417619893
2008+416547603+415591462+414667082+413681582+412602531+411514672+410506129
1994+409490156+408326942+407198424+406273600+405433473+404655936+403932847
1981+403194588+402396722+401550100+400781371+400098806+399300628+398210101
1967+397010987+396184917+395767034+395343501+394677396+393820765+392947809
1954+392215067+391616890+390981612+390163461+389162479+387948286+386816032
1940+386417810+386458246+386280132+385824215+385214115+384570786+383904236
1927+383119804+382153565+381221267+380661657+380043372+379324821+379194571
1913+379206226+378749063+378128777+377669078+377311070+377046434+376909556
1900+376775437+376425792+375816671+375281438+374846873+374164976+373757502
1886+373933881+373941755+373626363+373345579+373199538+373081210+372921935
1873+372634679+371480561+369410627+368696457+369772594+370741324+370957828
1859+370780515+370536586+370351021+370183850+370040344+369803155+369105866
1846+367633087+366230903+366595095+367646855+367874213+367694453+367718140
1832+367036688+365034681+363755119+364028896+364278229+364537371+365029833
1819+365168601+364849694+364317576+363526448+362537255+362028157+362119994
1805+362168993+361590433+360193254+358961935+358745163+358564669+357254546
1792+355828719+356468111+357864089+358221141+357550343+356499940+355578407
1778+355292241+355045621+353453935+350736179+350279750+352153065+353638700
1765+354029671+353278690+352365854+352495659+352820326+353089811+353024397
1751+351379775+349056393+348740089+349693405+350121921+349643027+349019227
1738+349082705+348481503+345942439+345252002+347228853+349286732+350445253
1724+350458621+349978682+348965512+345810611+342291918+343496837+346637881
1711+348506236+348539777+346903518+345186721+344852023+343570836+340574943
1697+339861085+341804973+344684073+346491573+346461925+345395552+342837049
1684+339351519+340395783+343311805+344774042+344081224+342488071+341485711
1670+340257282+340372007+342400927+343177397+342225415+342250837+343146324
1657+342891697+339684549+333807888+333864272+335645860+335404312+336818550
1643+340135018+342113315+342077549+340315112+339488864+343624084+348671583
1630+352090698+354591038+357125631+359987938+364000871+368202772+370978847
1616+374078544+379587410+385027059+389100113+392674188+396631582+400555925
1603+404287251+408172982+412060848+415610946+419028526+422650333+426439355
1589+430453066+434659972+438747927+442435348+445659422+448250977+450079496
1576+453303258+458922490+463550216+467008320+471610868+477121781+482078866
1562+485487149+486117044+487552902+495748074+504343025+511731968+518169618
1549+524145300+528957679+531952927+532982467+533929489+542924575+554379675
1535+562033120+568789455+576768479+583660222+588831499+593411671+597482456
1522+602332557+609669720+617808086+626405039+634651235+640955610+644734535
1508+646221282+651622809+663007002+671918946+678073944+682765104+687977884
1495+694842849+701027518+705302751+709854008+717675692+726238303+733237298
1481+739448702+745465666+750457716+753706479+756487714+763016023+772462221
1468+780333505+785793839+791353017+798241291+803957765+806838555+812156719
1454+823416979+834718254+843854487+850822921+857869559+866470204+875487220
1441+883782437+890644643+897093592+905722707+915279671+923632540+931694660
1427+939863453+946356797+951526117+956381912+960297047+964926240+971889870
1414+978132146+982009291+985398713+988757084+990091074+989887337+990802285
1400+992264122+993186989+994098290+995480233+998320810+1000340922+999232378
1387+996872853+996203189+997898389+1000987454+1003510058+1004324206+1004057035
1373+1004872340+1007466474+1009184272+1009905982+1011966308+1012848695
1362+1010512479+1009452511+1010526980+1011348869+1011310612+1010442905
1350+1009002777+1007981155+1008177152+1009345661+1008831602+1004791645
1339+1001908809+1003647692+1006107040+1006321809+1005347608+1005431149
1327+1006839337+1009018258+1011284278+1011842998+1011467107+1013863466
1315+1018669706+1022532527+1025638229+1029307100+1032755330+1035381315
1304+1037783723+1040345652+1042950996+1046092197+1050071388+1054336435
1292+1057640002+1059024881+1060002464+1062251402+1064740910+1066075166
1281+1066874546+1067795277+1067689227+1066571698+1066390292+1067528818
1269+1068034335+1066795898+1064716978+1062060120+1058977283+1057362421
1258+1058393652+1060834405+1062464570+1062580940+1062595353+1063114482
1246+1063389928+1063507099+1063755854+1064041353+1064296336+1063848470
1234+1062585567+1061783518+1062097665+1063001137+1064660839+1066972766
1223+1068052929+1067430864+1066699634+1066396786+1066431840+1067249902
1211+1068320012+1068699105+1069100263+1070180515+1071273578+1071580607
1200+1071298489+1071744932+1072473937+1071866106+1071136300+1071811480
1188+1072706856+1072637372+1071939327+1071539148+1072144132+1073335505
1177+1073741823+1072862194+1072349026+1072699916+1071640038+1068784604
1165+1066495541+1066255683+1066608620+1066150878+1066139223+1066076056
1153+1064376941+1062158519+1060671238+1059799972+1058279772+1055021668
1142+1051316854+1048940691+1047840689+1046888818+1044789791+1041670032
1130+1038890933+1035919306+1031995452+1028137257+1024307799+1020015617
1119+1015384644+1009861943+1004348851+1000786920+998776149+996993316+994131831
1105+989291961+983937766+979314711+974972263+970662376+966486031+963256930
1092+962029080+961331480+958268661+953557083+950230028+948506625+946226904
1078+942204740+937320653+932892528+929043052+924937970+920718920+917477186
1065+914708851+911263646+907224223+903128483+899129363+894845633+891111192
1051+889406384+888435118+886417230+884458951+883076652+881029761+879186429
1038+878842211+878396035+876395318+874125295+873131431+872603227+870948774
1024+868684711+867239601+866547962+866230701+866763710+867103657+865489418
1011+863420996+863433719+865153563+866551965+866895116+867056059+867373142
997+867566381+867984709+868729017+869250193+869147613+868138446+866446983
984+865267443+864783989+863312188+860379174+857453988+855173377+853101575
970+851022032+849053700+847517664+846251112+844686429+842924591+841478502
957+840573073+840025029+840065687+841519072+844043544+846642928+849498274
943+852974617+856679342+860219031+863454715+866616200+870339609+874516488
930+878503242+882178963+885689737+889512256+893130059+895087003+895865653
916+896634605+897446885+898471265+899274203+899175715+899180252+899420644
903+898017972+895172057+892888688+891239929+889200155+887037338+885813581
889+885894898+886086802+884942582+882936260+881252359+880554493+880557784
876+880103691+879814900+880846130+882681366+885020607+887784493+890645622
862+893906662+898160855+903136935+907316750+910253413+913706446+918144358
849+921863674+924647400+927960576+932269572+936055258+938031242+940391568
835+945329748+950187412+951866954+952134837+953668649+955771323+957154690
822+959005673+962851769+967739059+972254373+976407675+980010265+982836251
808+986161793+990418477+992591169+991925509+992408962+995594736+1000222505
795+1005832573+1011500826+1015514449+1017518813+1018936344+1022371495
783+1028778451+1034112273+1036736656+1040921454+1045853050+1046855722
772+1045350736+1045480095+1047086683+1048094159+1048503413+1048485263
760+1048348608+1049807687+1053033318+1055587773+1056386440+1056824964
748+1055879766+1052487142+1050934736+1051565342+1049060443+1046257233
737+1047133302+1047425474+1046926185+1049806441+1054422734+1054629229
725+1048438911+1040993162+1036792529+1036468684+1037359968+1035976067
714+1033743944+1034659783+1038466732+1039515400+1035716903+1032629973
702+1032699102+1033677040+1034067255+1032612891+1029806390+1026860474
691+1024056731+1024105930+1028557276+1033879710+1037183010+1039689778
679+1042686138+1042550817+1036401602+1031314756+1033919478+1041110956
667+1046008744+1046152606+1045227604+1045301714+1046222802+1047902344
656+1046542020+1040066025+1037339861+1039869494+1039487553+1040422698
644+1047162306+1047244869+1036567973+1029180765+1027449444+1024150859
633+1021244891+1025728087+1037922247+1052503334+1058898013+1044309185
621+1021864376+1009728313+1003643066+1010802871+1038449205+1060398461
609+1061975245+1061865814+1056749164+1039338798+1030851143+1033005508
##END=
