##TITLE=Sample description
##JCAMP-DX=4.24
##DATA TYPE=INFRARED SPECTRUM
##DATE=24/8/2023
##SAMPLING PROCEDURE=Instrument type and / or accessory
##ORIGIN=Default
##XUNITS=1/CM
##YUNITS=ABSORBANCE
##RESOLUTION=4
##FIRSTX=4397.6552
##LASTX=599.8556
##DELTAX=-1.9287962
##MAXY=1.3852296
##MINY=0.33819011
##XFACTOR=1
##YFACTOR=1.2900956e-009
##NPOINTS=1970
##FIRSTY=0.43080452
##XYDATA=(X++(Y..Y))
4398+333932249+334019616+333931671+333655016+333425347+333399497+333689898
4384+333922293+333667744+333285725+332750316+332089978+331945852+331953614
4371+331466070+330887393+330543098+330347457+330537554+330825622+330597455
4357+330495695+331121128+331751320+331645217+331123045+330935859+330827308
4344+330498675+330534366+330654837+330018824+329022299+328766249+329434303
4330+330245882+330693554+330704134+330435125+330337316+330673456+331296972
4317+331486029+330486108+328911854+328052802+328346737+329515156+330684753
4303+330969702+330607896+330429396+330515793+330027140+328778562+327907428
4290+328049221+328466793+328505001+328551919+328844353+329009732+329049142
4276+328975012+328572756+328163224+328327772+328709144+328584538+328290833
4263+328018682+327427970+326953963+327272824+328333339+329136001+328869117
4249+328042453+327483112+327599078+328243292+328626420+328498441+328403381
4236+328440619+328312802+327893036+327422934+327586765+328240081+328422346
4222+328260502+328167914+327722136+327048677+326665110+326664971+327247182
4209+328074240+328346760+328333847+328610226+328787525+328482986+328012953
4195+327689795+327598269+327725162+327653296+327273564+327291398+327731215
4182+327817011+327380174+326695534+326213373+326342830+326621010+326586036
4168+326721800+327214079+327499213+327350259+327001736+326758807+326944677
4155+327494477+327743551+327230781+326492570+326120276+325796310+325359495
4141+325279497+325858128+326761972+326984826+326326613+326068484+326606896
4128+326923678+326700801+326421904+326259528+326179276+326203601+326256155
4114+326093040+325708965+325596071+325851382+325860669+325531990+325577960
4101+325946973+325801969+325399853+325298024+325151634+325006399+325018942
4087+324854072+324649721+324817849+325214006+325441480+325273029+324574320
4074+323934934+324009157+324266201+324417535+324621815+324336104+323589345
4060+323353116+323603668+323465479+323136961+323198710+323258587+323029011
4047+322980176+323293701+323511311+323476613+323439929+323433184+323446767
4033+323384256+323010276+322585336+322550430+322749052+322774393+322513169
4020+322134476+321995709+322229559+322435873+322405842+322280474+321942277
4006+321602972+321635936+321846177+322102066+322145865+321723604+321323220
3993+321125061+320867671+320719825+320713080+320618690+320417504+320277005
3979+320485629+321012860+321508189+321775581+321631062+321080776+320754431
3966+321164448+321497655+320914866+320457515+320952243+321554159+321565017
3952+321211689+320583138+319808312+319779597+319850448+319092092+319154026
3939+320291790+320831541+320217220+318618663+317594048+318716149+320083582
3925+319461221+318170899+318063550+318203125+317772155+317924043+319313699
3912+320910916+322010517+322240232+320412977+316903932+314585068+314169044
3898+315599611+318333830+319840353+318519861+317490417+318570637+317974773
3885+315819555+315595823+315801328+316742296+318485533+318199082+316859463
3871+315917826+315158962+316187783+316701684+315533358+315794652+317347146
3858+318460538+316847266+309876765+307846754+313453079+318316481+319951583
3844+319043257+317250954+314870895+312164998+312169919+314271450+315662931
3831+316736659+318067800+319008629+319930815+318895181+314814968+314571184
3817+316019724+315533335+317504139+320984446+322089106+319799880+318267507
3804+318227704+316012955+315418685+317501321+319097683+320899966+322633085
3790+323387721+323590685+323302802+323098822+323553724+322879040+321510614
3777+322255178+323993195+324577369+323323131+322085595+322165131+322408683
3763+323101848+323174777+321673891+321575736+322952085+322058243+317451769
3750+315744523+319349806+320872730+318924103+320337714+323551922+323747124
3736+319927420+317143049+319414858+324155224+328343249+330053337+329708672
3723+329757923+331154393+333951538+337671424+340932434+342297834+345412778
3709+356668789+373313516+392378012+415123862+442234250+467776829+487607534
3696+502015820+511085774+514766573+512184081+506680393+503458469+499632134
3682+492628553+483320014+472912613+458456462+445037401+439466397+431574911
3669+423022463+421453082+420838830+417736061+414206203+411405084+407187467
3655+403125966+401522905+397006408+386019337+380399544+383158457+386107490
3642+386427160+385372328+384457419+383314827+381495079+379216410+373886256
3628+367462298+368251354+371819814+373286418+370599880+365326739+363497012
3615+364551913+365396665+365267670+363396523+361689230+362546273+363314145
3601+361861540+360068774+359053676+357457268+356124463+356396892+355597787
3588+351589579+348896965+349514405+349988343+348926396+347438377+345983785
3574+344426971+343399168+342090273+338005393+333060261+332662002+334148519
3561+333742545+332241936+331330214+330395923+328605860+326877684+325617717
3547+323702932+321428075+320511872+320758566+320453149+318834495+317146330
3534+316355541+315219071+313001342+311042758+309961245+308909624+307950084
3520+307442881+306878088+306030194+304849024+303191306+301447976+300014729
3507+298789459+297146641+295323498+294819576+295177524+294723523+293426363
3493+292005845+290648230+289320947+288172372+287659163+287243047+285848332
3480+284233259+283290743+282571590+281835805+281002972+279920304+278689028
3466+277441489+276149250+274796232+273590783+272524863+271702287+271536215
3453+271669461+271399990+270522365+269163572+267759386+266688799+266301490
3439+266358226+265901499+264929276+264137055+263750485+263613127+263417001
3426+263066954+262564117+262143450+262228023+262500451+262678813+263115234
3412+263877979+264788083+265516846+265835962+266043916+266419212+267217070
3399+268398471+269473632+270183290+270385492+270565332+271376080+272154418
3385+272411692+272778002+273639364+275199666+277120895+278212042+278575049
3372+279137508+279796622+280459848+281185862+281845877+282682336+283661951
3358+284510215+285452037+286436388+287069744+287745052+288720717+289468284
3345+289891838+290271293+290860319+291600448+291882417+291687792+291457499
3331+291047390+290603622+290504727+290198572+289360934+288445401+287474864
3318+286559585+286204548+286336846+286482959+286593774+286902032+287185526
3304+287175639+287339978+288204159+289537979+290919457+292309459+293650695
3291+294833506+296069448+297498860+298759336+299567404+300161882+300682760
3277+300920144+300848601+300812956+300994899+301175663+301197170+300952809
3264+300337980+299676117+299504639+299736757+299692634+299142371+298363687
3250+297681611+297500986+297682974+297693000+297575209+297506807+297492323
3237+297516094+297194945+296592128+296401338+296376528+296026042+295831532
3223+295877919+295828067+295730212+295456143+295090665+294987820+295152714
3210+295392593+295313819+294808672+294427508+294708923+295517869+296190635
3196+296408061+296349431+296193130+296098139+296249750+296485079+296549045
3183+296818309+297402830+297719589+297728321+297745485+297783209+297905898
3169+298109924+298244048+298280432+298060881+297492600+296957607+296817085
3156+296958092+297053915+297165469+297441917+297506206+297269515+297187923
3142+297332280+297365915+297170666+297048001+297231121+297457879+297347527
3129+296993413+296947258+297294787+297504566+297610414+297988576+298492174
3115+298819098+298885836+298816834+298841275+299189127+299697208+299772147
3102+299481515+299588010+300264380+301041124+301481149+301330370+301026201
3088+301476298+302419876+302728942+302344544+302241953+302894621+303716158
3075+304134376+304317496+304499231+304420896+303912931+303349454+302885497
3061+302246827+301619431+301416328+301391818+301245266+301223320+301354187
3047+301425614+301538947+301635024+301354903+300909957+300911043+301230805
3034+301283151+301090837+301071571+301128584+300834533+300321994+300219172
3020+300863224+301770418+302073409+301683951+301299622+301427624+301893823
3007+302157519+302244586+302727926+303573671+304309157+305177680+306738721
2993+308794166+310704400+312241115+313637493+315216461+317224549+319396331
2980+320783584+321007454+320787026+320684065+320490064+319955580+319263062
2966+318525128+317761252+317221061+317000471+316825551+316572504+316676504
2953+317189713+317641104+318198181+319068460+320027123+320996066+321779046
2939+322031469+321716397+321120810+320501823+319898336+319296535+318658304
2926+317778000+316629563+315646321+315045029+314560511+313941570+313210197
2912+312707776+312689388+312826376+312622857+312144161+311748559+311547789
2899+311439123+311253045+310995632+310735332+310482354+310480090+310920578
2885+311524504+311780115+311444320+310768274+310160998+309779511+309443739
2872+308903041+308380753+308211563+308142468+308034656+308054708+308000952
2858+307736978+307478780+307275077+306904423+306289317+305663583+305327535
2845+305355626+305532255+305775992+306104394+306351827+306553383+306896592
2831+307327516+307754651+308239099+308720521+309164335+309689694+310053856
2818+310157718+310438994+310969621+311426025+311624022+311587384+311562227
2804+311740520+312055893+312412616+312702971+312816581+312930861+313292805
2791+313797421+314173364+314417194+314781910+315245614+315458373+315422751
2777+315471101+315612571+315740642+315986690+316387328+316800879+317150973
2764+317529134+318008523+318408746+318600737+318826063+319262715+319744830
2750+320146670+320472970+320784854+321184222+321630831+321962883+322191836
2737+322645398+323295988+323738762+324168738+324816579+325271874+325502005
2723+325983773+326590471+327021903+327512034+327881232+327866725+328000663
2710+328508952+328968543+329167996+329197450+329280936+329445253+329428435
2696+329391497+329534607+329516542+329422036+329591874+329776450+329798604
2683+329855247+329952617+330008914+330139549+330277253+330227101+330153987
2669+330323524+330621341+330700831+330529307+330361756+330355242+330554833
2656+330863415+331117270+331318340+331516199+331616041+331585409+331563879
2642+331649191+331811982+331904386+331893274+331950126+332138351+332394378
2629+332673691+332953927+333209007+333512668+333951584+334289111+334364535
2615+334426677+334602659+334846466+335127950+335290811+335275148+335230610
2602+335243939+335265954+335224280+335117808+334938338+334684783+334478584
2588+334342959+334157044+333914392+333677654+333408737+333129563+333021035
2575+333053816+332990889+332784691+332491956+332183999+331992400+331946614
2561+331982259+332013653+331928734+331701491+331474294+331426868+331511579
2548+331582799+331625558+331530660+331278814+331154416+331255483+331458170
2534+331685736+331799254+331746861+331758920+332001525+332245609+332253255
2521+332234520+332473522+332827173+332989364+332996110+333037830+333050004
2507+332970652+332923388+332944017+332926784+332827727+332814675+332950070
2494+333000476+332853554+332589973+332366057+332319277+332346698+332312717
2480+332281646+332378785+332540168+332591036+332606005+332708850+332825741
2467+332901673+332945611+332937826+332801970+332559850+332448065+332614876
2453+332903706+333088998+333164792+333216815+333234372+333261030+333350384
2440+333464341+333603293+333750746+333867520+333988338+334140365+334308447
2426+334449246+334535944+334658540+334907475+335182884+335322782+335356487
2413+335431310+335589551+335816263+336092942+336307249+336410694+336528879
2399+336712900+336921016+337214882+337555388+337731740+337770250+337801805
2386+337671909+337192358+336253077+334786034+332903614+330652019+328005607
2372+325214537+322664202+320452225+318181318+315816667+314034089+313256537
2359+313786240+315750090+318498654+321691425+325413482+328312941+328514750
2345+326117319+323568878+322493487+322738633+323816681+324891218+325385091
2332+325626495+326333520+327452665+328399246+329137041+330099770+331556510
2318+333293441+334820847+335878520+336618371+337374948+338383462+339565048
2305+340546049+341132834+341532410+341941295+342394165+342874131+343297224
2291+343630638+343948322+344300171+344580361+344630351+344521362+344479757
2278+344600251+344884415+345261559+345471269+345402867+345262021+345192834
2264+345236010+345425275+345713782+346024396+346339631+346571794+346543426
2251+346398607+346503485+346879890+347232479+347334238+347261124+347296515
2237+347524150+347710297+347797988+348030429+348412425+348708578+348859427
2224+348943144+348970819+348980775+349062968+349180944+349311210+349502878
2210+349683919+349829224+350017473+350193455+350307042+350458769+350673098
2197+350903483+351162098+351425239+351678102+351920522+352089574+352252620
2183+352571389+353015087+353465346+353898603+354271682+354519924+354681560
2170+354883439+355213689+355633893+356100854+356539748+356900860+357317438
2156+357685666+357834551+358013975+358367742+358759094+359031176+359048686
2143+358873512+358668053+358490916+358253046+357871351+357498202+357172688
2129+356664885+355990294+355317181+354554251+353633035+352674742+351775726
2116+350981888+350244185+349480863+348696496+347803925+346758865+345787081
2102+345016875+344266628+343358372+342367090+341441785+340591674+339844407
2089+339206985+338459834+337515008+336670510+336076818+335519509+334857439
2075+334155080+333552032+333074699+332543656+331865969+331214640+330729430
2062+330323894+329975903+329682938+329316835+328895429+328514242+328168237
2048+327749626+327197100+326650395+326212957+325963306+325887535+325633980
2035+325050152+324450823+324069612+323814949+323502047+323086139+322685848
2021+322360149+321944402+321394348+321002465+320828954+320628000+320313412
2008+319887132+319446021+319147142+318889105+318541899+318180902+317800823
1994+317185139+316369240+315856170+315763373+315701371+315516864+315302765
1981+315101857+314870733+314634088+314461363+314318622+314034828+313420646
1967+312735589+312556927+312727042+312692322+312450317+312143607+311796562
1954+311552594+311428658+311248725+310872944+310284703+309469682+308819670
1940+308936283+309333571+309388967+309325463+309449006+309586341+309517223
1927+309274248+308680810+307960849+307776412+307743909+307742684+308354303
1913+308962687+308813964+308388330+308499700+309036194+309522883+309893190
1900+310157556+310150326+309949025+310027175+310257444+310132330+310229238
1886+310907734+311518567+311972891+312426015+312766591+313022294+313302646
1873+313317107+312309078+310673306+310772755+312595621+314069041+314674445
1859+314920538+315173285+315508941+315749675+315860027+315890359+315600535
1846+314568250+313611066+314533599+316163065+316992986+317392931+317739491
1832+317278513+315922700+315614512+316573937+317453987+318536263+319773591
1819+320497064+320774182+320905441+320666578+320238427+320610558+321667100
1805+322451097+322500001+321908434+321653793+322243143+322644936+322037753
1792+321683247+323516277+325947228+327178388+327335705+327213409+327464354
1778+328389566+328938258+327828192+325819434+326464756+329541722+332261179
1765+333717965+333863894+333900324+334928381+336228336+337625939+338368724
1751+337096143+335302638+336000539+338060235+339642921+340426988+341109664
1738+342340363+342618890+341155150+342053427+345650717+349273255+351821419
1724+353120196+353813823+353641814+351295182+349491951+352824898+357551057
1711+360688963+361809008+361273600+360967883+362009247+362052746+361000478
1697+362670717+367188830+372195619+375525932+377143085+377812848+377049688
1684+376590443+381199989+387196534+391573363+393958203+395558123+397137714
1670+398692402+402705623+408289979+412111093+414828217+418995705+423469926
1657+426039897+425940564+426238981+431600784+436160617+440504965+448846641
1643+457800952+464619634+469406595+472619370+478258060+488911763+498750744
1630+506370333+512855808+518871411+524953130+532397013+539589144+544643336
1616+549985041+557878236+565409210+570910034+575506968+580982196+586755055
1603+591877672+596831606+602038217+607023430+611830488+617043106+622522076
1589+627943988+633340257+638984676+645025275+651088327+656108330+659860927
1576+665669500+674147332+680816459+686186024+693320911+701654686+709430021
1562+715301105+717755202+721272632+732795112+744690902+754640721+763544025
1549+773201434+781847995+787298597+790122632+795608625+813814785+832174335
1535+844178098+856216513+870718034+883064799+892541789+900359029+906996369
1522+915595897+927801377+939617007+951818236+964646700+974239565+979250604
1508+980221210+983325042+996130313+1008801691+1017394566+1021477505+1024872870
1495+1031801558+1037487050+1037905638+1037318137+1042575339+1049203161
1483+1053260043+1055084919+1055496206+1053726588+1047840673+1038889827
1472+1034893285+1038442779+1041457349+1040214246+1038201329+1038919304
1460+1038236904+1028998037+1018906379+1022313479+1028156149+1030638383
1449+1029992853+1028554408+1028276736+1028693937+1029236253+1028526872
1437+1024490597+1022185777+1024807633+1026918035+1027945192+1030116211
1425+1030391481+1028247629+1027093694+1024487270+1021205007+1023626809
1414+1027184897+1027993519+1027997955+1028051364+1027227310+1026453154
1402+1025433112+1020866256+1013942835+1009650509+1008952401+1010718971
1391+1011722749+1008774247+1002786226+999282010+1000409517+1004129957
1379+1007676864+1008340044+1006172074+1004779369+1005286756+1005496050
1368+1005843857+1006230658+1004430731+1002663053+1003760436+1004848764
1356+1004162945+1002895817+1002171004+1002370965+1003023703+1002745661
1344+1001455709+999663914+997420450+996052140+996522658+997658297+998177604
1331+998477361+999882910+1002053190+1003764964+1005153418+1006450670+1007125031
1317+1007931528+1009989630+1013319573+1017376177+1020791040+1023732981
1306+1027319251+1030650396+1033548168+1036812413+1039699374+1042023875
1294+1044456950+1046737560+1048950068+1051667839+1054448721+1056376534
1283+1057098205+1057116593+1057615387+1058954498+1060155281+1060425561
1271+1059761642+1058882331+1058379287+1057737637+1056749012+1055527808
1260+1054018860+1053407981+1054583445+1056620110+1058262027+1059575265
1248+1061282788+1063044090+1064137408+1064248384+1063772322+1063345603
1236+1062572001+1061591508+1061399031+1061826952+1062546128+1064154595
1225+1065943803+1065992962+1064919880+1064867303+1065934470+1066887982
1213+1067116957+1066817478+1066123897+1065497679+1065895661+1066920046
1202+1067219156+1066446755+1065088794+1064073742+1063958792+1063831183
1190+1062680021+1060817537+1059266175+1058582851+1058387326+1057652164
1178+1055751055+1053806055+1053181407+1053524686+1053713467+1053074035
1167+1051913909+1050864021+1049569911+1047668063+1046106352+1045208283
1155+1043968783+1042410768+1041219041+1040189574+1038500624+1036153668
1144+1034597871+1033941992+1032327888+1029608085+1027617899+1026620496
1132+1024742673+1021338438+1018417287+1017214102+1016207921+1013988390
1121+1010997105+1008685355+1008077618+1008553773+1008453423+1006761146
1109+1004573217+1003455412+1003180050+1003304610+1004396449+1006665416
1097+1009042402+1011101059+1013683551+1016365191+1018350572+1020554117
1086+1023989308+1027577426+1029995440+1031920943+1032886559+1032298504
1074+1032673015+1035096203+1037999335+1040011143+1041353396+1044167728
1063+1047835590+1049378451+1049936198+1052019342+1054098881+1054014702
1051+1053901692+1055792729+1057534811+1058434267+1059849148+1060538293
1040+1059824846+1060057611+1062013237+1063298569+1063331280+1063453438
1028+1063007129+1062173465+1062249328+1062752927+1063660791+1064488541
1016+1063443273+1061522298+1061264307+1062629568+1063871656+1063558962
1005+1061542719+1059703521+1059269039+1058897023+1058529257+1059437121
993+1060087272+1058715173+1056503589+1055376082+1056286071+1058327448
982+1059455602+1059133576+1058231903+1056958306+1055183513+1053489019
970+1052281952+1052027843+1052848478+1053276953+1052435989+1050925469
959+1049242710+1047308429+1045013866+1042423982+1039394442+1037501650
947+1038733758+1040629969+1040236423+1039521405+1040549208+1041913730
935+1041851820+1041049296+1041665350+1043646110+1045319075+1046483081
924+1046928743+1046204947+1045269824+1044864727+1044736009+1044735085
912+1044557485+1043939214+1043115345+1042201844+1041165262+1039859232
901+1038624260+1038107909+1037880135+1037724804+1038242818+1038959499
889+1038892507+1038211124+1037944817+1038887609+1039459587+1036845585
878+1032777246+1031601689+1033026920+1034173740+1035303372+1037637668
866+1041153989+1046150891+1050173398+1049718865+1047798629+1048984073
854+1051846455+1053383309+1054228061+1055591752+1056157908+1055856118
843+1057704557+1061815032+1064617167+1065752805+1067108641+1066797241
831+1061996327+1056276923+1055967834+1059665912+1061340817+1061171165
820+1062104347+1062913801+1062160898+1061703963+1064394659+1070086435
808+1073741823+1071620424+1067650402+1067907099+1071589007+1073071344
797+1071561748+1069877141+1069068703+1069196774+1068460319+1066283109
785+1065461827+1065761029+1065055898+1064102757+1063056010+1060833522
773+1059196226+1060018431+1060978503+1059847485+1057671846+1055404542
762+1053189909+1051674215+1051229107+1051250822+1052237044+1054903715
750+1057941941+1060199450+1060462984+1058614915+1056243658+1053653219
739+1051645015+1050502539+1049871516+1050712572+1052031631+1051893488
727+1049842593+1046678052+1045609037+1049793250+1056469400+1058076296
716+1053083367+1047537404+1046050540+1048243736+1050789544+1051329550
704+1050675888+1050879545+1051808107+1050867533+1047864513+1045244228
692+1044204042+1045143046+1046991485+1048307495+1048602354+1046724901
681+1045372391+1048433163+1052808282+1053991786+1052637059+1049636626
669+1043340162+1042102418+1054490025+1064491683+1059794168+1049551615
658+1049269692+1055632317+1055584267+1049094772+1044901319+1047132492
646+1052867051+1052577736+1044827211+1040009572+1037621959+1029187372
635+1024356427+1036535757+1051783158+1051721248+1044316867+1037420243
623+1028513473+1018468017+1012856078+1017765658+1026308542+1026765755
611+1025465546+1029598752+1034950945+1035234901+1032018059+1037543694
600+1053050379
##END=
