##TITLE=Sample description
##JCAMP-DX=4.24
##DATA TYPE=INFRARED SPECTRUM
##DATE=24/8/2023
##SAMPLING PROCEDURE=Instrument type and / or accessory
##ORIGIN=Default
##XUNITS=1/CM
##YUNITS=ABSORBANCE
##RESOLUTION=4
##FIRSTX=4397.6552
##LASTX=599.8556
##DELTAX=-1.9287962
##MAXY=1.2834555
##MINY=0.34132165
##XFACTOR=1
##YFACTOR=1.1953111e-009
##NPOINTS=1970
##FIRSTY=0.48671597
##XYDATA=(X++(Y..Y))
4398+407187705+406694835+406311445+405690970+405080045+405560896+406803068
4384+407529607+407568053+407644297+407688927+406892402+405207102+403514770
4371+402852259+403583684+404680673+405031176+404824110+404617992+404382328
4357+403603157+402530054+402101909+402279879+402357619+401919826+401240859
4344+400791098+400431170+400114849+399815357+399334406+399180770+399619062
4330+400042544+400369037+400927978+401351336+401081963+400637213+400777759
4317+400676856+399716225+398881279+398639382+398952511+399883374+400592035
4303+400391427+399742728+399151026+398943635+399179873+399152148+398557503
4290+398057777+397943186+397657906+397088967+397317899+398791795+399965676
4276+399554362+398542394+398242453+398211213+397527683+396539949+395908579
4263+395465151+395276435+395738139+396554011+397089665+397007313+396410150
4249+395940991+396187750+396472631+396089615+395524217+394798501+394082509
4236+393968766+394030998+394033242+394211460+394664338+395241305+395390527
4222+395484125+395843355+395628834+394927627+394276734+393755616+393632798
4209+393341509+392596844+392572086+393487091+394052814+393871927+394152918
4195+395050795+395187052+394645190+394278305+393857416+393523567+393698420
4182+393950989+394006564+393707770+392845548+392223078+392191489+392182687
4168+392384368+392697348+392497512+392195228+392319568+392646934+392945179
4155+392768356+392171966+392192860+392504693+392120031+391618436+391474699
4141+391299322+391135415+391351706+391460786+390626214+389560865+389625989
4128+390573756+391143867+391029650+390797302+390583729+390286307+390040047
4114+389872698+389787404+389779126+389536531+388999705+388683210+388819167
4101+388904961+388458790+387985717+388130477+388465747+388624368+388740804
4087+388628208+388291417+387929145+387550991+387315926+387169371+386841980
4074+386313656+385808420+385716269+385818718+385426950+384788598+384654485
4060+385061262+385431737+385207792+384423883+383501872+382952256+383339835
4047+384094547+384000102+383389102+383098262+383068392+383148676+383186872
4033+382947618+382326670+381388103+380546999+380378529+380899996+381477936
4020+381692232+381539919+381151866+380943404+381184254+381293633+380875388
4006+380647777+380903138+380959685+380500425+380012317+380027726+380250749
3993+380074126+379561485+379207316+379107610+378738033+377900818+377221502
3979+377349980+377970380+378119029+377755560+377602473+377743443+377823751
3966+377650693+377250748+377173007+377813454+378487484+378674280+378376533
3952+377245936+375334546+374268424+375272663+376425176+376080307+375954597
3939+376913583+377512591+377032113+375920364+375220154+375474468+375380197
3925+374316469+374106062+374704920+373865312+372281562+372919690+375363268
3912+377013737+376986411+375400767+372099753+368609850+367150265+367782683
3898+370741021+374277973+375135982+372775454+371600975+373119475+373053130
3885+371155353+370576914+370216388+370991620+373016104+373112769+371582450
3871+369778744+368793155+370228256+370722721+369456963+370110399+372180485
3858+373464369+371364987+363694020+362135204+368552006+373751195+375129599
3844+373360899+370742667+368471124+366776075+367533655+369792033+371427368
3831+372751519+374015182+374598832+374597685+372187890+367026748+366636826
3817+369570332+371743191+374798568+377528947+377392565+374661712+373698039
3804+374161288+372349978+372209332+374780840+376976638+379184178+381130549
3790+381811835+381499677+380706095+380261121+380421538+379542935+378787474
3777+380640621+382857362+383217340+381724695+380401392+380465295+381071732
3763+382308519+382630325+380999876+380928868+382927548+382690737+377862322
3750+375039343+378107360+381041988+381707940+384167924+387527455+387760775
3736+383991824+382954001+388824204+395806205+400133149+402151575+404199148
3723+408688553+416428109+426731045+437627031+447350232+456504868+470064512
3709+489207035+507703652+523227294+536529533+549267546+562315372+574378955
3696+583663440+588491357+588371480+584127737+580492600+580878907+581502773
3682+579767308+576119506+571083800+562193301+554736083+554083594+550685418
3669+546105781+547295968+548990344+548151010+546330823+544288437+540443916
3655+537093660+536088574+531591863+521418577+518406259+523473629+528436631
3642+531380683+532853956+532978519+532271179+532113156+532308129+529062242
3628+524076053+526172992+531117643+533474580+531350913+527524144+527491383
3615+529497267+530420475+529800748+527572962+526523047+528553715+530116246
3601+529048329+528027336+528584731+528511329+528109165+529056158+528916834
3588+525755319+524451888+527421970+531100340+532677283+532193987+531740861
3574+532592113+534013176+534162124+530710343+525829818+526836800+532170700
3561+536620537+538636695+539006596+538610465+538411503+539194190+540446060
3547+541141882+541988696+544227502+546876002+548251488+548835612+550979624
3534+553737578+554157594+552933499+552369671+553091373+554365882+555869523
3520+557923628+559768946+560920786+562034380+562891317+562828985+562635906
3507+563483019+564505559+564767951+565689313+567289543+568018475+568767902
3493+570221528+570823503+570275083+570071383+571097214+572120901+572202929
3480+572798122+574180790+574717541+573996338+573492448+574719037+576834825
3466+577597017+576718788+575837068+575999929+577155808+578741627+579682437
3453+579636112+578928323+577696299+577080512+577716445+578430268+579111529
3439+580197746+580438895+579646883+579685230+580367438+580188322+579902892
3426+580816576+582153716+582231606+581368685+581050594+581101108+581076973
3412+581367089+581777332+582138208+582822760+583681591+584320317+584591884
3399+584915909+585661596+586102456+586022621+586067849+586355573+586977543
3385+587788953+587772448+586868089+586572936+587447425+588537831+589152671
3372+589494798+589614624+589050946+588190369+587969565+588607294+589780128
3358+591075880+592302369+592771003+591856722+591029405+591475501+591811544
3345+591632178+591878263+592128937+592530403+593696655+594565808+594194760
3331+593140406+592634572+593196704+594120361+594890232+595140008+593964282
3318+592226075+592330443+593988018+594637764+593394720+592086751+592982133
3304+595121209+595834683+595321319+594703536+593888437+593296385+593314885
3291+593710218+593727272+593078872+593143498+594548256+596449672+597916762
3277+598150930+597864054+598438603+599658560+600784420+601752357+602675216
3264+603127296+602585708+602339472+603643452+604876424+605314740+606620864
3250+608895972+610474012+610364408+609523129+609355532+609811202+610268168
3237+610380614+610395923+610830350+610999893+610126451+609617225+610663102
3223+611813945+611509467+610392233+609758344+609562024+609582369+609666642
3210+609479397+609587904+609773454+609188782+608405596+608029761+607444291
3196+606318431+605758293+606107550+605907739+604597826+603374478+602764325
3183+602593636+602762530+601692220+599466379+598862010+599365800+598419106
3169+596471962+595636318+596342412+597050999+596334384+594341065+592277685
3156+591069447+590818624+590450318+588571490+585877513+584301717+583918153
3142+583431616+582570491+581678948+580647333+579438147+578215348+577197795
3129+576405334+575461881+574345046+572892268+570626186+568727561+568291189
3115+568158697+567538820+566636706+565676847+565306048+565300463+564561707
3102+563287796+562436893+561974542+561672706+561530241+561089331+560304351
3088+559795075+559668916+559565994+559159342+558219279+557243264+556642985
3075+556015329+555458482+555114062+554531734+553599002+552484760+551247750
3061+550017471+549094413+548165770+546724311+545397344+544577257+543750190
3047+542955236+542463015+541793223+540529036+539108022+537831917+536297809
3034+534261107+532064936+530379984+529358592+528495721+527600837+526634645
3020+525325978+523809771+522516164+521153442+519387360+517947996+517020949
3007+516080986+515249331+514396484+513271421+512223201+511492024+510883368
2993+510224696+509843674+509506834+508380026+506925303+506129651+505961904
2980+505855192+505249826+504400319+503951531+503214371+501535154+499882615
2966+498853194+497747080+496248027+494802928+493357331+491676917+490293951
2953+489505230+488908142+488304970+487727080+487078681+486394129+485792752
2939+485106106+484093689+482804569+481564816+480497996+479507021+478725332
2926+477993208+476989916+475759488+474236998+472622656+471223882+469783820
2912+468568351+468182942+468171223+467933814+467557530+467175212+466891678
2899+466686033+466265917+465338122+463921596+462570942+461612080+460741580
2885+459879109+459167430+458504021+457964976+457677752+457208119+456316975
2872+455300669+454223377+453240830+452659698+452172264+451336770+450456795
2858+449944977+449436949+448469261+447146432+445677547+444176699+443018227
2845+442560562+442556473+442595218+442357660+441517129+440454747+439854019
2831+439532088+439073027+438636007+438398897+438159443+437647176+436816718
2818+435843097+435043206+434659043+434450107+434030141+433389919+432582200
2804+431751093+431292082+431211201+430941429+430386826+430168366+430252738
2791+430055920+429641738+429212846+428648469+427929360+427155300+426556916
2777+426336012+426184272+425713991+425079354+424514330+424154002+424055219
2764+423950552+423722019+423370916+422878047+422591620+422543101+422329927
2750+421862987+421268692+420826834+420662528+420415694+419917938+419447159
2737+419251138+419253931+419109022+418737076+418407466+418105356+417745403
2723+417513903+417301900+416911554+416635674+416721841+416906618+416720869
2710+416059006+415451097+415242460+415066360+414832791+414803445+414798633
2696+414703216+414677435+414561798+414306786+414317632+414564216+414588825
2683+414327455+413842465+413259513+412935239+412944314+413023625+412891582
2669+412613133+412554741+412629414+412492235+412336879+412431174+412562819
2656+412488694+412284695+412205434+412328726+412484431+412541601+412446259
2642+412334037+412480242+412764151+412843711+412751360+412699326+412776068
2629+412960845+413142379+413268564+413387817+413619192+413992485+414313069
2615+414573890+414978348+415449002+415795467+416120714+416623033+417306363
2602+417967479+418377447+418648166+419036966+419467454+419775523+420055218
2588+420443918+420878146+421191251+421248047+421166268+421312075+421702870
2575+421989097+422116802+422229149+422262758+422275673+422480770+422732340
2561+422713192+422531134+422542204+422701972+422691600+422503558+422528541
2548+422943271+423152606+422789087+422498422+422681727+422942722+422979872
2534+422807388+422583991+422555967+422703468+422891012+423112614+423137696
2521+422816762+422488848+422365680+422300157+422380640+422820103+423408166
2507+423862140+424157393+424157942+423736629+423262110+423248696+423630117
2494+423955189+424076063+424013382+423679583+423301504+423281608+423592418
2480+423868772+423868124+423764404+423796268+423842693+423725509+423410609
2467+422967855+422577558+422285447+421982714+421696088+421466109+421170507
2453+420746451+420287441+419920930+419729846+419693843+419588228+419166517
2440+418608922+418325687+418252459+417935465+417386971+417005002+416748669
2426+416350868+415787464+415222539+414847476+414627595+414442968+414167562
2413+413657489+413028637+412433418+411904795+411447455+410932470+410360764
2399+409846178+409336429+408855577+408441395+407959421+407464607+407161500
2386+406796037+405742606+403822863+401410900+398763372+395813311+392615195
2372+389518604+386691611+384002246+381441933+379215519+377447068+376254512
2359+376062530+377070185+378941409+381624789+384999903+387402268+386862799
2345+383722950+380998730+380153312+380081032+380360602+380963350+381159471
2332+380844820+380951956+381632394+382171663+382609531+383613147+384956744
2318+385982201+386769625+387480033+388050966+388589787+389272668+390112576
2305+390977815+391626987+391854050+391885739+392020500+392132074+392182214
2291+392397133+392789873+393223852+393632224+393822286+393686802+393469613
2278+393364372+393341584+393359585+393420321+393512747+393664263+393922840
2264+394168925+394342257+394547354+394757885+395001253+395445878+396017360
2251+396398456+396518433+396701364+397107592+397544014+397914588+398295934
2237+398711612+399151499+399674961+400336899+401022199+401579993+402156063
2224+402889059+403574908+404188402+405023996+406164517+407345379+408371135
2210+409364329+410409008+411523151+412876796+414512057+416292426+418131361
2197+419969848+421742612+423562649+425687014+428125730+430547393+432747254
2183+435046996+437790988+440786053+443708014+446436997+449055030+451858761
2170+454941339+458009207+460879059+463627689+466247965+468619264+470678604
2156+472533447+474435762+476199401+477240291+477573740+477662750+477561075
2143+476946035+475629339+473669730+471114378+468018486+464339717+460042867
2129+455518481+451043711+446354719+441257480+436079409+431179287+426448508
2116+421757672+417101641+412427908+407934539+403839643+400001230+396253647
2102+392702684+389392968+386095470+382813954+379868680+377184177+374347685
2089+371481447+368985236+366747477+364639418+362723017+360784724+358651608
2075+356487799+354575537+353008343+351510860+349777091+347933792+346271155
2062+344736249+343209171+341765494+340401825+338986820+337505644+336136141
2048+334962933+333791645+332429697+331025114+329882797+329005416+328151521
2035+327185304+326171142+325192983+324251774+323398029+322650621+321978511
2021+321360230+320593674+319587790+318689689+318050565+317350430+316396679
2008+315317493+314328538+313518225+312745162+311835667+310827713+309798666
1994+308563102+307212324+306381317+306027597+305608877+305115783+304593867
1981+303941229+303260517+302661484+302067737+301433000+300666121+299520538
1967+298363188+297942997+297912056+297589776+297073694+296503059+295836933
1954+295242039+294750516+294162578+293420456+292496924+291320176+290567583
1940+290921228+291470371+291423023+291093463+290811624+290535644+290189454
1927+289632806+288624129+287689777+287545790+287588126+287691721+288381684
1913+288870065+288459848+287921052+288148239+288756248+289191198+289509315
1900+289703017+289482736+288860790+288424892+288124927+287546763+287535443
1886+288269487+288773476+288977525+289086830+289126797+289206183+289261160
1873+288934417+287515497+285550477+285770109+288048832+289900908+290667189
1859+290948878+291315514+291939230+292542651+292806863+292575612+291893503
1846+290849596+290526419+292327108+294522606+295641386+296338728+297012335
1832+296645575+295347953+295526570+297181877+298780137+300436092+301741767
1819+302165373+302152408+301947586+301047067+299746478+299390689+299829604
1805+299760191+298585887+296860943+296072023+296435043+296467605+295105083
1792+293932948+295595759+298052252+299069880+298989148+298717681+298804197
1778+299561453+299936466+298604586+296211347+296222716+298728626+301141388
1765+302250942+301887025+301638620+302384731+303024978+303551631+303017947
1751+299965363+296790409+297098427+298937413+299863363+299667691+299328307
1738+299539013+298477953+295524925+295788414+299138220+302330827+304178713
1724+304598430+304551681+303683276+300311752+297669485+301170235+306467509
1711+310135283+311523011+311121146+311099604+312393611+312870474+312811408
1697+315772315+322182610+328920720+333184908+335620009+337248637+337807703
1684+340439174+348477324+356693419+362964315+367686866+372359851+376850877
1670+381633217+389743746+398451115+404732632+410737272+418470296+425712296
1657+430451003+432541460+437471002+447691959+454676205+461574532+473175065
1643+484453368+492673427+498024282+500907299+505887953+516206248+525198173
1630+530978469+535064588+538816509+542556513+547194542+551483314+553349227
1616+555005156+559387725+563337512+565113418+566099506+567814277+569652813
1603+571035231+572534983+574253194+575738285+577317223+579759479+583091534
1589+586957946+591207574+595906988+601166938+606676265+611225733+614729025
1576+621602071+632062233+640337144+647796307+657787634+668580348+678331973
1562+685489401+689285403+697732698+714260779+729207778+742198758+753266778
1549+763999953+773340637+779638984+782938377+786220766+800066039+816143935
1535+826342603+834989859+845246869+853965233+860254055+865730770+869913179
1522+873154629+879402063+888251274+897926455+906990685+912865425+914372357
1508+911393998+912538907+924271633+933405475+937251692+936653707+935658792
1495+939432505+943409568+941437193+935933950+936179886+939729503+941371869
1481+941007553+940035477+937610823+931757624+922779860+918020010+921482563
1468+925037665+924083840+921479770+920471592+918119641+911173493+908311021
1454+916545989+925854660+932348329+937066293+943364889+951095519+958141697
1441+964304660+968715851+970617617+974323413+981352039+988479198+995907146
1427+1003201454+1007987434+1010821583+1012657826+1012333002+1012975668
1416+1017854796+1022668401+1025090961+1026010080+1025721858+1024375293
1404+1023918526+1025028928+1024571862+1021201860+1017303883+1015898078
1393+1017984944+1018949241+1015111901+1009360826+1008029620+1011011071
1381+1014247933+1015818094+1015597490+1014253717+1013953927+1015085671
1369+1015692034+1015895784+1015482400+1012589510+1009976464+1011061834
1358+1012831457+1012987436+1012199164+1011171239+1010365614+1010570959
1346+1010616237+1008577640+1005115088+1001584619+999204544+999575941+1001746881
1333+1002900566+1002499748+1002421260+1003376083+1004616235+1006085369
1321+1007944051+1010064427+1013004789+1016385063+1019315253+1022273866
1310+1025146910+1027859088+1031719068+1036238068+1039150207+1040610963
1298+1042949350+1046782901+1050249144+1052348377+1054234685+1056299610
1287+1057973292+1059156298+1059633011+1059827287+1060614063+1061347383
1275+1061158094+1060736632+1060418092+1059531386+1057748000+1055258321
1263+1053082096+1051554121+1049888517+1048910059+1049947259+1052532380
1252+1055339801+1057602892+1058944171+1059102144+1058712795+1058860995
1240+1059889918+1061224914+1061912956+1061577063+1060798664+1060636004
1229+1061690058+1063382489+1064496183+1064578361+1064296322+1064585641
1217+1065749399+1067216040+1068645880+1070069437+1071158796+1071909669
1205+1072409719+1072361350+1072369428+1073252544+1073741823+1072934203
1194+1072420690+1072607485+1072604194+1072409420+1071762965+1070677894
1182+1070050488+1069813428+1068868978+1067089482+1065418293+1064451703
1171+1063617854+1062266502+1061233092+1060557914+1059301805+1058203570
1159+1057166669+1054476133+1050640388+1047835959+1046027541+1043105429
1148+1038394746+1033223706+1028473829+1023870057+1019129455+1014226790
1136+1009346265+1004701903+999585117+993437014+987330499+982158362+976787661
1123+969891877+962814084+957479884+952938045+947849283+942856860+938450855
1109+934103292+929811578+926408963+923807885+921080548+918610317+917560949
1096+917411154+916749241+915859044+915858645+917259862+919408961+920535818
1082+920501611+920872011+922376350+924952296+927998173+930627974+932746355
1069+934969653+938339954+942889173+946046250+946836018+948175702+951261870
1055+954204127+955908526+956785658+957086347+957362302+959142396+961854175
1042+963045858+963065206+963582908+964364897+965168428+966335876+967515093
1028+968341362+969113279+970602458+972650729+973519184+972951916+972456553
1015+972158857+972192366+973376669+974358319+973551497+972393025+972649732
1001+973363604+972786163+971190371+969651625+968168529+966836325+966076676
988+965204331+963437301+961180494+959349038+958282817+956919497+954342354
974+951310240+948653013+946350230+944019023+941964270+941231349+941154855
961+940610126+940750048+941799814+942116858+941939337+942532735+943674453
947+944698589+945273337+945427820+946117259+947902240+949921389+951478486
934+952866738+954914909+957395013+958714651+959174709+960226370+961523468
920+962691914+963544313+963059521+961285311+959329690+957821462+957094624
907+956863149+955943631+954568344+953959986+952958291+950517380+948364193
893+947405680+946884687+946637554+946688517+946779471+946845792+946577018
880+945640845+945076768+946584797+949867834+953326596+956933060+961591684
866+967065307+971514496+973987520+976782176+981082766+984164746+984535445
853+983900060+983150583+981943542+981230367+981739892+981908437+980278337
839+978266668+978256396+979876023+980537737+979298981+977424841+975689825
826+974521877+975011556+977396916+980470219+983105505+984891683+985721643
812+986524575+987884404+989066812+989245928+987585611+986088552+987340772
799+989441700+991049360+994103116+998735809+1002217710+1004277350+1007888102
785+1013241051+1018224199+1022398530+1025292417+1025828470+1025593006
773+1027193884+1029514220+1031065333+1033685360+1037146616+1038661725
762+1038860489+1038764647+1036579945+1034032522+1035397238+1039234280
750+1040791177+1039694238+1038077602+1036873952+1037295115+1038958524
739+1039075209+1037339994+1036312567+1037208249+1037571967+1034104528
727+1028596198+1025367714+1024344576+1024026834+1026241854+1030382675
716+1030508336+1025200964+1020370903+1019039099+1018571760+1016715172
704+1014406704+1013018053+1011833551+1010742197+1010390048+1009276055
692+1007624514+1007525880+1007533360+1005351949+1002151887+1001700107
681+1005648548+1009072205+1008203650+1008308068+1012342976+1012854295
669+1007049665+1006085867+1009869254+1009270370+1009338686+1014958415
658+1021582034+1021510327+1014313755+1008488980+1009301786+1014329812
646+1019047576+1020562586+1017223899+1010691035+1007634287+1007142515
635+1002352945+998058737+1000041285+1001241346+998021338+998556693+1004165651
621+1006193975+1005354940+1006667397+1008314451+1008825970+1007983445
609+1004082176+1000555098+1004820982+1011806923+1010838238+1006254013
##END=
