##TITLE=Sample description
##JCAMP-DX=4.24
##DATA TYPE=INFRARED SPECTRUM
##DATE=24/8/2023
##SAMPLING PROCEDURE=Instrument type and / or accessory
##ORIGIN=Default
##XUNITS=1/CM
##YUNITS=ABSORBANCE
##RESOLUTION=4
##FIRSTX=4397.6552
##LASTX=599.8556
##DELTAX=-1.9287962
##MAXY=1.3826394
##MINY=0.33762228
##XFACTOR=1
##YFACTOR=1.2876833e-009
##NPOINTS=1970
##FIRSTY=0.43688491
##XYDATA=(X++(Y..Y))
4398+339279784+338296088+337061534+336717288+337086761+337664184+338400538
4384+338744321+338195319+337719429+337865191+338382624+338926465+338635034
4371+337809969+337438668+337025753+336434790+336577011+337046050+336877816
4357+336434050+336431087+336683868+336653665+336243597+335560706+335107705
4344+335388884+335877618+335887316+335641872+335628564+335577231+335294132
4330+335380390+335875883+336204090+336051223+335425058+334771329+334635496
4317+334899246+335007769+335073429+335240460+334769246+333862458+333803579
4303+334582611+335156424+335287906+335617478+335964756+335404228+334585574
4290+334661602+335172625+335471254+335549064+335494328+335605235+335964571
4276+336294745+336456129+336316663+335967603+335541427+334848260+334141715
4263+333685336+333411957+333383536+333556238+333830774+333803880+333274342
4249+332892071+333152373+333697209+333818646+333432996+332964790+332642693
4236+332302219+331891434+331913884+332365611+332836247+333072664+332774892
4222+332584531+333134482+333807074+333957141+333407653+332714301+332761839
4209+333312091+333562117+333498563+333591625+333752037+333718640+333742062
4195+333686956+333286632+333001056+333089907+333328037+333531173+333563945
4182+333432834+333292325+333190283+333239649+333573110+333715678+333450886
4168+333398557+333548971+333502845+333446905+333397492+333180493+332992470
4155+332989230+332975320+332633921+332065617+331886851+332045412+331716071
4141+331042784+331085995+331771617+331798580+331047691+330721220+330962312
4128+331232890+331524969+331685983+331704151+331703110+331457250+331332248
4114+331657053+331633492+330809561+329818321+329451301+330026572+330894107
4101+331149317+330987678+331038410+331184126+330975620+330418263+330014282
4087+330124055+330539330+330616307+330149675+329943716+330210683+330164835
4074+329619582+328938172+328511579+328425460+328412939+328478784+328764244
4060+329312899+329841835+329929852+329693759+329349860+329068103+329064539
4047+329118812+329102634+329174451+329034058+328549258+328303421+328522272
4033+328808009+328901118+328696061+328236696+327920663+327964868+328172749
4020+328376811+328385467+328160760+327976857+327928532+327985559+328067790
4006+328008935+327794944+327401401+326936412+326709044+326855986+327341504
3993+327830586+327837321+327337940+326768340+326716612+327310283+327704289
3979+327456947+327294799+327438640+327186207+326400186+325919274+326241648
3966+326575364+325874420+324568142+324174553+324903130+325782631+326343737
3952+326427380+325894718+325491894+326016988+326251461+325363328+325044379
3939+325752497+326109032+325426512+324222230+323986946+325000891+325685263
3925+325282902+324859758+324881305+324485216+323992316+324457050+325414940
3912+326104195+326668750+326618759+324534444+321266769+319939059+320479984
3898+322103291+324838558+326640538+325172898+323320488+324172863+324120835
3885+322432447+322293235+322205195+322594479+324256390+324453092+323320788
3871+321650939+319976090+320771693+321630734+321118438+321814846+323643094
3858+325290818+324584621+318139926+315162063+319979029+324916415+326957520
3844+326009721+323904738+321853774+319736872+319347333+320559831+321851645
3831+323524063+325146398+325853984+326546734+325857479+322179435+321244736
3817+321984862+322048138+324834161+328425599+329368931+326875914+325150333
3804+325179934+322791667+321795543+323856645+325340022+326753412+328265511
3790+328929100+328882210+328261530+327710260+327949431+327749234+327514368
3777+328933821+330569464+331065396+329981186+328404468+328112181+328571337
3763+329265153+329141493+327782331+327743379+329092382+328553146+324272105
3750+322226325+325655778+327370157+325114228+325966742+329132722+329721509
3736+326478205+324069895+326055778+329741760+332448860+333362475+333971097
3723+335525920+337391685+339788978+343057301+346601433+349266064+353120674
3709+363196846+378432286+396770684+419090337+445688277+470475929+489608587
3696+504272113+514208123+518013992+515181427+509782084+506278108+502233808
3682+495714289+487414986+477723979+462933161+449131570+444099385+436745566
3669+427860716+425281904+424060634+421284911+418097361+414992667+409979183
3655+404848590+402939801+399587233+389931359+383417325+384997260+387965010
3642+388681622+387254554+385504579+384189784+383191369+382370724+378458138
3628+371679751+370973925+373712802+374943422+372766253+368841516+367720993
3615+368002564+367082330+365634317+363717566+362245459+362662957+362888195
3601+361585157+360355671+359273960+357081562+355612951+356235158+355668659
3588+351498293+348663946+349425666+349994803+348678897+346795658+345572305
3574+344529986+343331281+341728040+337434016+331241870+329631733+331367705
3561+331940823+331070488+330202976+328928729+326860685+325290887+324363062
3547+322907249+321272810+320379377+319880944+319116331+317631033+315911238
3534+314802842+313699052+311832940+309940212+308879956+307896469+306458570
3520+305582587+305487673+305080683+303585688+301476099+299721380+298597663
3507+297871006+296746780+294984793+293908614+293721702+293210147+291976888
3493+290391908+288729001+287495882+286851340+286268085+285409831+284202633
3480+283169918+282705253+282190203+281033066+279506663+278488923+278119149
3466+277399922+275802050+274086121+273016306+272277591+271560054+271148944
3453+271078517+270865313+269813921+268046287+266675737+265998170+265579747
3439+265218559+264736652+264266756+264088801+264093337+263989744+263571900
3426+263120728+262917175+262654119+262313345+262193574+262435060+263173034
3412+264052604+264459501+264388147+264346164+264657522+265179700+265772769
3399+266421754+267274592+268433604+269315026+269573661+269833871+270562680
3385+271563132+272422890+272955252+273357821+273876180+274535719+275352267
3372+276398336+277650226+278832498+279529183+279846743+280401161+281498865
3358+282767372+283681033+284438541+285459058+286520865+287387660+288216960
3345+289119883+289925461+290410030+290664592+290869256+290912026+290785196
3331+290769829+290787464+290568590+290242883+289925854+289383772+288475180
3318+287602460+287290894+287480537+287478801+286964608+286783713+287273490
3304+287699481+287990495+288615965+289769539+291098637+292026347+292749416
3291+293854966+295340889+296643996+297372250+297794399+298254898+298732246
3277+299156270+299441359+299604849+299824834+300130152+300207222+299554303
3264+298697969+298622774+298934688+299143610+299385258+299536482+299497599
3250+299211630+298581601+297596864+296631360+296273898+296366406+296473910
3237+296777260+297330984+297496511+297051542+296610322+296518254+296583127
3223+296556581+296364253+296176554+295901232+295269582+294789618+295044273
3210+295690597+296076896+295835710+295351581+295389792+295913822+296350066
3196+296586692+297027634+297710039+298042504+297888688+297691940+297614060
3183+297693953+297969878+298143158+297993485+297884638+298316346+299057328
3169+299323787+299015391+298837760+298992317+298928740+298561049+298351687
3156+298325002+298259596+298168871+298075392+298160724+298572806+299036938
3142+299442192+299684025+299536875+299304600+299151201+299121276+299544675
3129+300057873+300305006+300567460+300608472+300286537+300230297+300595257
3115+300993914+301263266+301223967+300895066+300866436+301375098+301902160
3102+301990084+301863046+302163874+302905875+303469944+303552244+303366073
3088+303417314+303839301+304216157+304407444+304697208+305263291+305871195
3075+306241547+306429732+306589705+306711420+306552442+306032533+305504476
3061+305124171+304667075+304229234+304180538+304306373+304049219+303538613
3047+303298700+303347766+303475568+303521717+303344271+303223158+303410163
3034+303644775+303762717+303736750+303421874+303093666+303224385+303618969
3020+304132283+304899557+305253640+304762544+304110481+303873693+304108930
3007+304624860+305162452+305618692+306105599+306734679+307460503+308573852
2993+310366273+312328711+313905336+315296831+316982257+319014219+320926527
2980+322182375+322792616+323161071+323221222+322683607+321741849+320790648
2966+320022193+319394339+318942380+318867601+318924490+318710152+318631369
2953+319121007+319802625+320476026+321358466+322354173+323162783+323668390
2939+323973847+324066099+323775663+323241103+322728206+322185221+321306137
2926+320093060+319002948+317978982+316863805+316276962+316350028+316455264
2912+316399765+316336743+316101830+315555930+315082701+314894632+314747759
2899+314538953+314285293+313987335+313705139+313609253+313766679+313897467
2885+313952619+314217481+314474589+314310335+313836459+313293891+312828508
2872+312508193+312190077+311891564+311736105+311598906+311552086+311742377
2858+311702453+311086079+310333315+309664450+308871115+308293946+308381825
2845+308761828+309048469+309403569+309799450+310070190+310284690+310423346
2831+310551403+310996696+311657207+312095047+312380970+312865516+313519569
2818+314022839+314248864+314344102+314485906+314872877+315435881+315769342
2804+315802438+315900592+316299204+316804047+317134198+317270054+317283848
2791+317357168+317625386+317907930+318232040+318809186+319349509+319590208
2777+319763326+319867197+319845557+320026081+320399720+320690087+320985244
2764+321471965+322099565+322639286+323059931+323520268+323921957+324228826
2750+324567864+324787479+324902158+325189886+325605833+325990650+326358873
2737+326823330+327454448+328103942+328583048+328872882+329116197+329522932
2723+330151249+330780284+331258696+331791173+332375540+332700831+332730339
2710+332642970+332687430+332987147+333324172+333536890+333637659+333656429
2696+333752778+334009794+334239036+334337260+334413381+334500426+334573122
2683+334669934+334786303+334847218+334818519+334808429+334875547+334857008
2669+334803638+334963448+335197458+335303459+335371757+335460584+335607387
2656+335796313+335914904+336054717+336214435+336210663+336238852+336496562
2642+336753832+336812318+336763437+336875154+337187739+337479262+337703274
2629+337845426+337886808+338005838+338281137+338578887+338777510+338913366
2615+339168090+339549552+339832697+339976214+340033079+339997808+340023660
2602+340097929+340019586+339897663+339914581+339933953+339714940+339293277
2588+338935029+338782648+338694700+338451941+338081866+337795782+337775091
2575+337989753+338093138+337868825+337580773+337481322+337399647+337268766
2561+337343105+337494144+337355325+337059867+336918318+336918688+336944772
2548+336974628+336954608+336811438+336692014+336801070+336968818+336983515
2534+337007932+337136845+337241989+337297812+337369860+337522773+337699062
2521+337757015+337770879+337896227+338101886+338251143+338293682+338358439
2507+338508945+338558288+338326245+337957536+337821379+338053422+338391743
2494+338514338+338410120+338196060+337901828+337709153+337674784+337581745
2480+337530527+337713458+337880373+337814320+337732205+337848342+337963229
2467+337829479+337659069+337754654+338004519+338093276+337916548+337736648
2453+337780946+337971585+338255355+338569953+338710276+338609923+338486889
2440+338543175+338673847+338774802+338851502+338869739+338928942+339045797
2426+339109952+339232500+339510693+339852740+340153313+340342192+340418152
2413+340440555+340512904+340675746+340808015+340951879+341280086+341662705
2399+341980913+342250751+342333098+342255519+342226797+342327844+342477425
2386+342441204+342003780+340979860+339375925+337556680+335660665+333377403
2372+330566455+327674294+325238882+323232146+321638094+320590937+319960977
2359+320010459+321224948+323526656+326758943+330558447+333304476+333359605
2345+330977911+328455339+327385108+327489210+328169185+329129806+330072721
2332+330679954+331195119+331982413+332875777+333654786+334578677+335989335
2318+337737852+339387404+340629920+341462369+342198098+343130020+344129546
2305+344962365+345656920+346207218+346587569+346946350+347331700+347651690
2291+347994733+348489115+348962621+349307654+349544210+349551801+349522964
2278+349674049+349754498+349680459+349658635+349771069+349915882+350023664
2264+350142116+350256702+350436833+350760573+351076236+351277567+351388150
2251+351425227+351464896+351641879+351938795+352176277+352258393+352290378
2237+352441185+352657722+352827970+353024001+353271898+353500215+353635145
2224+353708651+353813378+353830713+353764868+353933103+354292439+354551491
2210+354811400+355140394+355321010+355338230+355339526+355444276+355723742
2197+356086966+356465604+356856393+357127434+357269608+357462839+357731357
2183+357977425+358259182+358687094+359105448+359332955+359504406+359778155
2170+360114949+360460468+360914718+361533198+362110112+362484423+362759537
2156+363061082+363342654+363561481+363782091+363964004+364057229+364078151
2143+363993397+363879829+363789636+363651258+363506977+363332239+362930179
2129+362240044+361443908+360699153+359990318+359258292+358433226+357594853
2116+356877176+356067895+354983870+353840781+352851554+352002025+351187675
2102+350308291+349328460+348374737+347612114+346934639+346127093+345258656
2089+344457938+343606743+342667970+341914767+341500672+341115299+340411162
2075+339523700+338819285+338296829+337649580+336859717+336163518+335649533
2062+335263466+334876357+334410465+333898170+333389369+332988651+332695762
2048+332385654+332039765+331642102+331174197+330759593+330444346+330083066
2035+329643767+329257746+328933728+328588024+328222856+327838085+327433178
2021+327065233+326655628+326149211+325775664+325551444+325233142+324872487
2008+324608991+324341746+323948573+323465856+322972261+322554116+322311241
1994+321992963+321336225+320744846+320500606+320358153+320177699+319941189
1981+319681928+319455370+319248554+319016673+318743410+318406200+317892076
1967+317302386+316994893+316963417+316943259+316818535+316503543+316062832
1954+315754992+315612123+315397462+314992671+314464244+313729834+313038426
1940+313093115+313589927+313813291+313785357+313713332+313612748+313557711
1927+313472725+312997553+312368033+312192345+312083707+311953984+312390274
1913+312918053+312935689+312771921+312976168+313490454+313881636+314022815
1900+314110925+314170452+314098960+314116480+314193064+313963497+313979860
1886+314656178+315416833+316055010+316566171+316915139+317185485+317385150
1873+317342912+316494563+315042315+314997485+316553835+317919664+318522592
1859+318803585+319077843+319388738+319667486+319828685+319796723+319492354
1846+318625722+317821602+318711934+320246923+320984040+321293917+321665080
1832+321338539+319952344+319378231+320231393+321295584+322540461+323733310
1819+324347902+324516646+324541086+324362159+324102204+324427379+325334560
1805+326067928+326061633+325439033+325240155+325941191+326559510+326131482
1792+325642377+327142881+329370574+330588280+330848651+330847448+331141263
1778+332086307+332813010+331983871+330008612+330315017+333065490+335629560
1765+337116501+337412353+337527958+338537158+339777753+341045011+341683141
1751+340482724+338858422+339580218+341586074+343113888+343764771+344179051
1738+345220514+345660160+344547182+345415758+348685724+351939860+354199214
1724+355356560+356025680+356017464+354107933+352540659+355499290+359749618
1711+362660758+363871405+363555719+363387993+364520505+364618775+363201729
1697+364249649+368422862+373314584+376681894+378505977+379457849+378897853
1684+378239310+382333462+387846303+391773679+393891692+395578761+397596559
1670+399609822+403468968+408675752+412440794+414925688+418296308+422035197
1657+424210469+423812899+423922880+429489601+434274605+438417453+445908239
1643+454353397+461168652+466073682+469489340+475187890+485400381+494676367
1630+501862252+508429495+515020760+521430669+528582856+535496983+540757970
1616+546416295+554146531+561306726+566733888+571597444+577069876+582548464
1603+587733862+593180187+598760888+603758957+608415466+613404231+618481083
1589+623592189+629153541+635097002+641198446+647335855+652495702+656018749
1576+661177948+669661340+676995765+683014306+690447694+698758894+706380444
1562+712147917+714490197+717717647+728843174+740769488+751609232+761499556
1549+771392750+780142855+786386959+790399319+795561666+811952901+830447198
1535+843661021+856549900+870839925+882822202+893144211+902752917+909976666
1522+917157737+928338023+941225884+954267329+966329129+974900885+979095992
1508+979405475+984497649+999388496+1010865953+1017408153+1021388668+1025923993
1495+1032851219+1038571525+1039295937+1037220370+1040131996+1046157989
1483+1050612773+1053346559+1055477856+1055376207+1050830513+1042675444
1472+1038117992+1042219412+1046620501+1044453099+1039567556+1038810187
1460+1038239638+1030577632+1021426439+1023688825+1029072615+1031441371
1449+1029795730+1028296175+1030178997+1032247991+1031883146+1029739814
1437+1026739408+1026206167+1028458832+1029503466+1029751386+1030592537
1425+1030120489+1029695377+1030229822+1027303106+1024310013+1027294682
1414+1030435804+1030812128+1030311381+1029281838+1026221812+1023119109
1402+1023086984+1022630582+1019171829+1015298611+1013305160+1014299247
1391+1015133825+1011430300+1004438270+1001661158+1004991878+1009761144
1379+1011805142+1010293830+1007326936+1006462364+1007985618+1009261138
1368+1010410106+1010748103+1007577541+1003891790+1004252746+1006356456
1356+1007380353+1006855259+1005584090+1004305700+1003390488+1003196818
1344+1003218111+1001623850+998123437+996011488+997070009+999352854+1001303257
1331+1002063588+1001542382+1001713186+1004262559+1007396554+1008778259
1319+1009195038+1010941680+1014342943+1017835949+1020807472+1023433406
1308+1025701902+1028238129+1031504045+1034993441+1038035599+1040879088
1296+1044337193+1047996930+1050769783+1052562621+1054167528+1056263554
1285+1058445120+1059816920+1060226016+1060373120+1061071888+1062015520
1273+1062183084+1062024130+1062594309+1062911754+1061958956+1060993105
1261+1060451902+1059268681+1058371985+1058895783+1059629082+1059721288
1250+1060444681+1062525802+1064199402+1064546286+1064714405+1064671357
1238+1064263002+1064672653+1065684144+1065718305+1064976582+1064608775
1227+1064280221+1063666161+1063556180+1064769025+1066646200+1067170461
1215+1066263674+1065358182+1064885394+1065946784+1068722415+1070186791
1204+1069145952+1067672319+1066806728+1066636109+1066713411+1065790515
1192+1064347987+1063732075+1063714023+1063868718+1063302612+1061349062
1180+1059783500+1059292288+1058769694+1057964463+1056823549+1055913151
1169+1055169947+1053430989+1051853484+1051619728+1050875783+1049216811
1157+1048538966+1048639318+1047650508+1044939681+1041691448+1039265386
1146+1038232047+1037918305+1036520121+1034074156+1031982388+1030616329
1134+1029503744+1027709054+1025479441+1023605506+1021729905+1019936234
1123+1018977696+1018374560+1016941567+1014653815+1012217848+1010468522
1111+1009540442+1008441558+1007161502+1006863405+1007552175+1007709462
1099+1007708352+1009787621+1013040113+1014958207+1015861014+1017149957
1088+1019104063+1021895524+1025523414+1028264236+1029341087+1030907667
1076+1033596183+1036040574+1038490613+1041458155+1044153429+1045789442
1065+1046499689+1047774005+1050334951+1052598633+1053355261+1052985973
1053+1053259537+1056223005+1060220924+1061265650+1059254887+1057319389
1042+1057414373+1059579831+1061618830+1061006343+1059507714+1060369880
1030+1062577923+1063487951+1063230125+1062514508+1061145579+1060421630
1018+1061013009+1061725478+1062451186+1062771501+1062003115+1061518662
1007+1062065975+1062172345+1060713431+1058341805+1056651542+1056816236
995+1058233305+1059286549+1059280994+1058377447+1057160158+1056466389
984+1056500550+1056628028+1056375108+1055733275+1055069501+1054906196
972+1054477382+1053526528+1053658172+1054203540+1053032261+1051003909
961+1049941038+1049599152+1049198018+1049306795+1050359669+1051165455
949+1050260334+1047437767+1044570116+1044388203+1046775567+1048508878
937+1047472113+1045001337+1043740630+1044295441+1045017075+1044616867
926+1043805341+1044205272+1045739913+1046704006+1046226218+1044682133
914+1043149158+1042506584+1042030556+1041185795+1041056558+1041415107
903+1040938430+1040070802+1039565057+1039270385+1039020058+1038844626
891+1039557095+1041209772+1041361135+1039548208+1039334356+1041712925
880+1043261454+1042251536+1040332887+1039048665+1039904072+1043195076
868+1044714720+1042747283+1042321801+1045214264+1048061456+1050175997
856+1053036242+1055432494+1055861679+1055849181+1057513337+1061163168
845+1064450191+1064352338+1061411458+1058121658+1056049517+1056453428
833+1058233583+1058659620+1058377910+1059190454+1060526241+1061912946
822+1064080441+1067188143+1069754365+1071331500+1073065274+1073741823
810+1072177557+1070243170+1069230382+1069433773+1070315935+1069793155
799+1067822848+1066630462+1067769339+1070402864+1071374363+1069393872
787+1066279504+1064030079+1063514335+1064494165+1066165820+1066278764
775+1063315388+1059935418+1057932061+1056230041+1055220031+1055316958
764+1056731621+1059575295+1059755449+1054900364+1050172942+1049489264
752+1051251366+1053283051+1054332036+1053640212+1052276744+1052563731
741+1053977468+1052960977+1050599535+1050348837+1049445383+1046095963
729+1044533178+1046488487+1049413351+1051642317+1053814256+1055503685
718+1053081234+1047062184+1044479298+1046825559+1048810122+1049135344
706+1049943815+1051931341+1053682427+1053317582+1051124999+1047762896
694+1045670666+1046613929+1045388863+1041393999+1040806138+1043994104
683+1048952783+1051369772+1048047199+1046041528+1048622932+1049964274
671+1045991536+1037786013+1037162325+1048971113+1059666668+1063246511
660+1059338669+1050410216+1041488890+1037066786+1038283705+1040570623
648+1040309002+1041638124+1044795632+1044040485+1040873534+1041551472
637+1043363566+1040122738+1039368794+1047635141+1054555146+1054578197
625+1052921540+1045939138+1034002687+1030100307+1031162808+1028228409
613+1029005682+1031856207+1028016223+1022412657+1021085294+1024106715
602+1028842191+1033712274
##END=
