##TITLE=Sample description
##JCAMP-DX=4.24
##DATA TYPE=INFRARED SPECTRUM
##DATE=24/8/2023
##SAMPLING PROCEDURE=Instrument type and / or accessory
##ORIGIN=Default
##XUNITS=1/CM
##YUNITS=ABSORBANCE
##RESOLUTION=4
##FIRSTX=4397.6552
##LASTX=599.8556
##DELTAX=-1.9287962
##MAXY=1.3201926
##MINY=0.31638741
##XFACTOR=1
##YFACTOR=1.2295251e-009
##NPOINTS=1970
##FIRSTY=0.51842153
##XYDATA=(X++(Y..Y))
4398+421643698+421765232+422040198+422703422+422579658+421559104+420642486
4384+420184420+419843912+419784090+420446685+420848129+420240557+419645347
4371+419563710+419554839+419352735+419170216+419121448+418528419+417564778
4357+417532007+418377071+418747636+418488473+418419247+418284333+417731444
4344+417407758+417401214+417191499+416905674+416714478+416710987+417139676
4330+417499381+417387592+417063469+416617134+416243661+416351622+416985711
4317+417272651+416304016+414698432+413730137+413567543+413912268+414582231
4303+414802611+414719666+415429671+416473785+416555131+415657420+414849780
4290+414411250+413865972+413553872+414206334+415359184+415436119+414356034
4276+413480525+413307217+413496038+413306345+412766108+412978683+413868250
4263+414015962+413187235+412611319+412483871+412008498+411437914+411498657
4249+411808721+411490997+410691502+410187818+410148890+410272169+410567883
4236+411046892+411222430+410890164+410343189+409956239+410173274+410746573
4222+410721219+410069483+409696495+409765770+409879305+409905095+409607005
4209+409217632+409444847+410009807+410153156+409696302+409010971+408649133
4195+408442424+408341784+408994343+409717002+409081991+407715015+407507530
4182+408578646+409264801+408928171+408523867+408512377+408183989+407366896
4168+406997011+407067933+406933941+407107734+407557414+407462688+407044810
4155+406648116+406317134+406015117+405566698+405293526+405081678+404498733
4141+404166272+404493109+404856765+404976578+405115321+405359383+405480335
4128+404988673+404040206+403510683+403751835+404439759+404835532+404580442
4114+403985159+403297332+402952728+403029783+402928513+402437482+401854706
4101+401626618+401802229+401920345+401937337+402052011+401924660+401549320
4087+401410141+401328940+401227355+401279832+400948026+400199966+399648992
4074+399347072+399411596+399773143+399587279+398860137+398486737+398501717
4060+398528961+398664675+398800994+398729053+398604611+398101945+396953845
4047+396167463+396389467+396740422+396841886+397238992+397470037+396974206
4033+396540572+396895721+397612489+397462886+396292996+395510735+395329452
4020+394998809+394849522+395136438+395462814+395551383+394953652+394078750
4006+394144995+394695096+394678662+394243574+393795446+393634281+393858394
3993+394114163+393825356+393150497+392936225+393053978+392966330+392844021
3979+392958962+393261923+393353958+393054366+392515414+391692262+391039145
3966+391252253+391705981+391626792+391591185+391611982+391052622+390628538
3952+390910218+390690856+389819032+389818232+389877544+389006132+388901590
3939+389880380+390363292+389649335+388200286+387305047+387812100+388823250
3925+389215556+389352530+389526711+388938409+387924278+388015586+389296611
3912+390400208+390642863+389994327+387716866+384293729+382173577+382078246
3898+384249929+387529136+388883968+386995129+385689986+387157190+387134866
3885+385051170+384709232+384839225+385341334+386661723+386438143+385244378
3871+384006619+382968468+383639861+383356193+382246391+384066804+386672897
3858+387282505+385104641+379500755+378411048+383313823+387517525+388847004
3844+387874443+386201596+383866252+380790337+380342814+382645484+384706105
3831+385921806+386552454+386273391+385716600+383580718+379635451+380227146
3817+382866543+384197670+386912207+389951376+390633822+387718659+385145920
3804+384976078+383450288+383147132+385173237+386393471+387669018+389259550
3790+389933052+389838544+389430313+389275354+389636901+388888961+388033353
3777+389931694+392418071+392588494+390049277+387577153+387468878+388673890
3763+390461508+391091961+389549713+388942335+390218125+390142572+386254122
3750+384036481+387207389+388828340+386867632+388103088+391307760+391635349
3736+388082655+385767017+388418557+393190928+397228157+399046849+399307563
3723+400434477+403281310+407543985+412677200+417754229+422088142+428752527
3709+441599138+457271906+472409528+485533092+495944228+504060619+509800291
3696+512854149+513310518+510213952+502761221+496112785+494355902+493787645
3682+491285853+486752405+481417765+473472258+467008861+466646054+464259978
3669+460919665+462819073+465877293+467752268+470379860+474678142+479112938
3655+483049430+485190936+480073767+464341953+453467467+453123808+453723430
3642+451481866+447557057+443773560+440112761+436690375+434090221+428621153
3628+419934808+417539424+418626053+417927295+413377219+407209586+404819413
3615+404095228+401919933+398669353+394215506+390444734+389684700+389604954
3601+387885326+385546104+383970237+382238538+380275479+379334767+377502041
3588+372869989+370221430+371120184+371651937+370556121+368945253+367710500
3574+366850674+366485030+366408193+364058790+359415783+358567543+360550356
3561+361100506+360457206+360443099+360286589+359107003+358543885+359243686
3547+359462757+358521489+357970587+358312307+358465158+358133594+358137617
3534+358711352+358636284+357469691+356623220+356653810+356647217+356352835
3520+356506486+357293377+357755079+357187502+356092486+355221243+355034191
3507+355284603+354541391+352935831+352547378+353189491+353703937+354117743
3493+354147121+353318466+352292846+352051087+352470905+352565267+351992793
3480+351557414+351348984+351073339+350944897+350529879+349809645+349313087
3466+348787127+348110668+347609335+347322298+347197614+347424393+347822831
3453+347791030+347258429+346498516+345777336+345396979+345161692+344828650
3439+344458280+344000359+343579911+343252831+342937047+342954645+343348405
3426+343505570+343084711+342349400+341696840+341784440+342737876+343398725
3412+343178054+342590867+342168190+342176891+342406603+342914263+343569561
3399+343637091+343598454+344050267+344108900+343800727+344119250+344614233
3385+344666128+344676260+344807296+345082746+345663728+346305041+346455976
3372+346271567+346681010+347547114+348109796+348504817+348735232+348682536
3358+348824285+349645426+351290907+353004209+353715232+353590572+353331894
3345+353190751+353302250+353850922+354953718+356057460+356475145+356823118
3331+357733337+358497056+358724538+358853465+359040395+359570233+360546308
3318+361288843+361594616+361976257+362531716+363083853+363869969+364719494
3304+364993538+364982364+365514723+366684371+367682164+368060267+368384656
3291+369016491+369921280+370815283+371282100+371732119+372693409+373765616
3277+374658480+375903874+377507543+378775746+379904187+381338742+382674111
3264+383613440+384447016+385488294+386870638+388450553+389863777+390783085
3250+391049592+391149383+391644172+392134670+392574654+393653600+395077150
3237+395886147+396018200+396354369+397209954+397790887+397790717+397763788
3223+398033130+398508043+398709638+398292074+397688744+397413415+397334711
3210+397156192+397141891+397288148+397013861+396738556+397046050+397049516
3196+396132438+395222462+395126379+395453289+395724013+395928540+395863047
3183+395472292+394972171+394498979+394496119+394929244+395113047+395204719
3169+395306280+394807565+394124464+393991320+393981528+393592639+393192576
3156+393308462+393765898+394023073+393838324+393333549+392920397+392815589
3142+392609267+392203460+392145674+392290065+392067043+391531000+390875508
3129+390279668+390019706+389929367+389607523+389180022+388948783+388929271
3115+389124200+389366734+389274457+388763234+388368892+388628830+389261343
3102+389734365+389907601+389798404+389620346+389847658+390377859+390412279
3088+389970404+389819565+390120418+390629556+391076763+391328339+391587234
3075+391668944+391243697+390796053+390653577+390507489+390436445+390530322
3061+390492243+390432736+390732256+391129919+390877714+389837720+388799593
3047+388597707+388949680+388774651+387817651+386901445+386718854+386928084
3034+386554005+385535293+384742633+384416862+384244209+384192774+384205814
3020+383990428+383457269+382704143+381888431+381417736+381438509+381565084
3007+381403169+380837966+380325871+380356073+380581252+380580719+380648951
2993+381033453+381354958+381287476+381096110+381134941+381333821+381536046
2980+381761371+381945926+381950992+381647594+381026060+380408574+380065109
2966+379744817+379162696+378493896+378013239+377796059+377655182+377409060
2953+377188317+377041260+376946219+377035563+377194474+377102075+376731996
2939+376378811+376164515+375859493+375529795+375461999+375342986+374942317
2926+374665170+374418418+373659135+372614390+371853556+371432623+371383346
2912+371739536+372128837+372209771+372072506+372091776+372363300+372666771
2899+372877091+372988687+373002770+372754685+372380630+372326747+372413620
2885+372352368+372390641+372546497+372649003+372773543+372707734+372193555
2872+371610900+371372923+371310750+371230447+371370984+371548728+371206305
2858+370733913+370668759+370547492+370007183+369350454+368944647+369071222
2845+369614925+370164469+370652907+371051636+371226423+371261691+371294486
2831+371314992+371118099+370643744+370205796+370052703+370143575+370376559
2818+370679327+370966049+371238082+371470072+371572409+371615021+371614173
2804+371549552+371633782+371945979+372300351+372434465+372052290+371370232
2791+371037190+371102514+371173364+371268526+371575948+371916431+372099047
2777+372256333+372430756+372566082+372810871+373178114+373383442+373277590
2764+373051708+372990287+373195978+373574153+373775966+373501752+373217793
2750+373412650+373690427+373794873+374018525+374328758+374264065+373807307
2737+373729815+374287698+374766731+374882932+375023930+375339447+375666478
2723+375923750+376136301+376343010+376576988+376726808+376646990+376505726
2710+376630192+376992394+377287284+377489994+377749277+377977002+378147498
2696+378442534+378839494+379100668+379126361+379027927+378961076+379085252
2683+379428426+379768110+380023782+380285489+380459306+380472056+380476613
2669+380712021+381155132+381440642+381529720+381718565+381959621+382124760
2656+382308443+382517600+382765637+383164633+383702276+384267139+384731798
2642+385031997+385271453+385522228+385715946+385904403+386161287+386428690
2629+386831419+387421369+387954116+388455279+389044890+389519269+389873981
2615+390403310+391002035+391385664+391799955+392491200+393299324+394043555
2602+394550899+394920663+395540961+396347800+396977357+397471128+398041808
2588+398604077+399001886+399315561+399627031+399942937+400470205+401269628
2575+401972410+402351773+402625309+402955515+403120631+403191554+403607275
2561+404147438+404370194+404531261+404841470+405068225+405267178+405663290
2548+406135633+406567037+406968457+407308238+407654708+408042822+408332767
2534+408508645+408791415+409213317+409512619+409682776+409919881+410085917
2521+410123342+410324331+410688593+411052419+411359719+411427734+411406694
2507+411778325+412372129+412548879+412376880+412488185+413031815+413507964
2494+413542480+413422400+413480816+413605889+413676909+413778712+413986051
2480+414167552+414144574+413961182+413721363+413476986+413427781+413675503
2467+413926181+413949499+413771004+413440240+413063616+412748268+412609040
2453+412657566+412652719+412504522+412292577+411954930+411567592+411342558
2440+411192132+410920802+410662609+410530168+410260680+409728927+409162076
2426+408719135+408380663+408137886+407955028+407701296+407389971+407067885
2413+406611297+406039914+405541174+405165375+404825206+404459005+403998103
2399+403471076+403082285+402771324+402221368+401449359+400810713+400396786
2386+399866099+398942986+397617046+395920663+393819539+391284079+388259720
2372+384733543+381149557+377984080+375174041+372898712+371555999+370944379
2359+370742469+371229332+372801199+375531056+378960834+381295500+380790482
2345+378047513+375773590+374992637+374825680+375044460+375503254+375660297
2332+375576964+375810579+376370933+376988152+377646602+378530788+379799330
2318+381169457+382174571+382972200+383939138+384850157+385531051+386219751
2305+386947693+387548866+387890028+388043315+388333212+388824607+389212575
2291+389334206+389391264+389673671+390137700+390514227+390672798+390661309
2278+390620006+390612928+390705230+391045010+391573539+392023753+392249101
2264+392372065+392549664+392837234+393231213+393601559+393947642+394438019
2251+395009668+395478327+395859193+396263207+396661476+396993355+397422456
2237+398079184+398744518+399203408+399585486+400093921+400689785+401311076
2224+402053005+402878048+403633356+404324382+405031915+405712616+406357807
2210+407125864+407993423+408806250+409611029+410565557+411713801+412791074
2197+413675406+414752873+416144379+417522651+418857923+420314098+421810219
2183+423283556+424867422+426647816+428474459+430161292+431759119+433390348
2170+435088330+436797463+438444156+440027246+441540286+442995007+444315687
2156+445331927+446171610+447067964+447832750+448173936+448120272+447788199
2143+447275643+446584496+445515609+443978815+442016532+439684314+437132202
2129+434463791+431652807+428643840+425449349+422114466+418640645+415112481
2116+411714674+408510971+405455684+402489280+399464776+396395042+393570339
2102+391004750+388367098+385654451+383110265+380631087+378129368+375817171
2089+373723271+371657730+369519569+367364805+365279921+363256168+361230548
2075+359255127+357454178+355743591+353994901+352232006+350490491+348821861
2062+347243231+345658129+344023774+342484022+341119761+339813673+338443060
2048+336914508+335290236+333775232+332451207+331345890+330368820+329242851
2035+327987228+326870615+325843371+324785732+323829580+322960446+322021917
2021+321051804+320059415+319005266+318060652+317283481+316520344+315739052
2008+314990409+314197119+313194574+312011232+310885166+309958731+309087779
1994+307932433+306519185+305424702+304778105+304220150+303684204+303114930
1981+302374432+301549316+300784094+300103102+299412852+298539209+297380857
1967+296289380+295815946+295686171+295247350+294477741+293667750+292950134
1954+292367649+291841714+291210582+290430986+289555599+288560277+287774622
1940+287647950+287682563+287413705+287018005+286594213+286122088+285637237
1927+285045808+284102188+283125531+282643686+282196381+281882173+282324654
1913+282730049+282352480+281702926+281554511+281827756+281997889+281919186
1900+281735406+281458938+281087331+280874780+280721760+280297992+280126768
1886+280427040+280616927+280667102+280715919+280733468+280768081+280842518
1873+280710659+279642524+277926120+277898172+279574267+280848627+281231722
1859+281327466+281515923+281848675+282198757+282491345+282682177+282590627
1846+281991902+281726535+283171682+285045275+286033906+286661330+287367191
1832+287191677+285868064+285410991+286213468+286893829+287578215+288221999
1819+288237003+287691265+286851460+285496821+283751064+282606261+282142232
1805+281552112+280234340+278095501+276356627+275773246+275134503+273280713
1792+271314042+271606290+272820271+272990500+272179297+271170742+270414416
1778+270193987+269840245+268128446+265378859+264901159+266718276+268232504
1765+268736091+268191806+267686595+268115236+268493241+268769346+268547367
1751+266473560+263894130+263869988+265262610+265971670+265623502+265118970
1738+265219464+264369188+261699251+261385381+263639889+265713889+266711804
1724+266528437+265854063+264506623+261017532+257724025+259456232+262906565
1711+265015421+265174792+263532462+261898664+261601907+260220266+257415997
1697+257324883+260039323+263308955+265079412+265047998+264071826+261631164
1684+258933642+261104089+264745909+266765566+266863346+266391536+266237885
1670+265881356+267308493+270321265+271882953+272210856+273735701+275695487
1657+276063700+273691731+270782168+273389448+275807786+277077589+281600711
1643+287484798+291536231+293450667+293625017+295601141+302603271+309405745
1630+314354841+318749570+323336973+328417226+334905395+341123542+345899645
1616+352143365+360542018+367789252+373499013+378746902+384217401+389350446
1603+393976365+398576809+402967126+406613139+409740659+413009515+416526287
1589+420097354+423600503+427087122+430722470+434466457+437582318+439646696
1576+443524191+450281556+455861542+460716010+467506486+475212125+482321100
1562+487663884+490491690+496970357+510348042+522735374+533869943+544118194
1549+554337309+563064908+569334054+573858243+580306223+596942729+613120684
1535+623693736+633903592+646135407+657193624+666384235+674626038+682300943
1522+692007551+704091703+715415142+727273146+739106280+748263926+753481831
1508+755104625+762797127+778641942+790232251+797525733+802152985+807540902
1495+815489948+821919362+824949029+827534349+834475009+843061780+849737558
1481+854742500+859245601+862631386+863229989+862181706+865587948+873836830
1468+880793585+884683538+888447741+893097438+895391019+893349619+894285822
1454+903262161+912601405+919944430+925890908+932454217+939793074+946884597
1441+953772998+959571813+963521103+968577917+975694745+981540583+986231390
1427+991993458+997490935+1001305942+1003281315+1003292755+1005522830+1012065972
1414+1017221972+1019115999+1020576537+1022221194+1022782470+1023192592
1402+1023592436+1021636455+1018281405+1016302251+1015538629+1016459029
1391+1017541731+1015791005+1011427229+1009519047+1012234869+1016446715
1379+1019350243+1019917142+1018034459+1016736709+1018266571+1019760656
1368+1020483363+1020923541+1018586524+1015507216+1016019917+1017242236
1356+1017082938+1017146346+1017628797+1017450205+1016480747+1014208302
1344+1011218581+1008972509+1006727406+1004053953+1003143832+1005205495
1333+1007841716+1008162833+1007434212+1007891939+1009079354+1010601168
1321+1012591278+1014192402+1015720712+1018616677+1022487919+1026417721
1310+1030486073+1034126075+1036681339+1039598247+1043410054+1046069933
1298+1047777514+1050252304+1052622189+1054217980+1056265779+1058750846
1287+1060863411+1062875530+1064346054+1064611906+1064379310+1064407718
1275+1064542098+1063886582+1062173959+1059608903+1056536963+1054726415
1263+1054786819+1055182010+1055739795+1057065080+1058392499+1058650885
1252+1057730001+1056843537+1057435838+1059042198+1060182880+1060827247
1240+1061566145+1062083694+1062119761+1062135856+1062783713+1064397829
1229+1065685011+1065227671+1064436611+1065135757+1066683944+1067550144
1217+1068054022+1069267324+1070198001+1070142930+1070632168+1072091446
1205+1073228734+1073739496+1073741823+1072838100+1071672307+1071362146
1194+1071720494+1072277212+1073046264+1073447175+1073202847+1072493811
1182+1071539575+1071277504+1071142929+1070101724+1069146324+1068346150
1171+1066946790+1065634206+1064443592+1062802037+1061899866+1062073028
1159+1061471710+1059465409+1057012046+1054553931+1051840824+1049007104
1148+1046329386+1043614437+1040603288+1037526985+1034576240+1030858964
1136+1025498776+1018629476+1011581292+1005987635+1001879434+997660220+991541549
1123+984175351+977628427+971755635+965369464+958473985+951381396+944183318
1109+937826234+932454217+927212994+922231224+917304816+912605186+908661616
1096+904521614+900054872+896548668+894017352+891246363+888033740+885209328
1082+883329069+882565932+882593952+882428934+881877257+881600255+881070005
1069+880299402+880639813+881793002+882768084+883594437+884436496+885469460
1055+886703316+887399651+886840121+885659687+885552454+887237929+889339150
1042+890543532+891215240+892058365+893177523+894226582+895253536+896625554
1028+898274574+900060301+901568445+902475852+903340404+904331581+905062141
1015+905725899+906364642+907190703+908878796+910674316+911335359+910685563
1001+909539548+909453937+910083857+909759444+908680813+907285914+905572127
988+904090259+902423496+899905075+897304824+895420978+894006299+892252567
974+889720573+886896355+883993797+880770315+877489436+874443190+872267798
961+871547031+871475865+871555950+872317730+873545381+874688487+876146602
947+878316758+880230758+881227461+882673553+885517841+888525790+890816559
934+893209907+895767691+897475660+898646107+900428247+902713393+904479244
920+905083762+904668114+904571158+905384906+905455296+904197782+902821401
907+902162200+901946668+900995728+899196815+897280585+895578725+893930189
893+891844385+890193328+889919235+889975760+889444832+888835272+888292224
880+887629048+887637871+888287085+888705739+889307446+891440856+895817623
866+901094235+906256439+912056030+917951994+922824786+926198548+927340103
853+926979040+927081813+927943167+928609639+929275821+931381695+935397594
839+939414463+942151324+945438505+949839317+952399623+951288803+948088785
826+946278237+948015196+951532743+954383818+956458279+958671290+961593433
812+964973013+968199112+970709388+972127945+971912412+970588290+971134053
799+975206671+980353363+982922588+983437228+985900869+990985024+996550466
785+1001750580+1006627348+1011199190+1015425967+1020003724+1024891253
773+1028525923+1031379421+1035088553+1039244165+1042626847+1044383197
762+1044503131+1043677845+1042658261+1042953587+1044197042+1044651570
750+1045842572+1047861284+1047929928+1047031829+1047504002+1048561206
739+1048665821+1047694714+1045703053+1042836659+1040466484+1039280136
727+1038838309+1038501389+1036405403+1032711106+1031591366+1034636158
716+1038971235+1041655643+1040791963+1037163402+1034367786+1033831621
704+1033394449+1032682795+1032678917+1030733019+1027226912+1026220514
692+1024785862+1019589820+1015096512+1015589725+1020316114+1024520689
681+1025431683+1027523596+1032692781+1035226327+1031998386+1025675817
669+1021276847+1025030578+1032482873+1036348006+1036855956+1036714982
658+1038202572+1038775288+1036793807+1034344904+1031607849+1029357220
646+1030068389+1031411514+1027944577+1023246693+1024850629+1026897845
635+1024776458+1027754156+1034826773+1034176880+1024832886+1013869734
623+1010014587+1018006633+1027559179+1027085648+1021821640+1015015845
611+1003733806+993701524+994542420+1008096418+1025483651+1036565477+1036874087
##END=
