##TITLE=Sample description
##JCAMP-DX=4.24
##DATA TYPE=INFRARED SPECTRUM
##DATE=24/8/2023
##SAMPLING PROCEDURE=Instrument type and / or accessory
##ORIGIN=Default
##XUNITS=1/CM
##YUNITS=ABSORBANCE
##RESOLUTION=4
##FIRSTX=4397.6552
##LASTX=599.8556
##DELTAX=-1.9287962
##MAXY=1.3100971
##MINY=0.12020786
##XFACTOR=1
##YFACTOR=1.220123e-009
##NPOINTS=1970
##FIRSTY=0.15030269
##XYDATA=(X++(Y..Y))
4398+123186509+123041420+123039979+123361055+123570151+123308649+122715277
4384+122024445+121398562+121258725+121900656+122716559+123087560+123253423
4371+123455436+123502431+123498229+124104963+125244237+125945523+126040099
4357+126002886+125786744+124993373+123860340+123212449+123036987+122659305
4344+122087964+121823691+121858131+121581938+120850963+120369240+120504155
4330+120738544+120572242+120143571+119671801+119083509+118683905+118877027
4317+119309056+119431709+119157507+118782915+118579302+118638241+119022360
4303+119606157+120097700+120300213+120314734+120187855+119701589+119186634
4290+119388952+120199799+120747862+120810025+121033130+121726220+122356903
4276+122469200+122256563+121827477+121148358+120552445+120393629+120506927
4263+120420326+120120587+119872654+119926134+120330232+120367835+119735504
4249+119267202+119274261+119364392+119593920+119925926+119997457+119957936
4236+119990239+119955017+119974338+120198077+120466686+120664265+120793758
4222+120799657+120801660+121061622+121560834+122010511+122329461+122731056
4209+123072294+123058152+123090943+123511615+123735793+123477614+123374501
4195+123663420+123832702+123743426+123960253+124639983+125045766+124539093
4182+123454837+122843328+122972723+123048944+122836892+122853489+123193861
4168+123330669+123000141+122563642+122396937+122596421+123042862+123397999
4155+123334382+122893902+122344935+122029098+122325272+122879258+122803869
4141+122247024+122121867+122345863+122226629+121949959+122000166+122230537
4128+122296047+122121782+122016458+122290575+122625671+122604983+122404350
4114+122210349+121984741+121753162+121585663+121670371+121988002+122247586
4101+122344238+122331940+122271633+122068057+121816546+121984741+122417100
4087+122599475+122731507+123033421+123185581+122993998+122711833+122655263
4074+122872688+123205793+123451857+123545603+123559892+123509636+123261215
4060+122925643+123012879+123467343+123739518+123747591+123589398+123215869
4047+122668074+122373928+122661455+122997503+122824130+122354742+122021905
4033+121899520+122002023+122363205+122650292+122716315+122757777+122710575
4020+122471386+122235447+122215503+122194057+121801256+121069499+120452556
4006+120459371+120844466+120861124+120397708+119877698+119663362+119728200
3993+119681865+119573586+119785613+119953149+119545142+119028612+119001512
3979+119151071+118949449+118488256+118233374+118293595+118401483+118417140
3966+118267509+117842697+117536009+117706353+117869382+117731903+117327536
3952+116541469+115597197+115237211+115576300+115389334+114788853+115416117
3939+116723660+117041291+115649993+113286992+112434634+113559314+114006768
3925+113075832+112865906+113425413+112996095+112249182+113011153+114641139
3912+115752153+116023571+114681368+110643781+106057067+104823351+106417272
3898+109422949+112338910+112838720+110951813+110440119+111580566+110859300
3885+108967496+108278826+108291283+110070388+111751656+110425391+107610747
3871+105362670+105347733+107390709+107573779+107013405+108934045+110806358
3858+110231011+105882998+98521100+99675128+107097466+112156194+113155130
3844+110964966+107647923+104379720+102439918+103985502+106801525+108673557
3831+110208833+111183026+111082490+110522238+107863651+103569764+103950048
3817+106481842+108914883+112648676+115324936+114743507+111403834+109291807
3804+108205647+105927684+106614925+109639336+112335771+115134672+117325264
3790+118280845+118052868+116900050+116231776+116419340+115779107+115541518
3777+117597879+119389783+118706059+116187138+115009002+115929618+117030678
3763+117991328+117624039+115756757+115326670+115852433+113775078+108465035
3750+107139894+110913367+113317561+113991514+116388796+118609822+117466969
3736+113201783+112292110+117367093+122973285+125853352+125932052+125609242
3723+127010409+129650518+132823608+135575978+136622704+135713959+138080831
3709+149471583+165660051+183048600+201312639+219806608+234033169+241427210
3696+243433120+241473399+236147455+230180191+229859286+234052270+237554081
3682+238858338+238383796+236735357+234441762+235909964+240337264+243693277
3669+249613742+258181413+265327924+270403921+274495807+277958512+280755129
3655+284566071+288499581+289128762+288212286+294846396+305777396+314992982
3642+322089225+327900679+332924160+337429304+341640802+344985971+346666921
3628+350364748+358532765+366347270+371358001+373966272+377282276+382891998
3615+388520723+393777542+399290538+404419660+410390980+417432119+422780168
3601+425842121+428954929+432744962+436457127+441181296+445962474+447711059
3588+447572761+451043844+456524720+460312018+463012520+465482933+467526922
3574+469441210+471305915+471939321+470044427+468943904+472435797+477201099
3561+480901442+484246830+487151775+488258356+488636416+489985739+490876983
3547+490281485+490020912+491565934+494163995+496420145+497453888+498072835
3534+499095440+499322940+497898973+496777883+497637911+498895149+499623034
3520+500639191+501666388+501848408+501229217+500400894+499682486+499272966
3507+499463193+499875156+499908668+500326152+501071770+500858924+500504068
3493+500902890+500921063+500121122+499412290+499281417+499193729+498940630
3480+499047907+499325969+499116885+498357003+497223652+496265677+496256151
3466+497042609+497268497+495716832+493602986+492876029+493033868+493075245
3453+493421405+493899562+493217402+491697588+490861449+490416022+489669280
3439+489408707+490135566+491046937+491342878+490839417+490059016+489882810
3426+490551291+491518499+492034565+492326305+493454478+495308630+496612033
3412+496926440+497268839+498750207+501104940+503286592+504968446+505909664
3399+506337016+507630844+510089727+512652859+514977108+517636478+520650801
3385+522843933+523637523+524596182+526830984+529366613+531532632+533310479
3372+534756430+536339214+538097618+539732867+541113357+542011196+542004943
3358+541340272+541192252+541997225+543053342+543730519+543542344+542897604
3345+543203364+544020989+543973945+543135949+541875341+541172712+541487119
3331+541312622+540025389+538534544+537615015+537611009+537593472+536338236
3318+534683593+533838904+533583900+533597285+534251161+535639760+536929045
3304+537971776+539788460+542751001+546198245+549828876+553554621+556426543
3291+558418359+561001715+564649298+568236257+570636079+572066739+573411763
3277+574764652+575574119+576448607+578693619+581367937+582519998+582355613
3264+582008280+581804961+582183803+583033865+583071725+582491029+583082570
3250+584829690+586128696+586472072+586262841+585978185+586185070+586866497
3237+587150226+586588973+585876281+585488157+585737543+586995905+587825303
3223+586289123+583721595+582846325+583209730+583393607+583482614+583689743
3210+584538584+585578776+585665194+585044342+584340639+584390027+585592796
3196+586654873+586438218+585523623+585085035+585654838+586933863+587887246
3183+587824130+587319496+587193069+587469714+587634734+587353643+586541636
3169+585145758+583836591+584002099+585250739+585121772+582706513+579889940
3156+578946132+579815686+580430138+579755208+578194896+576363019+575072074
3142+574652001+574433929+573970036+573224028+571902990+570578190+570013371
3129+569809759+569828811+569902283+569176254+568114764+568179247+568678948
3115+567692786+565705562+564198058+563118835+562042249+561083737+560199820
3102+559118789+558290710+558171562+558058959+557489792+556723803+555712239
3088+554939850+555000523+555082936+554735261+554570729+554511766+554438244
3075+554940876+555603642+555160072+553771717+552221664+550477036+548338178
3061+545301481+541331479+537508666+534608410+532928462+532316990+531699313
3047+530392051+529100861+528701404+528897542+528925974+528860024+528697203
3034+527905323+526645007+525388208+524289542+523479538+522862643+522238518
3020+521755378+522030412+523547099+525505940+526560347+527007142+528476053
3007+531715141+535751239+539322663+542958228+548030561+554986698+564321604
2993+576938635+593062313+611002870+626609261+636494330+641110342+642664792
2980+642664401+641461486+638339885+632908104+625607662+616355023+605886962
2966+596430075+588731300+582066560+576128875+570866071+566675798+564445442
2953+564212518+564955450+565946057+566935932+567613109+567953212+568180713
2939+568285841+568067329+567202562+565496381+562989427+559405107+555001891
2926+551176587+548266464+544843255+539881571+534001677+528310007+522874758
2912+517684596+513701062+510911016+507816674+504134211+501131515+499313463
2899+498171172+497555450+497331467+496765133+495934856+495551959+495299837
2885+494525348+493147838+491309464+489009641+486065517+482522769+478619840
2872+474522873+470577932+467176267+464248655+461387774+458495530+455912418
2858+453658514+451274716+448465324+445222718+441659697+438013677+434653975
2845+431633790+428768952+426134741+423623440+421172910+418969128+416842532
2831+414561858+412217678+410165091+408559592+407164446+405891600+404749871
2818+403684277+402640177+401490241+400170302+398744869+397222514+395562717
2804+393858880+392189239+390580979+389007478+387306156+385573350+383957763
2791+382211670+380290518+378356615+376275890+374246849+372635097+371194202
2777+369832618+368697215+367495032+366134523+364852443+363563501+362270870
2764+361353417+360763366+360049209+359264314+358680736+358080207+357240134
2750+356333527+355505668+354685844+353738886+352721288+351888665+351342532
2737+350953333+350518312+349958256+349364737+348899721+348562109+348083561
2723+347464493+346969116+346619853+346293990+345820596+345174952+344630846
2710+344272790+343874285+343391268+342868949+342224600+341569357+340971612
2696+340231148+339376176+338479046+337338391+336053332+334942526+333868481
2683+332588844+331160162+329668535+328212423+326910267+325697166+324487680
2669+323314441+322141081+320992122+319883416+318662573+317485011+316547749
2656+315651962+314805246+314203789+313762368+313378274+313082650+312846527
2642+312655665+312567733+312588861+312709499+312917948+313218091+313671187
2629+314202005+314595356+314845744+315238924+315874822+316440056+316777863
2615+317143784+317656162+318148290+318611718+319067917+319324093+319393413
2602+319406994+319290630+319024439+318667702+318297775+317953080+317489383
2588+316808957+315991454+315068531+313984519+312793768+311596446+310458185
2575+309427544+308333640+307022348+305649870+304358436+303144651+302013791
2561+300958847+299950286+299017055+298146817+297324917+296675170+296237633
2548+296019170+296013528+295997871+295955297+296087904+296310373+296570628
2534+297051472+297677820+298207368+298674314+299262508+300014672+300765395
2521+301343966+301770341+302136823+302478832+302790381+303143552+303572980
2507+303934186+304130593+304090926+303799210+303491862+303320638+303073084
2494+302512881+301740566+301012070+300424169+299793913+298956455+298190734
2480+297641596+297025654+296314061+295644334+295001816+294388048+293815120
2467+293279904+292805436+292337904+291708943+290955802+290359742+289881878
2453+289212688+288416094+287732151+287083649+286394967+285725533+285059225
2440+284494235+284069888+283610807+283149064+282781165+282385078+281960365
2426+281662298+281461861+281225787+281005883+280919001+280841547+280567735
2413+280265565+280309018+280632976+280810209+280727601+280613900+280547608
2399+280457917+280329683+280211511+280177779+280183959+280133080+279985378
2386+279674366+279145624+278306211+277050048+275471466+273782968+272033601
2372+270101091+268065969+266239759+264612765+263038531+261797682+261056265
2359+260653877+260912740+262097361+263900952+266122516+267955198+268044669
2345+266265699+264493739+263933047+263991010+264247943+264582233+264827418
2332+264958608+265145123+265547584+266091031+266641879+267306037+268211106
2318+269192603+269927693+270208637+270132429+269965333+269904806+270036314
2305+270237313+270342832+270424047+270580665+270750448+270847246+270856040
2291+270864540+270938086+270962633+270863123+270705162+270460075+270086900
2278+269685049+269337789+269025971+268703650+268360445+267982604+267571349
2264+267242017+267055894+266860293+266550160+266203023+265851611+265481342
2251+265166959+264943928+264780569+264668089+264513988+264257103+264061111
2237+263991767+263870518+263693114+263658869+263747925+263778360+263742454
2224+263722571+263735126+263776748+263848388+263938275+264044941+264274763
2210+264676760+265038773+265208898+265341236+265646142+266131675+266646617
2197+267086231+267436861+267663067+267723643+267697312+267714044+267806421
2183+267842889+267636223+267305598+267132713+267040994+266798814+266447499
2170+266191469+266014676+265704226+265341774+265115421+264869601+264476909
2156+264066167+263758306+263539721+263339601+263112247+262794347+262369682
2143+261902542+261442899+260984674+260488979+260001198+259594169+259217183
2129+258799846+258407814+258099001+257804525+257490972+257126419+256717021
2116+256402906+256199050+255988671+255806578+255815396+255988061+256143506
2102+256282268+256520369+256879085+257275391+257666666+258134491+258699921
2089+259268331+259798319+260389420+261197348+262146090+262899988+263365664
2075+263831681+264530182+265426726+266268923+266819624+267273038+268038783
2062+269007847+269788760+270410369+271095900+271834141+272519868+273158696
2048+273741224+274217671+274645560+275062140+275527693+276140045+276726017
2035+277110990+277387391+277600383+277777688+278015301+278242949+278421134
2021+278574161+278485398+278168133+278065838+278254331+278398271+278323138
2008+278121040+277958072+277775051+277418558+276992232+276665905+276337624
1994+275678668+274824503+274443291+274504282+274601619+274736448+274819764
1981+274744045+274573187+274356776+274205849+274225268+274139583+273547065
1967+272906404+273046290+273565677+273613967+273169004+272537112+271840126
1954+271152885+270490021+269697090+268539558+266905163+264955824+263676309
1940+263782878+264117877+263793162+263096004+262410083+261940694+261627460
1927+261104530+260001394+258918286+258656492+258572907+258669340+259512636
1913+260130972+259803644+259309781+259552010+260238250+260783333+261138653
1900+261346198+261222311+260872926+260916257+261075879+260793518+261035039
1886+262069393+262948009+263558309+264051194+264437560+264754580+264939703
1873+264540001+262745520+260581455+261213811+263931533+265793136+266322098
1859+266460005+266715107+267012685+267204622+267198418+266758707+265741573
1846+264270903+263761433+265676112+267875888+268842265+269430875+269954439
1832+269182515+267347976+267164588+268564081+270103656+272185480+274132719
1819+275109184+275567556+275804656+275392400+274790307+275310696+276633981
1805+277434850+277018978+275853972+275573663+276414174+276711581+275633310
1792+275398555+278310950+281506780+282915042+283315574+283756238+284668317
1778+286014733+286474204+284917874+282835268+284385565+288809054+292797571
1765+294977391+295540280+296486628+298492538+300637576+302913291+303877201
1751+302369722+301225648+303627278+307389100+310386325+312745625+315325928
1738+317841308+318475130+318346407+322503558+329247095+335730669+340773691
1724+344407571+347379027+348659225+347286478+348428501+356914833+366672180
1711+374233635+379143219+382300286+386075542+390643143+394328976+398150079
1697+404521051+414830296+425251215+431954792+436597965+440133776+442029795
1684+446668913+457535357+468120172+476314301+483380208+491450547+499340967
1670+507571489+520010262+532308147+540627677+547527636+555566417+562677121
1657+566362955+565980888+567705292+577307120+584450652+592008589+606881869
1643+622052653+633381767+641486693+648111668+660845454+680472994+696878349
1630+710593705+724397922+738507850+753884396+772295196+788940655+801952943
1616+816231115+832118890+845143146+854888500+862496901+869084309+874918038
1603+879582169+882914612+884866907+884896315+882794340+879339671+875682268
1589+871636498+866059824+858930655+851096366+842715136+833455756+821336226
1576+808367270+803740022+801927051+796694242+793315195+794153386+794860851
1562+793895012+788198945+781754086+790860220+803418825+814530697+825379163
1549+836875740+846944686+854114401+859591907+868750752+893788432+918653471
1535+934098213+947995247+964133679+976920322+984568878+989631929+992820554
1522+993182738+995018766+999224085+1003195797+1006790865+1007420168+1002868786
1508+991972983+984972293+995504935+1006413733+1011408489+1010521837+1009571483
1495+1015036287+1020328451+1019352987+1016512379+1020875097+1028550229
1483+1033636240+1035260840+1034771838+1031418487+1024208811+1016601875
1472+1015236089+1020570265+1024624340+1022350799+1017813388+1016426303
1460+1013064354+1002097228+995333369+1002572259+1010381829+1014049588
1449+1014290718+1013524729+1013522775+1015330959+1018168147+1017221017
1437+1010087647+1006207971+1009278961+1011827340+1012793815+1014526279
1425+1014646844+1013265719+1012776033+1010609867+1008500466+1011129450
1414+1013919643+1014093750+1013750911+1013635133+1011792949+1008873691
1402+1006538010+1002574701+997566364+994638508+993754885+995590718+997625181
1389+994895368+988344794+985519135+987610851+990624686+992500089+992224470
1375+989283424+986800994+987679732+989569009+990860638+990804850+987481884
1362+983612955+983304899+984627207+985526951+985226711+983605725+981671896
1348+980253937+979686578+979645250+978266176+974811996+972643094+973707662
1335+975719360+977438537+978801587+979704750+980573523+981768622+982934313
1321+983739969+984515240+986300952+989412000+992997103+996612590+999712599
1308+1001966795+1004337257+1007191641+1010018278+1012888196+1016083562
1296+1019218841+1021701564+1023387815+1024266650+1025314121+1027519857
1285+1029824077+1031318635+1032125561+1032443095+1032751151+1032638598
1273+1031640467+1030618106+1030320602+1031011262+1031638220+1030244882
1261+1027961668+1027486638+1028288972+1028170459+1027025286+1026409270
1250+1026596176+1026751718+1027050395+1027934018+1028571626+1028261909
1238+1027918191+1028497079+1029462088+1029746208+1029740346+1030257877
1227+1030769643+1030975503+1030688843+1029358523+1027761964+1027324647
1215+1028218724+1029224280+1029415680+1029587636+1030384499+1030341706
1204+1028761072+1027112046+1025990614+1025195705+1024863321+1024726928
1192+1024460297+1023826891+1022428472+1021387548+1022678591+1024896833
1180+1025589740+1025764335+1026302384+1026056271+1024990823+1024443004
1169+1025226189+1026885962+1028396641+1029642154+1030784592+1031181558
1157+1030986152+1030958600+1031099292+1031844568+1033723488+1035476665
1146+1035605535+1034542823+1033333264+1032154677+1030816247+1029757150
1134+1028974552+1027291526+1025199809+1024318531+1024151850+1023467149
1123+1021979431+1020235731+1019324263+1019151622+1019026953+1018846497
1111+1018514894+1019283521+1021535958+1022636188+1021436692+1019561973
1099+1019182008+1021382467+1024713933+1027472569+1030222508+1033454318
1088+1036279684+1038678871+1040803806+1042467976+1044567900+1047498785
1076+1050425567+1052303607+1052812052+1053520592+1056055684+1058719840
1065+1059033661+1058489067+1059382753+1061380675+1063539318+1065448135
1053+1066944745+1068071452+1069039100+1069478469+1069308075+1069190832
1042+1068459332+1067722556+1069402749+1072093188+1072510085+1071024321
1030+1069898199+1070140209+1071008200+1071268870+1070958664+1071220410
1018+1072623616+1073741823+1073354627+1072800067+1072799871+1072412285
1007+1071730125+1071577415+1071785913+1071315963+1069743341+1068146586
995+1067982348+1068793768+1068820344+1067592709+1065774853+1064637008
984+1064862310+1065424589+1065472952+1064610042+1062256873+1059437760
972+1058313983+1058266695+1056611905+1053556644+1051290333+1050350726
961+1049833488+1049196076+1048916744+1049231835+1049963531+1051017254
949+1050916718+1048630866+1046201000+1044824467+1043674800+1043359122
937+1044548652+1046357325+1047820813+1048427644+1048180359+1047585545
926+1046986237+1046332020+1046115901+1046941684+1047422186+1046053176
914+1044794277+1045315032+1045438529+1043600643+1041151628+1039842901
903+1039921356+1040298097+1039787308+1037825731+1035755216+1034904323
891+1034771350+1035195575+1035599282+1035133924+1034073069+1032359754
880+1030885519+1030908772+1030862265+1029526279+1028276857+1027769389
868+1028433279+1030818006+1033173325+1034782683+1037733597+1041957968
856+1044128531+1042357572+1039252092+1037800133+1036849779+1035436314
845+1036098445+1039047210+1040728380+1040185055+1039199138+1038371400
833+1036866388+1033880301+1031240863+1031189081+1032670254+1034208485
822+1035373687+1037052707+1041032333+1044791834+1043616374+1039039296
810+1036325409+1037003172+1039171976+1040195119+1038912576+1038298221
799+1040470445+1042607691+1042857614+1042124258+1041578589+1041287923
787+1039862246+1038662457+1040416122+1043318673+1043058003+1039980466
775+1039126838+1040551147+1039486579+1036215591+1033704241+1031499189
764+1029059162+1027692107+1027263680+1026692413+1026241515+1025949481
752+1025297316+1025151837+1026514008+1027724251+1026768132+1025300052
741+1026059104+1028613150+1031165241+1033488514+1035001244+1034163444
729+1031580380+1029619292+1029374351+1031356739+1034836517+1035351020
718+1030836472+1025887636+1024718623+1026616889+1028646955+1029969263
706+1031300364+1031134856+1027659962+1023754298+1022366040+1022155198
694+1023073798+1025731116+1027701388+1027920731+1027606812+1027372423
683+1028318088+1031827763+1035737336+1036022530+1034620594+1034779459
671+1031556541+1023750683+1024553799+1034417080+1040689787+1042971145
660+1041734718+1035135683+1027410625+1025685977+1029055157+1032900832
648+1037797495+1044984504+1051711334+1054477883+1051359702+1045954594
637+1040231464+1025461945+1009315405+1011124565+1022984498+1028183844
625+1022970918+1009962489+999864526+1001360159+1012641204+1024749204+1028485648
611+1025781335+1023127242+1021520521+1024454044+1033613866+1036441968
600+1021398295
##END=
