##TITLE=Sample description
##JCAMP-DX=4.24
##DATA TYPE=INFRARED SPECTRUM
##DATE=24/8/2023
##SAMPLING PROCEDURE=Instrument type and / or accessory
##ORIGIN=Default
##XUNITS=1/CM
##YUNITS=ABSORBANCE
##RESOLUTION=4
##FIRSTX=4397.6552
##LASTX=599.8556
##DELTAX=-1.9287962
##MAXY=1.3447535
##MINY=0.40075028
##XFACTOR=1
##YFACTOR=1.2523993e-009
##NPOINTS=1970
##FIRSTY=0.56995541
##XYDATA=(X++(Y..Y))
4398+455090809+455390545+454634160+453468099+453606022+454701551+455321774
4384+455372222+455622130+456635800+457314752+456266578+454573622+453472240
4371+452587736+452196527+452909175+453738852+453600501+453236515+453771168
4357+454500568+454270745+453797201+454035305+454674471+454694555+453342693
4344+451867616+451676628+451671630+450823677+450144677+450539360+451172339
4330+451173671+451291605+452291949+453325465+453007834+451771051+451343433
4317+451743257+451280326+449753039+448979568+449390957+450005802+450716309
4303+451196040+450463879+448884288+448535722+449701735+450181228+449637533
4290+449334893+449303101+448987373+448691444+449492138+451095287+451209318
4276+448988896+446926576+446657299+446848001+446732114+446683427+446578629
4263+446213262+445449880+444370676+443893943+444505695+445290398+445928517
4249+446420765+445904340+445198735+445815104+446622271+446101325+444978240
4236+444733520+445521507+446047307+445679704+445374780+445672565+445845421
4222+445401669+444908422+444671317+444154511+443663644+443867196+444001502
4209+443519677+443220844+443404123+443458759+443391511+443766872+443685251
4195+442212981+440974104+441069527+441513421+441939753+442610710+443273862
4182+443407930+442733261+441725159+441072382+440716582+440383483+440114015
4168+439859253+439463808+438980936+438949001+439306563+439053895+438393265
4155+438499444+439388755+439933973+439404936+438184811+437310682+437482300
4141+437891071+437587526+437094612+437187893+438060737+439108531+439254497
4128+438191331+436945268+436399288+436012695+435775876+436158756+436445262
4114+436249372+435824800+435203910+434505350+434236500+435059372+436198543
4101+436243470+435664271+435365439+435131570+434787287+434334731+433745680
4087+433288270+432984441+432862747+433427192+434212514+433972982+433032652
4074+432551207+432540832+432645345+432760566+432583570+432063957+431425648
4060+431134668+431754035+432544973+432471347+432101364+431975720+431600883
4047+430980945+430845259+431274494+431533730+431215147+430646608+430539097
4033+430897610+430666835+429517479+428605086+428754336+429316164+429503630
4020+429349716+428873317+428071957+427583849+427980770+428568583+428414764
4006+428200599+428592903+428792791+428621172+428545025+428177516+427533211
3993+427134673+426850641+426693967+426713956+426645280+426566753+426282912
3979+425658215+425228027+424925007+424451272+424217118+424305973+424334766
3966+424482207+424972789+425350387+425747307+426440395+426341784+425197235
3952+424272848+423626211+423008938+423317812+423807585+423344797+423181793
3939+423803778+424192417+423907672+423006654+422629532+423504089+423889540
3925+422855786+422248650+422666463+422429596+421533194+421800139+423303440
3912+424465740+424745821+424578915+423376399+420774191+418479620+417432541
3898+418119536+420247534+421329023+419843094+419130589+420864140+420908306
3885+419054393+418420796+417559184+417999842+420124698+419959981+417883669
3871+416100478+415583434+417222277+417657652+416397407+417216328+419379068
3858+421035092+420369799+413327080+409120058+413843267+419361174+422044098
3844+421245593+418524405+415596427+412897226+413037386+415503670+417263492
3831+418570807+419901299+420342433+420500154+418938315+414329042+413333838
3817+414627018+415362653+418875779+422925271+423600749+420489493+418757274
3804+418990048+416547132+415687757+418104830+419987822+421753880+423502185
3790+424533036+424830916+423740385+422114820+421935825+421834216+421089490
3777+421922642+423730153+424346950+422752272+421144222+421492027+422305428
3763+423259797+423151858+421104006+420956232+423673851+424941521+421862771
3750+421079829+426628337+432191599+436108689+442442471+450430469+456579212
3736+458006602+457008305+460703233+467913286+472463735+471067375+466006213
3723+461177111+457217997+454649294+454276598+456705284+462844652+475473476
3709+494242002+513940244+531831261+546919992+559631817+571296563+580090681
3696+583659537+582708499+576819895+563589170+550787300+545422260+541683594
3682+535888082+528198298+519103825+504955091+491770435+488302141+484043291
3669+478149833+477280701+477604663+476667997+475706822+475526590+475613446
3655+478206040+484583083+491019189+493598696+494565487+496605391+497491085
3642+496059268+492802951+489048580+485615600+483267012+482135789+477465740
3628+468169429+464841104+464485827+460376797+450635021+439508164+433118127
3615+429158538+426130616+425387366+425485549+425851487+427261935+428115361
3601+426926694+424392305+421555039+418302291+415189560+412974611+409309285
3588+402493821+397457811+395875412+394346936+391722122+388906153+386716261
3574+385232260+384392469+382984401+378337507+372416302+371501125+373126119
3561+373227895+372297607+371830226+371223804+369469478+367663776+366727801
3547+365400521+363556531+362927456+363544015+363947717+363193330+361961735
3534+361379799+360543268+358380624+356070609+355019841+354697236+354423723
3520+354550628+354772837+354430029+353624695+352620163+351641283+351112294
3507+351073102+350389723+348758447+347923153+348198547+348175726+347536251
3493+346854491+345857288+344377260+343207868+342805713+342740321+342567918
3480+342649229+343005458+342772493+341658523+340623198+340628219+340875557
3466+340280700+339217939+338239916+337646106+337360123+337094581+336945379
3453+336768574+336382885+335889471+335550447+335277219+334298435+333223823
3439+333334689+334016236+334146829+333538028+332731766+332087865+331372266
3426+330954262+331013919+330611978+329662748+329338002+329918248+330475697
3412+330325020+329617750+328671137+327884912+327820757+328346224+328853488
3399+329131046+329240580+329097089+328683940+328665474+329311588+329741513
3385+329634216+329731019+330288921+330928134+331596569+332349551+333252140
3372+334657614+336445660+337761303+338242248+338694232+339878116+341368638
3358+342277866+342931309+344484415+346633281+348212586+349248315+350130678
3345+350847466+351788320+352997594+353854376+354452517+354873685+354738118
3331+354592985+354960517+355305300+355236958+354963302+354621660+354265122
3318+353994607+353597496+353084807+353020010+353300258+353396751+353555710
3304+353841788+353569178+352922874+353137968+354220409+354774526+354655712
3291+355061937+356165509+357131729+357514276+357516561+357684562+358432975
3277+359773034+361193547+362245695+363410899+364765187+365287609+364974189
3264+364799335+364969787+365367897+366088303+366921098+367271377+367251960
3250+367914041+369165839+369902593+370242973+370753473+370949886+370760635
3237+371165099+372147001+372733529+372749401+372626470+372829666+373539482
3223+374186334+374192616+374003984+374018904+373905824+373968480+374558387
3210+375042687+375090874+375102106+375224514+375392872+375661221+375745412
3196+375616865+375889117+376514576+376939005+377230889+377609248+377904178
3183+377897491+377589545+377329238+377368931+377725873+378515645+379292709
3169+379512134+379630805+380038101+380297122+380279465+380444135+380751153
3156+380796794+380865494+381446930+382159840+382477923+382497151+382324676
3142+382130713+382074626+381881067+381430511+381272575+381789595+382067130
3129+381484147+381228267+381769654+381765394+381062860+380940452+381483814
3115+381790785+381416518+380623415+380269495+381047249+381988864+381529526
3102+380381480+380326510+381470203+382260807+381638227+380638098+380556715
3088+381626210+382896165+382940497+382064393+381669686+382118077+382256333
3075+381408118+380909279+381705880+382820065+382823587+381602462+380448371
3061+380399303+381333922+382212501+382246339+381838663+381566125+381164398
3047+380512478+380245913+380435092+380614777+380857165+381136318+380917917
3034+380136355+379452263+379284285+379149908+378569448+378097831+378825067
3020+381665260+385698308+387519240+385735192+382900900+381191882+380511074
3007+380108514+379807111+380010307+380719338+381300798+381839067+383034016
2993+384624910+385906144+386775728+387402210+388087969+389337530+391318110
2980+393441515+395181040+396793397+398722340+401110644+403807227+406266229
2966+408104151+409518739+410621407+411460222+411795082+411151300+410172516
2953+409561668+409073703+408473944+407520241+406264469+405070043+403974847
2939+403030662+402149157+400930078+399501355+398539728+398334581+398402115
2926+398130267+397408886+396416585+395620960+395196388+394396622+393161862
2912+392388486+392356076+392722918+392915119+392701049+392535237+392760896
2899+393324033+393917795+394116755+393961414+394081513+394984935+396616592
2885+398578682+400617634+402941760+405912999+409712297+414535879+420350476
2872+426652752+433371747+440964586+449248893+457363630+464449467+469853675
2858+473213458+474364812+473018710+468853236+462181072+454108550+445748427
2845+437671051+430220704+423632731+417820704+412532431+407713180+403694624
2831+400591411+397996199+395789032+394089461+392796852+391839437+390989556
2818+390063789+389372272+389017828+388775988+388642277+388510827+388308083
2804+388285858+388371143+388267677+388107386+388169994+388363505+388425613
2791+388463996+388620146+388618029+388435631+388484889+388804971+389090359
2777+389339124+389611281+389727835+389727668+389813739+389901119+389783637
2764+389618610+389790324+390299967+390996219+391725001+392044393+392018027
2750+392350745+393186658+394030970+394649576+395134375+395526489+395972167
2737+396595865+397238672+397803688+398433573+399411025+400801912+402155820
2723+403019716+403369853+403430629+403449856+403497448+403413210+403061312
2710+402513809+402086335+402071676+402198224+402133689+402143446+402364036
2696+402583532+402756864+402823065+402671388+402363084+402072581+402041217
2683+402242866+402315968+402136925+401842662+401699885+401981156+402335386
2669+402189991+401760470+401607936+401697600+401689938+401773034+402241295
2656+402705987+402853619+402944044+403008675+403008818+403239831+403779433
2642+404415695+404914701+405179743+405330897+405530404+405945695+406540028
2629+407007433+407238684+407419154+407773527+408339162+408893471+409316757
2615+409778451+410428563+411271185+412221319+413127288+413888765+414504182
2602+415064344+415716836+416462846+417148557+417667647+418001079+418330180
2588+418846890+419325194+419538217+419734345+420232970+420990260+421762161
2575+422393426+422835273+423125920+423299489+423453213+423698361+423908053
2561+424136116+424572442+424992540+425166633+425249920+425478696+425861101
2548+426337167+426836792+427075230+427108830+427364734+427779026+428137920
2534+428509235+428766329+428825344+428953510+429290797+429681626+429944716
2521+430109433+430315937+430551328+430836502+431240609+431604547+431847126
2507+432128444+432455451+432736865+432962072+433132453+433380980+433682811
2494+433768287+433735638+433838438+433998301+434023953+433922296+433949138
2480+434128323+434179056+434120613+434117472+434125943+434106811+433999586
2467+433720266+433406537+433234443+433093094+432791168+432471204+432275219
2453+431976006+431561762+431278825+431156656+431156894+431058282+430513588
2440+429759915+429341911+429214506+428955414+428459692+427996047+427726579
2426+427405140+426840076+426192677+425667162+425334301+425011101+424526087
2413+424079671+423777269+423492667+423229576+422879772+422312376+421705859
2399+421149504+420651117+420698186+422339504+427369731+438782571+459911677
2386+492393800+535091814+584796376+638372339+694228309+751778044+810901849
2372+870375173+926747377+976127217+1015511327+1044206572+1061863530+1065168820
2359+1053885432+1029228874+990599103+939597221+888436570+860803491+870230777
2345+907132660+935323141+934432307+921246176+910279562+905289693+906053931
2332+908287727+905437134+896366601+883770139+868516500+849807561+827534048
2318+801772111+775568468+757663935+750577194+742555548+721246780+687657707
2305+652872685+626361834+607435493+590358162+573054625+554858208+534623124
2291+513904835+495168530+478785810+464667487+453776593+446796506+442844484
2278+440159846+437786701+435761979+434072925+432543354+431073893+429512006
2264+427877970+426440633+425210323+423972160+422762552+421726514+420755392
2251+419672761+418654712+417961577+417464665+417001592+416602101+416246206
2237+416015811+416043795+416268669+416681200+417213045+417632048+418073705
2224+418780023+419587332+420293936+420924107+421626427+422519926+423564579
2210+424548218+425387176+426299569+427399048+428665719+430039473+431310141
2197+432448455+433586865+434794331+436162421+437752720+439546428+441384493
2183+443010248+444442160+446064060+448053040+450052490+451754822+453392190
2170+455300072+457355301+459298021+461198194+463098462+464804934+466260737
2156+467644199+469114613+470597401+471915804+473011904+473908164+474674781
2143+475212337+475286914+475064277+474850730+474498404+473764958+472680661
2129+471251558+469556222+467918236+466318847+464388548+462050906+459554211
2116+457117292+454674137+452018769+449209201+446539365+444060707+441552018
2102+438961280+436358263+433825826+431562428+429613997+427817671+426204051
2089+425041608+424520947+424757577+425871999+427867880+430643991+433981453
2075+437581911+441261990+444889242+448208572+450984254+453265737+455169622
2062+456680774+458015645+459417764+460634510+461402413+461891853+462279017
2048+462433644+462013213+460878040+459363746+457818279+456187622+454266414
2035+452097249+449858504+447530952+445018503+442327726+439552996+436948504
2021+434640845+432229816+429471220+426837077+424531703+422230041+419886450
2008+417577079+415233012+412915882+410756141+408785674+406965504+405213915
1994+403311124+401298443+399733130+398676865+397862132+397327098+396930606
1981+396581326+396431576+396518385+396777859+397232604+397832172+398371013
1967+399095916+400550720+402590671+404818422+407197707+409681553+412236073
1954+415025509+418149900+421508065+424866801+427947265+430649702+433483256
1940+436801443+439981565+442691855+445057005+446955132+448239792+448974238
1927+449221433+448746604+447771055+447065879+446308256+445295729+444610113
1913+443688915+441884260+439747649+438030659+436659904+435209288+433585722
1900+431960205+430220609+428270797+426711814+425478363+423931135+422953398
1886+423114545+423481197+423772700+424202602+424751961+425405452+426092638
1873+426468046+425829309+424528991+424887171+426860207+428379641+428855612
1859+428780369+428562634+428111934+427338463+426378858+424975407+422820472
1846+419903203+417093064+416147832+415778753+414135389+411778377+409548294
1832+406497433+401848896+397907416+395693585+393462217+391475569+389712677
1819+387290059+384458432+381698170+378674318+375284932+372546396+370648294
1805+368728132+366097202+362698346+359847539+358369511+357062387+354503559
1792+351784441+351760907+352903504+352866382+351777778+350533499+349605591
1778+349348759+348942082+347116606+344370455+344164903+346573910+348717874
1765+349556785+349071272+348523317+348971232+349483636+349893572+349594597
1751+347153537+343924443+343042580+343524786+343499419+342545145+341242732
1738+340596499+339089558+335415166+334399473+336432120+338228969+338885863
1724+338297835+337209636+335390775+330970158+326553015+327812500+330905789
1711+332432386+331923147+329549788+327179283+326401434+324537455+320949348
1697+320290146+322734204+325944166+327589411+327143613+325780901+323085245
1684+319986030+321955997+325746539+327998538+328208849+327705298+327477949
1670+327075936+328732341+332176053+334020043+334518383+336381862+338932884
1657+340020322+338191276+335628975+338918488+342021343+344152291+350345724
1643+358107753+363821002+367387907+369653732+375128306+386307062+396912783
1630+406334334+416331206+427009838+439292333+454613600+468962079+482067303
1616+499863897+520402668+539236252+558724374+581026584+605833439+631664861
1603+658750057+687038435+714820431+741311388+767704353+793610401+817218689
1589+837828182+854413360+866686479+874819728+878534027+877467101+870120458
1576+856667144+846869589+839113747+824543344+808078670+796684630+787152497
1562+779288954+768391825+751431857+750551399+757529867+763015173+767445594
1549+772463590+777265422+780072610+780091599+779845594+790123070+804617658
1535+813890840+820565289+828548527+835698994+840466131+844546701+848539415
1522+853447235+861359275+870078577+879292554+888537085+894599306+895769126
1508+892340953+894037430+906684435+916670741+921725621+923240486+925252787
1495+930703635+935522077+936223969+934982094+938338117+944648008+949357463
1481+950977031+950776382+949493196+945533417+939147568+937233594+942400316
1468+946729793+945648019+943046049+943727286+943527018+937580066+933650935
1454+940198217+948077895+953018553+955559224+958892974+963812692+968940770
1441+973596064+975833191+974126529+974648617+980095468+984759520+988476008
1427+993684992+998021704+1000040857+1000550191+1000109295+1002627312+1008601772
1414+1012955617+1014353500+1014203679+1013462951+1012409732+1012770768
1402+1014893483+1014742900+1011066771+1007480210+1006655625+1009325747
1391+1011833579+1009717813+1004080497+1001734098+1004201001+1007687427
1379+1010234095+1012012907+1012335774+1011610371+1011729637+1012200231
1368+1013214614+1014389289+1012804178+1010206301+1010353361+1011427426
1356+1012394122+1013785532+1013855208+1011617510+1009580366+1008526671
1344+1007301929+1006146577+1004778296+1003932199+1004800189+1005617350
1333+1005794869+1006680563+1007946901+1008262438+1008071593+1008732270
1321+1010382488+1011839956+1013091350+1015961170+1020241817+1023826094
1310+1027052190+1031406796+1035724756+1038741255+1041716159+1045354310
1298+1048761066+1051291077+1052980130+1054497469+1056379652+1058126673
1287+1059045586+1059394819+1059975922+1061607959+1063979772+1065481502
1275+1066039760+1066017963+1064367174+1061974420+1060411582+1058624965
1263+1056282088+1055256758+1055841478+1056753919+1057924024+1058994948
1252+1058896432+1058710060+1059855418+1061321548+1061928351+1061734269
1240+1061562366+1062218664+1063226575+1063690220+1063489856+1062871346
1229+1062062181+1061416638+1061302606+1061363905+1061272814+1062033720
1217+1064177661+1066137991+1066886904+1066949726+1066626860+1066802856
1205+1068446411+1070812894+1072749903+1073741823+1073575726+1072514987
1194+1071105111+1069905212+1069599384+1069936813+1070037995+1070474512
1182+1071530777+1071578369+1070389226+1069760341+1070030475+1069705419
1171+1067409088+1063865265+1061889991+1062224375+1062369056+1060869421
1159+1058940121+1057366623+1055392872+1053144323+1051568159+1049971531
1148+1046632831+1042457267+1039394603+1035920266+1030565839+1025056642
1136+1021139695+1018461387+1015124115+1010645769+1005773262+1000240555
1124+994317019+988589658+982619006+976278751+970074800+963976029+957604363
1111+951372809+945807739+940859370+936412149+931799688+926435076+920694009
1097+915328636+910962322+907115622+903755982+902187337+901170860+898544427
1084+895826998+894789009+894197626+892758338+891402146+890802577+889983513
1070+889481318+890579369+891838663+891702358+891320668+891762515+891888159
1057+890847695+890082124+890796200+892164861+893213987+893704284+893756064
1043+893678679+893750353+894819944+897086578+899182451+900078900+900088133
1030+900525317+901462696+901281845+900241666+900298111+901584437+902421587
1016+902485646+903237986+904910096+905887073+905332622+904500612+904640057
1003+905238960+905352610+905027079+904560483+903890668+903333361+903347544
989+903410556+902335921+899785827+896861847+894510118+892208360+889552040
976+887044208+884678868+882053673+879220214+876818513+875342864+874094992
962+872276202+870590956+870089523+870397731+870915822+871654551+872227943
949+872877484+874576151+877068848+879129312+880432201+881661036+883332194
935+885690015+888712511+892063299+895275403+897929629+900009035+901580630
922+902945198+904860600+907080118+908069944+907674356+907297996+907151887
908+906372324+904757135+902993362+901156201+898962479+897226880+895965207
895+894377145+892735779+891383775+890501793+890357208+890324940+889562320
881+888182713+887114550+887628262+889467992+891177605+893383511+897764293
868+904115494+910851527+917723008+925750317+933828169+939823951+943332174
854+945231871+946801848+947402749+945604329+943334840+942291615+940689466
841+938377714+937388840+938398369+941451324+944770701+944960214+942595825
827+941709751+944276121+949153863+953628402+955454140+954930624+954736162
814+956731710+959764676+962033785+963552933+965611779+968974750+972897694
800+976327200+979362260+983287298+988178270+992215340+994939527+997733960
787+1002067245+1008200949+1013691585+1016664299+1020438850+1026337448
775+1028749333+1027499939+1028460638+1031682736+1034759297+1037093988
764+1037608176+1036364493+1036067231+1038683193+1042252810+1045795396
752+1049919274+1051444610+1049266688+1047130266+1047094572+1048927925
741+1051047118+1050891681+1048037853+1044702580+1042462883+1040475426
729+1038168434+1037218014+1038660729+1040837889+1040585460+1036802628
718+1033250239+1032774029+1032414136+1029567351+1026495169+1025653640
706+1026119570+1025908450+1025737308+1027914183+1031402798+1032574998
694+1031211191+1030004535+1029947995+1030663594+1032364450+1035165927
683+1037655959+1038548697+1038930673+1039490835+1038744587+1038120651
671+1041370924+1045781975+1043202373+1037182605+1033597473+1032067568
660+1032051197+1032076801+1033982971+1039475986+1043845156+1042894831
648+1039660264+1038357851+1035672690+1028099317+1021572024+1021339964
637+1025563310+1033828391+1041261652+1036343552+1024928333+1021493497
625+1024769755+1026451479+1020882220+1009012589+1002371551+1005184164
613+1008282903+1011671004+1020704225+1027405896+1023582992+1016299837
602+1019418374+1034839633
##END=
