##TITLE=Sample description
##JCAMP-DX=4.24
##DATA TYPE=INFRARED SPECTRUM
##DATE=24/8/2023
##SAMPLING PROCEDURE=Instrument type and / or accessory
##ORIGIN=Default
##XUNITS=1/CM
##YUNITS=ABSORBANCE
##RESOLUTION=4
##FIRSTX=4397.6552
##LASTX=599.8556
##DELTAX=-1.9287962
##MAXY=1.6457621
##MINY=0.46263397
##XFACTOR=1
##YFACTOR=1.5327354e-009
##NPOINTS=1970
##FIRSTY=0.66933894
##XYDATA=(X++(Y..Y))
4398+436695693+435888967+435268046+434801510+434335362+434309229+434793732
4384+435163943+435444558+435871156+436132326+436358109+436280411+435467501
4371+435065324+435255602+434315879+432578880+432238223+433336024+434415587
4357+434758772+433893053+432323893+431432313+431628618+432326031+432892393
4344+433324708+433675281+433496359+432607307+431652223+431440091+432088816
4330+433191245+433638804+432638261+431526577+431829824+432850044+433234177
4317+432846777+432000113+431374331+431806102+432745825+433216989+433261438
4303+433048060+432627917+432806879+433629432+433485120+432428578+432144348
4290+432256656+431631574+431312733+432366902+433581173+433735907+433165852
4276+432178530+430699784+429278126+428683259+428963407+429617810+430472485
4263+431542560+432052339+431886055+432210146+432887260+432740186+431672950
4249+430777326+430916078+431367720+431136183+430731322+430697645+430499085
4236+430174877+429901730+429228233+428572313+428316587+428369046+429038383
4222+429656465+429268637+428650477+428592379+428770718+429352285+430182538
4209+430111335+429444021+429662725+430563405+430708612+430068753+429779155
4195+430069491+430021543+429117519+428099088+427712077+427861483+428114876
4182+428160141+427915810+427586858+427588180+427656662+427534204+427940776
4168+428679448+428720475+428312854+428354541+428958663+429418783+429345635
4155+429136691+428644100+427616568+427043246+427396658+427911221+428193818
4141+427956681+427119466+426564927+426618475+426630958+426568893+427000431
4128+427667511+427602919+426799381+426165122+426104029+426225786+426039203
4114+425747234+425859503+426289523+426452463+426187288+426114101+426463041
4101+426754077+426739027+426443791+426068641+425864402+425483964+424614355
4087+423890810+423912315+424452738+424856471+424851532+424818633+424870548
4074+424846049+424708036+424521258+424497653+424453282+424253788+424402456
4060+424956918+425171773+424900842+424976362+425566561+425819176+425420304
4047+424782817+424081243+423476072+423426607+423908115+424204128+423918731
4033+423463939+423289877+423332109+423167536+422886650+423139887+423581691
4020+423459895+422933704+422408136+422163416+422170882+422050369+421827309
4006+422220658+423322465+423858650+423210741+422358671+422279457+422919432
3993+423546186+423760575+423683888+423346498+422576792+421722662+421681674
3979+422491745+422951204+422484201+422198842+422741210+423320443+423391763
3966+423108699+422749843+422400709+422109867+421981810+421893379+421741717
3952+421557194+421180994+420911152+421187061+420846754+419690076+419765752
3939+420973061+422005765+422258029+420978233+419497582+419910842+420701275
3925+420243371+420229877+421408332+421485096+419988695+419482377+420563534
3912+421597482+422050524+421686302+419324026+415878843+414555220+415430428
3898+417496534+419869932+420425405+418362254+417580415+419328420+419122004
3885+417082380+416623310+416116641+416816738+419534681+420421011+418646601
3871+416056754+414922476+416493658+416965794+415895914+417013937+419234739
3858+420224044+418004136+410315910+407688147+413211920+418543160+421006971
3844+420676892+418758481+416083275+413368832+413315711+415086893+416135502
3831+417039098+418030386+418217241+418556731+417537094+413534805+413069396
3817+414805307+415356619+417808686+420792739+421301235+419208179+418506177
3804+418962447+416053565+414251895+416249871+418248701+420274170+422647685
3790+424089682+424166291+423240568+422354393+422224080+421541834+421035398
3777+422598492+424147080+423553536+420837304+418709366+418859900+419818639
3763+421137051+421349339+419454572+418659123+419745841+419415062+415415456
3750+412843731+415063755+415819966+414173070+416340051+420012767+420044227
3736+415156813+411067882+412845364+417560855+420881014+420757584+419074444
3723+418793325+419957196+421933511+424355907+425925884+424031817+420341563
3709+421858224+426874823+431539215+435050780+439090674+445670249+453204558
3696+459593156+464252843+466641718+466490172+467274266+470135822+471852678
3682+471133643+468778134+464697486+455474359+446979639+445763813+442776883
3669+438569850+439039109+439733916+437986456+435468240+432936064+428791912
3655+425183789+424042355+420502092+412775833+410787307+414953742+418934409
3642+420585311+420025328+418295095+415860915+413264613+411058277+406311559
3628+399748667+399368228+401554420+401288933+397190980+391985659+389600867
3615+387844890+385597800+383920376+381483319+378917661+378214881+377890129
3601+376432227+374416752+372180395+369448569+367328836+366538987+364809298
3588+360392815+357796007+358818250+359579944+358640883+357008025+355271531
3574+353810401+352819269+351223821+347159427+342760211+342964644+344916693
3561+344965030+343772109+342678430+341447360+339961770+338829864+337725257
3547+336155319+335215869+335373948+335447640+334910755+334079180+333529268
3534+333598566+333372628+331753264+329621709+328292992+327372597+326605924
3520+326248235+326072112+326083915+326103825+325485685+324176451+323086504
3507+322795177+322098969+320555631+319798817+319829655+319641535+319307431
3493+318705973+317588767+316568702+316204635+316179922+316015115+315678153
3480+315399833+315190092+314829447+314174363+313288364+312452569+312002871
3466+311765636+310990214+309679619+308533810+307829242+307848647+308402487
3453+308529377+307874857+306780225+306029050+306064963+305909334+305332628
3439+305346745+305734650+305672177+305201266+304630374+304030044+303392401
3426+302800860+302318905+301986570+301835511+301910525+302336949+302932379
3412+303048536+302527382+302149646+302254954+302429249+302652990+303137434
3399+303652502+303803542+303672724+303622617+303612273+303473677+303531347
3385+304015111+304520749+304933854+305487830+306096870+306775831+307732470
3372+308871628+309664200+309809854+309798110+310292471+311463750+312891962
3358+314079341+315066312+316148948+317453224+318693879+319262516+319460454
3345+320451528+322045362+323156502+323814833+324273320+324462509+324598363
3331+324864297+325366455+325979968+326343199+326439018+326388697+326165715
3318+326032777+326399780+327134254+327657605+327700926+327673121+327907692
3304+328149030+328261221+328441893+328707419+328871992+329094080+329615331
3291+330110450+330410120+330757932+331207396+331899287+332857521+333642781
3277+334214353+334947427+335820029+336624772+337325919+338122184+339071240
3264+339769937+340306354+341091537+341572812+341348468+341319458+341931824
3250+342568533+342991982+343133378+342949089+343008898+343512261+344023052
3237+344396219+344628379+344667461+344777319+345142475+345499815+345648444
3223+345766857+346080875+346352079+346082353+345526492+345457894+345798317
3210+346070959+346427210+346921045+347332089+347729250+348276439+348904710
3196+349262050+349211535+349015268+348989213+349462011+350264226+350847037
3183+351399515+352201925+352657612+352370348+351929594+352051819+352756543
3169+353679077+354467526+354849521+355089575+355332040+355245087+355285491
3156+355917923+356523717+356673201+356665540+356887006+357384653+357933515
3142+358455816+358853754+358858538+358588579+358513137+358600634+358524142
3129+358503492+358708586+358751169+358612145+358807906+359466276+360196277
3115+360483190+360295946+360359605+360896956+361268723+361227385+360922817
3102+360401098+360093380+360568510+361341871+361491667+361183326+361163065
3088+361708233+362297538+362183908+361580797+361481050+362259972+363146069
3075+363433449+363272726+363044688+363023844+363269693+363519586+363644610
3061+363739651+363731913+363781961+364211982+364597476+364429715+363958590
3047+363583984+363470626+363665220+364084508+364522345+364671363+364485596
3034+364314179+364126118+363758279+363442005+363277820+363469693+364065570
3020+364489213+364495357+364368583+364356295+364697185+365426914+366051529
3007+366141048+365834185+365610697+365986275+367067005+368429982+369561188
2993+370314288+370793230+371169080+371575768+371849888+372246465+373053970
2980+373584243+373720895+374223052+374948115+375269833+375290949+375323109
2966+375393418+375274072+374636624+373934855+373703706+373564099+373525601
2953+373955660+374485739+374807769+375295849+375927697+376054355+375803023
2939+375786068+375846111+375789840+375949863+376417683+376801194+376615272
2926+375917937+375363047+375238995+375237440+375145353+375019007+374953598
2912+375180936+375810062+376387973+376598433+376634871+376705297+376870842
2899+376980195+376968451+377047626+377301407+377525284+377681613+377981904
2885+378130183+377867380+377690985+377774905+377714551+377548578+377787621
2872+378250424+378232264+377956122+378114006+378711555+379369264+379844006
2858+379976185+379810096+379586919+379102572+378159971+377395944+377417682
2845+378040003+378726955+379098605+379329871+379881299+380581007+380983495
2831+381225532+381613904+382140950+382602392+382968443+383438790+383992941
2818+384360936+384473905+384677054+385276859+386098869+386718312+386913139
2804+386916950+387106450+387527916+388029490+388523482+388908859+389130636
2791+389350391+389769484+390347045+390823731+391122739+391479379+391924333
2777+392133316+392102011+392265534+392662150+392978852+393174613+393287349
2764+393488865+394116319+394949800+395480579+395768349+396042974+396328410
2750+396704611+397149525+397493332+397681704+397830956+398115147+398563368
2737+399035037+399481508+400034219+400669645+401204235+401639584+402014384
2723+402326458+402718330+403233243+403738162+404239736+404787704+405216674
2710+405319805+405272634+405522021+406052411+406494137+406742941+406857543
2696+407014883+407415894+407906541+408185016+408266525+408483752+408923145
2683+409249180+409385870+409545738+409713577+409893783+410195280+410466405
2669+410551414+410528587+410494832+410635917+411065238+411472665+411561173
2656+411531619+411736052+412112913+412354950+412470836+412618532+412813282
2642+413133133+413586992+413976842+414230079+414392669+414532821+414790141
2629+415081643+415298559+415643027+416138535+416557006+416840226+416975361
2615+416996827+417224631+417799898+418326010+418516871+418594764+418806974
2602+419067172+419183291+419171352+419209035+419400362+419678410+419894587
2588+420016811+420166879+420284553+420216228+420179051+420352218+420594139
2575+420898202+421159139+421051265+420754201+420740707+420964973+421132968
2561+421155445+421094391+421131490+421264369+421254842+421215721+421359217
2548+421413660+421240842+421192738+421380488+421456669+421352217+421455853
2534+421808759+422013037+421972127+422002342+422285329+422615447+422759215
2521+422793669+422994875+423346692+423497888+423389935+423341404+423506365
2507+423580797+423379825+423307727+423580758+423877044+423978229+423997790
2494+424022056+423914104+423660361+423448850+423310332+423205219+423161587
2480+423096800+422950193+422840607+422872845+422985075+422960342+422717449
2467+422497928+422474984+422544943+422552799+422385698+422082607+421798921
2453+421553617+421391338+421338334+421178700+420885369+420644926+420494664
2440+420414633+420371312+420326436+420244966+420063204+419810667+419598768
2426+419508820+419487899+419412457+419355292+419406857+419397835+419144131
2413+418689844+418315083+418293267+418543471+418684128+418516288+418262079
2399+418102172+417980065+417852902+417668302+417439992+417259747+417091052
2386+416733557+415931652+414463367+412282891+409704827+406933375+403746095
2372+400223719+396825901+393766446+390971038+388482649+386591149+385457804
2359+385281292+386525740+389310492+393400668+397979935+400997119+400753526
2345+397825745+395130551+394340429+394586705+395108929+395638036+395882407
2332+396095278+396783903+397769280+398852109+400225781+401755119+403211855
2318+404677068+406150992+407410761+408316846+409173893+410334615+411578401
2305+412576572+413396637+414115438+414591774+414903810+415345614+415834277
2291+416099686+416296653+416712207+417239214+417569488+417661457+417753816
2278+417903534+417977965+417931844+417830852+417984809+418471606+418886811
2264+419089921+419199235+419278333+419442478+419704270+419972207+420229333
2251+420448893+420612844+420802266+421056009+421394916+421735378+421917450
2237+422097695+422368471+422588381+422902827+423423690+423866544+423986824
2224+423971230+424162402+424532575+424947001+425500219+426075330+426375893
2210+426456391+426635430+427027185+427404902+427668017+428010968+428404434
2197+428721331+429131246+429640715+430031343+430424770+430984054+431514599
2183+431921832+432325409+432682399+432970868+433354885+433823794+434313274
2170+434883407+435376426+435640474+435896939+436376425+437023984+437608972
2156+437987156+438346168+438861975+439344766+439637514+439828297+440089623
2143+440463723+440716960+440687911+440490672+440375603+440438329+440347371
2129+439906967+439471502+439240586+438885735+438139285+437130420+436194314
2116+435590814+435177399+434613176+433782611+432817456+431886989+430898656
2102+429881158+429111180+428412523+427507683+426521722+425585849+424781028
2089+424108192+423342220+422409964+421532228+420758090+419882610+418944248
2075+418200753+417512090+416583139+415658310+415037428+414543709+413891561
2062+413022653+412180539+411527963+410843733+410107705+409553360+409078696
2048+408527384+407918790+407192678+406391124+405721593+405230907+404786070
2035+404345278+403937889+403532096+403114013+402672443+402223328+401810184
2021+401319888+400560682+399700796+399282986+399283841+399078980+398546568
2008+398058332+397726659+397387674+396998213+396660356+396397242+396093995
1994+395516473+394679414+394074631+393889720+393842783+393749763+393493104
1981+393051417+392655500+392420035+392095089+391609070+391122739+390497152
1967+389755796+389413311+389489337+389470593+389243216+388876660+388327526
1954+387883078+387777148+387702716+387329511+386564511+385399200+384561985
1940+384867566+385469704+385514230+385205889+384848899+384599862+384449367
1927+384102799+383128583+381935001+381495141+381322402+380994772+381147096
1913+381362612+380921080+380282815+380261038+380670410+380899847+380881337
1900+380787695+380480715+379863528+379388708+379092111+378614764+378554877
1886+379076828+379477489+379731115+379953630+380027401+379969069+379877760
1873+379454973+377809165+375478272+375372264+377377200+378948732+379449956
1859+379495377+379491683+379503349+379512565+379383147+378821258+377849375
1846+376526802+375605823+376566351+378061158+378551416+378551649+378562849
1832+377647081+375612668+374768648+375418929+375994857+376869637+377933684
1819+378407064+378458629+378270529+377424954+376315175+376270610+377149940
1805+377693318+377137612+375654122+374684495+374905649+374987897+373749672
1792+372673492+374273801+376613444+377555850+377309807+376652643+376169113
1778+376386223+376382140+374562737+371512576+371396962+374295850+376929018
1765+377952544+377291724+376655598+377344690+378159427+378907589+378988631
1751+376761101+373738044+373593615+375264739+376473798+376715563+376761684
1738+377403177+376955851+374349088+374419630+377612121+380659754+382363310
1724+382599398+382245442+380994811+377007883+373243314+375493243+379690710
1711+382212465+382413787+380508403+378617758+378322328+376709264+373227137
1697+373001782+376575062+380881181+382986253+382775637+381687247+378885461
1684+375226512+377237982+381270759+383378903+382997998+381801927+381182678
1670+380268894+381163818+384071144+385329708+384783140+385491558+386936122
1657+386672035+382871418+377003877+378175527+380229306+380247544+383669628
1643+389343469+392866739+393462655+391593203+391324411+397377019+403862680
1630+407851359+410594813+413388704+416410205+420910646+425833448+428823217
1616+432125215+438529835+444759615+449226185+453063162+457402609+461777054
1603+465970904+470495923+474962104+478550861+481654999+485316553+489616762
1589+494071899+498285466+502096816+505705172+509167894+511749069+512973800
1576+516126392+523032625+528706543+532598469+537952108+544488829+550232279
1562+554242229+555397079+558348738+569459515+581173014+591547529+600428404
1549+608816183+616092433+621475782+625449605+631070559+647158814+664191730
1535+675696985+686541147+698988730+709599178+718155496+726598184+734658217
1522+743311210+754315746+766075793+779100548+792332030+802595910+808465239
1508+810442060+817549964+832857275+844633500+851987097+856428935+862219245
1495+871390067+878621479+881356611+883515193+890702662+899140606+904806397
1481+908126167+910867832+912586982+911318463+907433731+906289342+910875998
1468+915278015+914947080+912899950+913515388+912689801+905642717+901553358
1454+908229842+914321920+915619060+913703838+913077979+915432788+918471789
1441+920114874+918397746+913243174+912076230+916306596+919060938+919883259
1427+922208980+924554767+925191438+924511524+921333539+919353996+922966125
1414+926542243+926635263+925485118+924878391+923690837+922321599+921980320
1400+920470853+916943344+913730904+912535028+913714416+914296643+911139579
1387+905964474+904364787+906112403+907774621+909385741+910980217+909751986
1373+906778706+906635910+908330794+909158870+908325817+905832256+903624442
1360+903260297+903640153+904386720+905607251+906667720+906948879+906004762
1346+903882112+901881259+900327616+898567322+898090558+899572804+900705371
1333+900859756+901447194+902613827+903060570+902889697+903671963+905523020
1319+907384344+909749731+912881051+915516863+918325182+922757142+926958653
1306+929008349+930797419+933765022+936365135+938144717+940749886+944366525
1292+947463624+949517365+950828738+951908106+953711332+955589999+956087918
1279+956110006+957069990+958018151+957811346+957358303+956890017+955336996
1265+953614657+953044251+952892122+953239390+954793189+955893402+955543645
1252+954665871+953672833+953405363+954455099+956386421+958565146+959550018
1238+959199172+959136952+959802321+960521589+960518712+959604305+959010567
1225+959604772+960287952+960151145+960198665+961639457+963876125+965564398
1211+966232801+965826346+965275074+966057029+967329514+967499220+967644194
1198+968287708+967581584+965930877+965716916+967003090+967743435+966980691
1184+965602120+964679158+965328505+967174352+967646994+965996208+964214760
1171+964048320+965538421+967106687+967015223+964985749+962406012+960932944
1157+960427637+959402011+957313738+955684963+955682008+955320118+953494649
1144+951727589+949921097+947806614+946731134+946713090+946080620+943737555
1130+939892177+936200485+934296696+933431287+932539824+931192675+928782256
1117+926182376+923623406+919262532+914161703+912548094+913619218+912590015
1103+909623968+906700775+904642290+904955414+906220278+906596478+907479775
1090+909530326+912016187+913862189+914529736+915605761+917208014+917802297
1076+917274512+915536618+914003352+914359797+915183284+916252697+918659383
1063+920502818+920524984+921253897+924003261+926499855+927470416+927987312
1049+927883249+926488267+925186460+925545628+927502071+929570822+930892228
1036+932160980+932596445+931773036+932294209+934412270+934312795+930881339
1022+927462016+926105611+926668550+928315758+928724002+926843001+924432271
1009+923779346+925511251+926448135+924090292+921739449+921694184+922024185
995+922108727+922455995+922616057+921816291+919820416+917645657+916253009
982+916075758+917042975+918055223+917958392+917378731+917890183+918195685
968+916435392+914423884+913931720+914318731+914483849+913420969+911150001
955+909019030+907551017+906486659+906249132+907113296+907905284+906886503
941+904859284+904187615+904588858+904819074+905593096+907287513+908947787
928+910330325+911579400+912408954+912721922+912639402+912466430+912319045
914+912375199+913199619+914452894+915114375+914762519+913910099+913828512
901+914635122+914929969+914552447+914373874+913987485+912666079+911383250
887+911441815+912777376+914751008+916142412+916481202+916849391+917058530
874+916075991+914198024+913118500+914229367+916725028+919104959+920715068
860+921740694+923324125+925992059+928351302+929732984+931561719+933667725
847+934476746+934449913+935916993+939911310+943380643+944084667+944219296
833+944906599+945409651+945374652+944990285+946280192+949471555+951512929
820+952392881+953822706+954509697+953970791+954157685+955395716+956040631
806+955875202+956528439+958699542+961170626+961320500+957758225+952421425
793+948295978+948696055+954344735+959427132+959951262+959491219+959755812
779+958230867+955641642+955562311+957348115+957782802+957817723+958975412
766+960217720+961724621+963165490+962171130+959157485+957628185+958400029
752+958930458+958016595+956283290+954765734+954552396+955326807+955997232
739+955616443+953721987+951495974+949582774+948005875+947948555+948983669
725+949461833+949394479+950784794+953819984+953671899+949046123+943956804
712+940460561+940910415+945788262+949620184+949391368+947649197+946223649
698+946343735+948313400+949146453+946926973+945473426+948577292+951573516
685+949832511+947525767+947988998+949585029+950932412+952789847+953964258
671+949485166+942359606+948380520+962377313+967726558+969525972+972695402
658+971105749+963926757+960353594+959653304+956299856+957585952+965143477
644+973688674+981788372+982613414+975997518+981891113+1025784194+1073741823
631+1044241802+986806837+957871777+946608094+937408339+915138252+898346206
617+918444100+948194092+938805498+914130048+911480703+934539122+973403860
604+1010293410+1015140536+988309227
##END=
