##TITLE=Sample description
##JCAMP-DX=4.24
##DATA TYPE=INFRARED SPECTRUM
##DATE=24/8/2023
##SAMPLING PROCEDURE=Instrument type and / or accessory
##ORIGIN=Default
##XUNITS=1/CM
##YUNITS=ABSORBANCE
##RESOLUTION=4
##FIRSTX=4397.6552
##LASTX=599.8556
##DELTAX=-1.9287962
##MAXY=1.4463706
##MINY=0.13386469
##XFACTOR=1
##YFACTOR=1.3470376e-009
##NPOINTS=1970
##FIRSTY=0.15137802
##XYDATA=(X++(Y..Y))
4398+112378468+112354319+111954300+111605897+111581648+111607180+111564071
4384+111646816+111612445+111404499+111460241+111721164+111747249+111600498
4371+111771984+112436256+113182079+113674379+114018888+114132773+113904727
4357+113724557+113675419+113329328+112712081+112222281+111829087+111215170
4344+110561086+110296921+110172837+109741191+109224300+108955013+108909083
4330+109162739+109717717+109991494+109568532+108861704+108381771+108265574
4317+108482371+108744898+108663790+108290343+108038501+108208471+108540115
4303+108501508+108217432+108116445+108253848+108335133+108045968+107791096
4290+108183902+109048068+109666864+109669430+109639109+110141652+110801500
4276+111101605+111128818+111122601+110937830+110527866+110129971+109914446
4263+110040212+110298049+110181299+109918030+110066540+110279199+109984868
4249+109315673+108769512+108814324+109268338+109524427+109631067+109900530
4236+110129296+109915442+109313129+108959681+109305197+110093742+110839377
4222+111273512+111527455+111894697+112126438+111971302+111844098+111988327
4209+112266021+112490350+112551513+112631106+112802757+113064687+113415325
4195+113508358+113281318+113161603+113270532+113356153+113308962+113094953
4182+112708131+112508470+112697125+112938357+112848521+112399906+112098252
4168+112232867+112368832+112215920+112053682+112175554+112491169+112716041
4155+112625088+112209416+111751674+111590852+111813157+112121593+112139226
4141+111879575+111720069+111761519+111629835+111262870+111128929+111372795
4128+111499479+111402607+111632955+112224084+112616039+112479244+112089679
4114+111961346+112013504+111942928+111991502+112308300+112567885+112735610
4101+112829815+112656018+112564268+112718707+112676814+112527785+112551922
4087+112533393+112395846+112484576+112897803+113188517+113115961+112900315
4074+112713065+112790412+113222368+113497395+113320865+113156470+113380933
4060+113788463+113955502+113661093+113223131+113092984+113143749+113085285
4047+112863820+112680111+112867250+113172709+113134003+112862371+112537398
4033+112157490+111964820+112045419+112032664+111953647+112083617+112201196
4020+112117102+111939211+111783234+111727459+111609945+111142325+110598022
4006+110578796+110928361+110987687+110570842+110126265+110165646+110469690
3993+110498219+110308226+110121265+109877742+109558654+109364579+109457203
3979+109740704+110029415+110119749+109935254+109604119+109201047+108899061
3966+108858308+108862511+108869668+109066099+109160471+108886671+108452945
3952+108042019+107648095+107483534+107766770+107799602+107196305+106999752
3939+107484386+107818884+107422493+106373091+105942054+106776318+107253009
3925+106280302+105358602+105683851+106118894+105919420+105898524+106433734
3912+107085495+107616048+107488147+105824153+103515765+102606212+102603280
3898+103349567+104938670+105719416+104753965+104231864+105213344+105246077
3885+104033287+103421095+103081819+103713037+105102147+105350504+104535487
3871+103337808+102554463+102952579+102877500+102628214+103630159+104543353
3858+104530653+103083511+99573893+99377097+102805353+105433559+106135553
3844+105076107+103045789+100998048+100044080+101100761+102706059+103781390
3831+104572568+104966425+105123741+105547864+104824796+102462237+102199256
3817+103124076+103935232+105846377+107442206+107330611+105765081+104864111
3804+104584581+103457435+103779344+105306864+106407727+107738694+108991474
3790+109525323+109528100+109246302+109160548+109530744+109404856+109068035
3777+109939336+111151662+111396877+110550588+110151498+110845560+111527809
3763+112117345+112044224+111143929+111239584+112146981+111885073+109892798
3750+109431671+111453615+112496479+112158596+113572662+115620138+115883948
3736+114276570+113822026+116275560+119632288+122051054+122996239+123537035
3723+124802702+126642994+129009292+131578692+133786303+135393294+139050780
3709+148555453+162238850+177987666+195294677+212501974+224728904+230753163
3696+232974005+232793824+230390656+226758856+225678945+227820626+230374660
3682+232184498+233186531+233787539+234464411+237030702+240994699+244510323
3669+249467261+256139918+262596355+268206292+273079422+277341367+281218636
3655+285747290+290503117+294170603+297851076+304661679+312661709+319883493
3642+326365903+332218102+337597636+342738492+348198957+353773385+358089734
3628+362224995+368463042+375134792+380765526+385307654+390198771+396142786
3615+401993082+407684658+414026070+420439120+426070120+431067434+435683457
3601+440271692+445354361+450211318+453726832+457031634+461155036+464591920
3588+465838539+467558175+471918131+476746769+480202238+482111436+483717929
3574+486277405+489720528+492622711+492820237+491236887+492512267+496519162
3561+500245167+502507735+504192769+505612312+506693042+508337632+511127424
3547+513813363+514947369+515128523+516111021+518287481+520124199+520861117
3534+521254798+521820783+522519602+523242139+523872329+524073881+524467916
3520+525301650+525797235+525937149+526235032+526848318+527130581+527150006
3507+527732673+528100954+527505942+527017968+527029694+527076111+527434481
3493+528182726+528714817+528432112+527995554+528666895+529535895+528794022
3480+527275097+527074164+527754841+527860773+527662140+527738027+527950907
3466+528266400+528028785+526400256+524568670+523815602+523980251+524740045
3453+525440723+525591833+524770621+523115765+522070566+522204330+523184217
3439+524569511+525348952+525043990+524374507+523833655+523303114+522538629
3426+521617548+521401659+521909413+521993308+521953838+523279795+525889759
3412+528092636+528673931+528280471+528525521+529628640+531111458+533012824
3399+534999590+536961223+538819358+539800130+540219077+541491890+543449939
3385+544946739+546160835+547815382+549584311+550512737+550900489+551793781
3372+553019116+553984047+554597643+554983448+555481821+556724722+558866403
3358+560303025+559569647+558177982+557564783+557068269+556726138+556433610
3345+555432528+554176927+553031904+551998918+551480235+551077926+550118039
3331+549108019+548450704+548008793+548042820+548092865+546998993+544676822
3318+542599877+542465760+543944684+545200373+545790341+546505753+547270592
3304+547602059+547946491+549347537+551805374+553971569+555426067+557456153
3291+560785645+564213104+566439433+567054047+566181950+565613974+566652136
3277+568192654+570000080+572586947+574567120+574697433+574061402+574285521
3264+575168725+575504307+575072617+574632475+574871064+575274701+575128016
3250+575407491+576638490+577100534+576207153+575884979+576381228+576154586
3237+575679886+576084540+576578665+576164807+575214478+574553270+574585970
3223+575160185+575736701+575945378+575242842+573599755+572773455+573582808
3210+574201183+573463956+572561548+572555044+572713498+572379819+572554955
3196+573808698+574794868+574930048+575300409+576031619+576330652+575884492
3183+575285542+575530812+575970113+575531299+574859869+574276893+573005318
3169+571310815+570521728+570331724+569236437+567534853+566457663+566034425
3156+565787030+565499856+565206886+565358526+565545123+564741788+563325431
3142+562006953+560901842+560097313+559389688+558492678+557642838+557125305
3129+556565383+556024398+555741030+555166416+554602378+554391002+553549259
3115+551924890+550402602+549543381+549656924+549982904+549080540+547095190
3102+545112097+543735387+543519940+544171281+544403454+543968489+543388743
3088+542579213+541534413+540722583+540147660+539204278+538232930+538377093
3075+539621587+540959711+541247549+539817609+537162333+534464137+532695871
3061+531683638+530295557+527977810+525045406+522020787+519839105+519129002
3047+518912759+518152876+517175688+516206730+515207595+514859092+515386139
3034+515818537+515662118+514974714+513380124+511317737+510094482+510165015
3020+510851002+511375792+511682169+512093948+513000249+514527493+516307794
3007+518536070+521490333+524531015+527431914+531052298+536488868+544583944
2993+555876652+570268803+586144302+600001044+608212981+610360724+609297207
2980+607427346+604998093+601314655+596058221+589537115+581896605+573480018
2966+565600743+559393139+554633396+550061312+545267144+541496625+539437645
2953+538185451+537017906+536693120+537866064+539436760+540202307+540286069
2939+539994603+539283040+538394438+537535084+536361167+534251035+530979863
2926+527540501+524643760+521249886+516677625+511572742+506483480+501512980
2912+496751999+492230491+488127045+485213313+483611909+482316219+481037343
2899+480026349+478894777+477630637+476786283+476338177+476150518+476263883
2885+475978081+474734826+472953993+470757311+467890970+464713383+461653011
2872+458488610+454994955+451461875+448500310+446575979+445242368+443504899
2858+441052946+438300236+435505842+432468391+428976329+425280458+422136234
2845+419861188+417965442+415947436+413355171+410279445+407637710+405774353
2831+404133523+402310920+400477785+398957533+397656047+396210398+394545497
2818+393006616+391993454+391273129+390082397+388340149+386607990+385024197
2804+383526998+382141041+380620081+378772787+376843279+375149749+373725782
2791+372272743+370453016+368423240+366546521+364815158+363136673+361581021
2777+360224180+359017584+357789307+356370163+354743692+353227356+352083240
2764+351167823+350400883+349766467+349171322+348653170+348100924+347390733
2750+346620098+345731496+344734750+343774929+342738913+341649267+340861507
2737+340515306+340227025+339585597+338888038+338570465+338358979+337965055
2723+337509271+336908507+336124066+335484164+334970392+334316905+333699127
2710+333225445+332706497+332205093+331728224+331083521+330329966+329561831
2696+328744358+327847769+326822063+325738324+324717396+323688681+322482837
2683+321020396+319393615+317825066+316461299+315238951+314000873+312693214
2669+311476972+310499585+309641824+308728310+307722161+306746057+305947435
2656+305230916+304456874+303733585+303159192+302706927+302467718+302451280
2642+302507365+302648186+302790579+302759007+302777548+303094147+303520417
2629+303840843+304153549+304559132+304960380+305295585+305569507+305800507
2615+306111863+306534527+306906636+307175026+307313303+307234430+307117238
2602+307102768+307016439+306815683+306575080+306206445+305618380+304894781
2588+304125894+303275721+302372738+301458937+300521639+299627174+298689433
2575+297508812+296195688+294937078+293644773+292272777+291024941+290003195
2561+289091960+288295837+287607261+286838794+286080217+285545627+285144756
2548+284812050+284628241+284619723+284756960+284971079+285266462+285737666
2534+286307102+286768350+287117650+287518498+288083554+288731222+289272428
2521+289709649+290105675+290427451+290665155+290761706+290767503+290878611
2507+291077553+291209901+291127222+290767790+290393822+290214682+290000872
2494+289485751+288728545+287947733+287256922+286573479+285739015+284872781
2480+284173939+283500850+282771190+282101618+281496208+280879116+280228306
2467+279651657+279193086+278738497+278179636+277494047+276842861+276397830
2453+276023951+275471351+274796669+274213560+273714258+273117564+272366885
2440+271683243+271181352+270764331+270473418+270238346+269825993+269257065
2426+268722873+268309745+268059165+268077749+268279169+268286869+267947039
2413+267531698+267273463+267179833+267215873+267366275+267594288+267766814
2399+267801549+267714468+267495215+267228307+267024255+266949231+267018768
2386+267009763+266677787+266046735+265260590+264397409+263508409+262627240
2372+261619034+260361774+258960639+257569018+256596742+256483465+256827454
2359+256760595+256122971+255740264+256242796+257316889+258312440+258609703
2345+258038917+257454348+257471273+257486848+257054848+256591122+256526032
2332+256657650+256837853+257228901+257674750+257834731+257815550+258028873
2318+258572224+259160997+259435516+259245888+258748179+258235824+257899644
2305+257728844+257668423+257748845+257936703+258024492+257871458+257554704
2291+257249874+257170271+257319655+257405895+257285052+257094805+256897854
2278+256586852+256205937+255930157+255731503+255512251+255262046+254938168
2264+254500084+254022331+253654713+253397672+253137070+252911888+252725336
2251+252386457+251914589+251616087+251594295+251601463+251440531+251232717
2237+251089240+250922777+250761999+250729742+250862267+251070014+251174154
2224+251158091+251097581+251032115+251046607+251169684+251388760+251649628
2210+251833725+251963484+252166430+252465839+252831112+253253222+253671682
2197+254034809+254349417+254597144+254760355+254870755+254984187+255084255
2183+255123504+255140009+255092685+254901508+254662034+254467827+254300832
2170+254113793+253834628+253529157+253365326+253241961+252977465+252667348
2156+252394289+252116429+251891093+251785604+251688124+251404048+250964924
2143+250613191+250434647+250223625+249781603+249226592+248773884+248418390
2129+248105751+247874972+247641715+247286752+246937165+246694505+246507001
2116+246424787+246416668+246269850+245990177+245843603+245938804+246155755
2102+246423371+246755723+247112412+247433281+247741584+248131879+248630208
2089+249136280+249620029+250169266+250842023+251569449+252184263+252731553
2075+253401234+254142997+254842989+255469108+255929095+256310276+256945311
2062+257830417+258592977+259127036+259646494+260224692+260745919+261221747
2048+261748307+262337920+262901560+263313914+263633610+263975254+264342231
2035+264731509+265086074+265383557+265667877+265887661+265970074+265961755
2021+265946379+265923701+265902727+265914099+265883014+265704914+265427519
2008+265249329+265199195+265073286+264796001+264463472+264178710+263947112
1994+263584185+263050059+262689764+262618413+262578434+262499517+262436883
1981+262316902+262098092+261863796+261699434+261608326+261468699+261139799
1967+260772689+260695918+260751362+260563260+260161748+259644237+258972122
1954+258224695+257506539+256785507+255971264+254979718+253691771+252443007
1940+251837906+251583454+251226787+250760716+250218382+249703880+249321218
1927+248959883+248377150+247769726+247485318+247196927+247002808+247342151
1913+247735212+247788797+247803908+248091193+248457461+248587619+248572397
1900+248666890+248813530+248895744+249130860+249494451+249640737+249727089
1886+249945500+250207917+250656732+251304134+252009724+252608121+252883635
1873+252670644+251713567+250496927+250747840+252357231+253733321+254318443
1859+254297823+254030517+253860160+253834163+253929519+254131581+254297049
1846+254242889+254329926+255193704+256038478+256202486+256245938+256628601
1832+256775661+256478266+256854181+257952544+258935019+259848976+260674502
1819+261360445+262059884+262643081+262798461+262594253+262648922+263185061
1805+263834920+264223290+264227782+264307474+264715845+264779496+264009282
1792+263636973+265315437+267747698+269605391+270779220+271357307+271611405
1778+272006723+272228409+271790590+271661871+273845544+277179461+279664312
1765+280839181+281038654+281653534+283538772+286036101+288521550+289971535
1751+289816952+289492189+291012773+293615614+296137081+298417968+300789808
1738+303041513+304190408+304949472+308232946+313221764+318254101+322502705
1724+325922885+328752744+330531408+331319322+334512551+342030359+349836778
1711+356172438+360778704+364302360+368397996+373183558+378190740+384018292
1697+390364837+397980699+405270582+410623346+415221669+419269052+422898462
1684+429494216+439123925+447739321+455093497+462220722+470407393+478607471
1670+487721152+499428690+509337343+516339831+523282848+531402747+538896351
1657+544414074+548125919+553231598+560466878+566323059+574151846+586599843
1643+598747081+609005209+617052807+623202445+632555423+646810845+660035185
1630+672704867+686546033+700192284+712950773+726321488+738568152+749354699
1616+762194518+776124181+786937764+794238089+799067568+803066853+807169060
1603+811211974+814773551+817316080+817728390+815115593+810378063+805253534
1589+800395825+795638472+790408100+783793364+775120090+765476620+754504892
1576+743312895+739437152+738722182+734644754+729811072+728135197+728293165
1562+729677706+730221567+728944196+734171028+743081120+751986169+761321845
1549+772076842+782083948+789995437+797249212+809367069+832449751+850840390
1535+862283808+873647048+886105709+896013344+903063841+908626166+913097585
1522+916355438+918951597+918291495+914569827+913676977+915214530+916145611
1508+915169131+913976187+919096025+924882160+926519539+923327173+920771457
1495+924612951+931322380+936830987+940373891+944085471+946577911+945261159
1481+941708874+939851845+941799761+947786962+952581573+947955727+940279464
1468+932582848+924622775+925381817+935923889+946336490+946299056+930105364
1454+918081226+912989795+910530895+912343144+921392443+934022523+941858789
1441+941090189+932048147+914847178+902485599+904985650+915898703+929760844
1427+940866733+944187243+937980834+925752886+912099069+906589045+913633171
1414+924266130+931613182+933422245+931371850+925778019+918007419+913778129
1400+913887335+916660754+920142064+920096930+916366412+911078163+903330926
1387+896144585+897013364+904507144+911143740+912308365+908597316+903257827
1373+900523081+901934614+904769185+907805176+910062744+908206600+902642416
1360+898451004+896209896+894362071+894599598+898855171+904180589+906013016
1346+902776136+896051574+888912934+884729574+886733863+892840447+897127171
1333+896624418+892487520+889030016+889423652+893868344+900182809+904098995
1319+903807130+901493809+898431092+895946263+897833558+905374242+915051607
1306+921821390+923226286+921076331+918001932+915840384+917116073+922722205
1292+930437052+937523656+941662324+941908790+939402632+935765656+933950044
1279+936527884+940884786+942664646+941995340+940847352+939349269+937769325
1265+937686314+939363340+940605931+939200858+935411224+931996818+931904869
1252+935656716+940588232+943501831+943494574+941104614+937516134+934819442
1238+935003959+937900390+940870627+942141892+941620465+939557591+937305422
1225+936502220+937852778+940907176+943858564+944760440+942913766+939288559
1211+936465670+936410979+938070305+939454315+940028220+939586884+938015967
1198+936033980+934733777+934823247+936002032+936906033+936578770+935707602
1184+935142103+935336355+936908422+939273869+940637790+939962467+938383497
1171+937760121+938365709+939844677+941958525+944351760+946345517+946775880
1157+945759045+944456452+943360501+943038193+943902104+944939913+944999560
1144+944338397+943627409+942699425+941462497+941579314+944186181+946440121
1130+945113722+941574712+938594740+936408324+934930152+935093872+936823908
1117+938322257+937603835+934591827+930949894+928853215+929412429+931076003
1103+932899934+936328676+940065035+941238776+941640112+943954760+947231995
1090+949396729+949791516+950407900+952932288+956768915+961484320+965623696
1076+966101848+962728416+960026768+961535383+965694229+969925554+973740587
1063+976856403+978020851+976276922+973148628+971994180+973989530+977514558
1049+981200296+983573796+982537757+978966268+977200126+978676882+980571345
1036+981806238+982339523+981600216+981285785+982756876+984403016+983587070
1022+979944430+976417279+975850630+978171562+981359680+983121928+982311469
1009+981182597+982137041+982992102+981617827+980281074+980141248+978787415
995+976280639+975283539+976230726+977885716+978881045+978178111+975783637
982+973218010+972410737+972895791+972439145+970414413+967973390+966081493
968+965302982+965360948+964606331+962486022+960204294+958508685+957765218
955+957985134+958683821+960220932+961106082+958520012+954928523+954129834
941+955756770+958916126+962263451+962514695+958857364+955240565+955217910
928+958172925+961444762+962780099+961539100+959033474+957143347+956447581
914+956096423+955545969+955539155+956355809+956302002+954432761+952296434
901+951446948+951979525+953131230+953177160+950532239+946963317+945421162
887+945916039+947068364+948001037+948072986+946838624+944229899+941070631
874+940323448+943662985+947753068+950023202+950594807+948617422+945323461
860+945135669+950568346+958105933+961989021+960512442+955670928+951734122
847+952427322+956833606+960824484+962190441+961514940+958488861+952758833
833+947490850+946763225+950151435+954016292+956716170+957418485+955019499
820+951804212+951330397+953771420+957462026+961365911+963729056+963109751
806+961055639+959619061+960136417+964078001+969381649+970903804+965119438
793+953638940+945938783+949263010+958753999+966012377+967607631+963546221
779+958089207+955928455+955956509+956676435+959077103+960838289+959769949
766+957634153+955122156+951886692+948950260+947822538+949446907+952435198
752+953387607+951164995+948465118+947314032+947458637+949589831+952939722
739+953792217+952289355+951692617+952286965+954317095+957985842+958626386
725+953433626+946509060+942768807+945265937+951987844+955752788+952487412
712+946158522+944536277+950558523+961091392+971046904+975132739+969452978
698+956080759+945100624+944077152+952317054+964303139+972639857+975966915
685+976952776+971631518+957916106+945230096+943790244+954996578+971808070
671+986788817+997164957+987710782+960040132+941167978+942336055+962296284
658+988325308+1003451456+996851322+975594784+959261974+961647598+979836729
644+997890016+1015052666+1038068001+1052971666+1058652224+1073741823+1061759190
631+988714697+911788177+884394258+905506634+949723285+978390505+972404542
617+948709016+928102491+923524257+938910764+967725951+990037201+994704199
604+1001785670+1018868672+1008568728
##END=
