##TITLE=Sample description
##JCAMP-DX=4.24
##DATA TYPE=INFRARED SPECTRUM
##DATE=24/8/2023
##SAMPLING PROCEDURE=Instrument type and / or accessory
##ORIGIN=Default
##XUNITS=1/CM
##YUNITS=ABSORBANCE
##RESOLUTION=4
##FIRSTX=4397.6552
##LASTX=599.8556
##DELTAX=-1.9287962
##MAXY=1.5247512
##MINY=0.59050775
##XFACTOR=1
##YFACTOR=1.4200352e-009
##NPOINTS=1970
##FIRSTY=0.83727258
##XYDATA=(X++(Y..Y))
4398+589613964+589826395+591866544+594527574+595575414+594364882+592327797
4384+589680703+586034668+583691718+584456149+587088679+589657281+590653871
4371+590059225+589060872+588165565+587562734+587353409+587558872+587963670
4357+587966356+587788764+587640763+587153948+586659997+586414659+586455626
4344+586930185+587069622+586250247+584868209+583940078+584678948+585784964
4330+585017469+583614863+583175647+583029535+582891566+583479833+584664760
4317+585011172+584097943+582857189+581867525+581663783+582808667+584840002
4303+586031016+585607372+584632860+583654781+582934883+582882668+583499770
4290+584806801+585389065+583965766+582305315+581946520+582079032+581945513
4276+581294537+580027760+579467112+580746104+582653657+584172069+585511167
4263+585793905+584206781+582022577+580835761+581326018+583352148+584662830
4249+583276720+580934358+579518153+578737981+578305480+577748443+576917608
4236+577071065+578299730+578840062+578189170+577646739+577809557+578471152
4222+579798666+580539298+579394245+578475937+578881742+578535036+577643507
4209+577855602+578225897+577806828+577493618+577812453+578355429+578082724
4195+576462189+574986591+575126449+576351420+577456093+578130155+578611807
4182+578823062+578505277+577546086+576733174+576811162+576415178+574826460
4168+574298133+575735409+576781150+576121234+574941763+574105094+573777361
4155+574235591+574689121+574060266+573215160+573024388+572815945+572941531
4141+574404453+576079806+575945741+574242097+573198874+573644429+573945551
4128+573300577+573196230+574066436+574143836+573009697+572434820+572804444
4114+572757937+572668490+573541928+574149796+573620671+572724441+571980325
4101+571747411+572555076+574119491+574459901+572701272+570945413+570289022
4087+570224046+570737683+571343453+571584887+571794926+571948677+571696496
4074+570991458+570082930+569712508+570547331+571619894+571252957+569861265
4060+569220069+569452983+569403705+569106907+569270270+569831463+570492470
4047+570672245+569963345+569307753+569658110+570815503+571778682+571679623
4033+571052488+570599588+570006201+569311866+568992569+569186783+569818745
4020+570400757+570507329+570345729+570112521+569716202+568996557+568102425
4006+567673115+568087525+568748112+568893133+568642800+568394313+568289504
3993+567790390+566362643+565101784+564878272+565188838+565808585+566330113
3979+566149540+566191137+567332159+568150570+567582661+566372968+565350690
3966+565413903+566392360+566742382+566344468+566440966+566769539+566303753
3952+565732192+565605305+565096033+564477671+564103263+563740943+563881766
3939+564483128+565467000+566517527+565948526+564160264+563674414+563890202
3925+563597056+564097219+565651938+566081542+564869122+564384069+565508554
3912+566758668+567129635+566584979+564491523+560917557+558510765+558123764
3898+559495140+562477104+564797766+564042610+562512740+563191250+562369818
3885+559582656+559553862+559808813+559740689+561505698+562338421+561819328
3871+560491815+558293381+558619604+559424204+558851384+559999879+561966447
3858+562296699+559254839+550968907+548326346+553913766+559457028+562856675
3844+563430293+561094352+557267787+553450036+552849177+555437004+558158015
3831+560069933+561153284+561625324+562481049+561398790+556834237+555792147
3817+556798139+556880408+559599866+563405024+564633395+561667298+559095002
3804+558681431+555720875+554522557+557204154+559366826+561445339+563510631
3790+564012095+563604611+562904358+561962376+561814039+561334066+560146200
3777+561027026+563391719+564664498+563463536+561477869+560926960+560883181
3763+561605260+562227190+560717593+560010246+562076545+563016135+558572383
3750+554396761+556351955+556683760+552895853+553580575+557563158+558739356
3736+555028471+552061744+554060717+557838088+560498614+560983751+560298230
3723+559459085+558873714+559386470+560504868+560893464+558076249+552832514
3709+552650388+556667726+560173987+560625712+558848908+559244387+561443996
3696+562516937+561436441+557908143+553493773+553012247+556286265+559500303
3682+560542435+559631682+557935804+554107728+551525106+552517918+550052488
3669+547163875+549978991+553199703+553538014+552441945+551259200+548906932
3655+546923783+547284634+544935178+535837300+531640356+535391913+538738002
3642+538777457+537023361+535473091+533405365+530323084+527729842+523287769
3628+516559243+515567019+517435494+517250220+512994554+506982651+505209037
3615+505221042+503412170+501308178+498825161+495854404+494576714+493705165
3601+491572882+489812574+488538325+485967288+484053565+484488920+483635335
3588+478714296+475044210+475405649+476166807+475162955+473013337+471130675
3574+469765468+469350849+469432698+466224830+459627809+457065712+458043414
3561+458758023+459134992+459489673+458462483+455724557+453796731+453819229
3547+453565705+451730180+449972180+449400955+449369810+449455815+449505932
3534+448951077+447412560+445264327+443990541+444495279+445047615+444066975
3520+442737909+442136546+441669375+441062010+440673750+440096775+439032187
3507+438002815+436494477+434691649+434480435+435300986+435191812+433962140
3493+432534728+431748428+431582210+431122133+430251213+429365099+428461355
3480+428152888+428358980+427957289+427078058+426622933+426663228+426760314
3466+426469812+425387930+423911451+423220516+423453724+423733229+423394498
3453+422279877+421211973+420805244+420429702+419935164+419629887+419611166
3439+420272342+421001557+420526117+418931144+417448663+416883943+416694515
3426+416246022+415926599+415907249+415840216+415917491+416534090+417643086
3412+418612855+418669940+417989708+417401022+417440687+418133176+418677369
3399+418240881+417699583+418164320+418617892+418206294+417739585+417705796
3385+418013633+418679594+419736669+420958450+421947149+422762201+424042494
3372+425956595+427512196+427963207+427940583+428404942+429431460+430479006
3358+431471567+432577038+433731660+435265141+437001817+437809650+438032658
3345+439015229+440290569+440897640+441196747+441542319+441748538+441844617
3331+441886633+442049492+442900978+444119653+444295482+443353164+443046460
3318+444149874+445277423+445056178+443971988+443295324+443370793+443771730
3304+444123472+444604873+445402464+446137094+446815353+447405634+447319713
3291+446707438+446386420+447076935+448806938+450520193+451359759+451747011
3277+452274415+452693275+453023484+453942339+455173522+455859420+456264679
3264+456814624+457207753+457503586+457544133+456906001+456628972+457575949
3250+458645826+458909591+458635920+458495895+459288113+460856096+461963582
3237+462427311+462967769+463101247+462461646+461883285+461764960+462150870
3223+462866486+463253822+463060028+462559194+462335766+462830094+463643090
3210+463981191+463874871+464127890+464760817+465191261+465433535+465577590
3196+465674886+466168501+466654183+466444313+466585136+467605105+468245210
3183+468480600+469196342+469922493+469987050+469938695+470808440+472899756
3169+474892894+475126689+474335478+474279443+474731923+474758325+474828590
3156+475678271+476889138+477502967+477099470+476251762+475822326+476030979
3142+476537186+476836041+476878183+477039951+477492725+478409397+479460175
3129+479578458+478927567+478915436+479931754+480955333+480806032+479734308
3115+479081066+479236831+479575562+479726879+479904345+480050415+479869339
3102+479735903+480075347+480694129+481139096+481169317+480815140+480343478
3088+480423228+481218721+481966363+482181983+482090186+481985713+482107647
3075+482602815+483069189+482899908+482169307+481703479+481833683+482012030
3061+482253507+482704183+482760974+482358736+482228197+482632239+483151123
3047+483490231+483808730+484163789+484157661+483752527+483445613+483370353
3034+483643730+484187336+484218691+483640372+483266048+483565197+484319680
3020+485070051+485628767+485891945+485651979+485199373+485275430+485958012
3007+486435887+486350427+486412507+487014667+487735530+488452908+489278454
2993+489991971+490389424+490641142+491071880+491797234+492966169+494561687
2980+495580901+495220302+494522358+494741420+495400581+495339760+494545779
2966+494167845+494691723+495151507+494843921+494337000+494245790+494415785
2953+494613861+495021723+495785651+496623873+497082481+496897880+496530606
2939+496856619+497478675+497301922+496518182+496082785+496328166+496547312
2926+496202621+495763740+495392983+494928918+494677158+494727317+494840983
2912+495008963+495209851+495291196+495275498+495346980+495708628+496123458
2899+496219159+496269276+496577030+497080844+497518886+497611229+497458737
2885+497270693+497287063+497584995+497831634+497856021+497694127+497499200
2872+497552759+497867648+498133134+498182202+498161844+498120038+498197187
2858+498393877+498279414+498172632+498458391+498246590+497065692+496107256
2845+496522422+497793858+498547586+498375660+498093846+498386951+499232351
2831+500353814+501330844+501850525+501946268+501973761+502260486+502489412
2818+502476274+502691601+503290823+504003836+504545847+504892553+505294958
2804+505625882+505733713+505909291+506163612+506491051+507041373+507480464
2791+507775961+508312642+508851211+509113926+509401994+509846416+510144683
2777+510162019+510167140+510364837+510571056+510674900+510841621+511092080
2764+511415238+511873469+512411157+512897007+513266588+513627733+513975866
2750+514295708+514753855+515254102+515653317+515897690+515816764+515721231
2737+516111842+516662290+516887355+516976214+517229149+517698545+518236065
2723+518634315+518883263+518990801+519006751+519109042+519363740+519857481
2710+520617883+521412494+522050710+522295041+521939185+521534513+521908586
2696+522889729+523628137+523803337+523768918+524018622+524611715+525156748
2683+525538964+525825185+525964162+526063514+526079170+525909595+525937004
2669+526477462+527181703+527644383+527909701+528062655+528225388+528591696
2656+528984489+529202041+529402970+529610280+529646966+529561548+529547655
2642+529794253+530286734+530636966+530714996+530937206+531666044+532760476
2629+533506439+533519996+533453132+533715218+534094201+534744296+535560859
2615+536124025+536513628+536755021+537028482+537820701+538693173+538781823
2602+538398725+538419251+538854186+539328325+539957264+540926907+541981170
2588+542664297+542896414+542989051+543146411+543377605+543743115+544261326
2575+544694877+544817063+544722957+544763798+545032054+545187820+545336744
2561+545788343+546163549+546402339+546993712+547732078+548185817+548449079
2548+548698404+549071428+549510519+549796068+550027177+550176731+550132029
2534+550323262+550755511+550853353+550895705+551393979+551940859+552282276
2521+552797969+553558539+554218665+554496911+554633957+555138611+555829965
2507+556338985+556687999+556657400+556387129+556494289+556784875+556883472
2494+557144845+557671242+558095347+558310549+558380897+558392650+558379806
2480+558256864+558103658+558007580+558058872+558375944+558724203+558915982
2467+559020960+558996824+558685377+558013540+557462421+557629981+558138833
2453+558233442+557903820+557662217+557858152+558150837+557831415+557072524
2440+556684977+556652195+556410677+556041263+555938007+555865434+555459418
2426+555043413+554820825+554459302+554034777+553850007+553699614+553297754
2413+552791085+552510447+552405805+552162818+551828956+551601876+551468944
2399+551390789+551157749+550500435+549667921+549111010+548699286+548038698
2386+547214370+546317888+544852951+542470965+539530262+536370581+532813993
2372+528885556+525250812+522282826+519399838+516281963+514007262+513337189
2359+513118881+512923702+514489083+518415840+523024676+525903047+525214211
2345+521447417+517965416+516638197+516438610+516630599+516987589+517201069
2332+517592729+518757341+520297495+521500094+522099022+522387468+523157692
2318+524630016+526164336+527367816+528449614+529423748+530234183+531063422
2305+531761409+532175189+532566681+533038974+533436510+533771631+534085345
2291+534253661+534322079+534530144+534892464+535107287+535203198+535607576
2278+536103961+536181488+536007295+535883346+535907649+536153869+536552119
2264+536909612+537176021+537590011+538155863+538525067+538751769+539199255
2251+539857156+540351443+540498814+540584902+540878049+541336868+541801143
2237+542103398+542391592+542965461+543656228+544258808+544888335+545402853
2224+545634928+545910529+546532585+547343566+548017879+548459824+548860844
2210+549339306+549869313+550609819+551573544+552400811+552967796+553475137
2197+554121411+554893734+555543660+556007222+556433468+556997348+557766691
2183+558543756+559294546+560154217+560979049+561585994+562043470+562569069
2170+563250308+564042274+564933468+565739244+566273154+566763579+567471178
2156+568219953+568739802+569203699+569871548+570423297+570480088+570356852
2143+570541118+570854245+570747043+570318866+570152481+570223165+569985802
2129+569268885+568493540+568073295+567746695+566918043+565553383+564154261
2116+563070449+562107144+560886161+559523263+558282594+557070593+555836387
2102+554689782+553568949+552176333+550416529+548743317+547533372+546556846
2089+545483527+544338853+543217725+542016428+540662974+539257808+538000350
2075+536986634+535939255+534762554+533775786+532783603+531453655+530090464
2062+528920185+527891736+526955295+525900655+524647267+523389179+522218102
2048+521051056+519863651+518786471+517877775+517014704+516103027+515143962
2035+514220659+513332655+512359445+511375741+510536553+509810696+509050420
2021+508046778+506649629+505231745+504441248+504068015+503446043+502470944
2008+501455507+500711979+500181636+499524952+498700162+498033572+497554186
1994+496700224+495285614+493985467+493153248+492615308+492294290+491927521
1981+491340682+490686222+489952138+489082729+488290762+487724239+487111081
1967+486333386+485816643+485570885+485202563+484697363+484125131+483477429
1954+482834428+482232898+481712881+481215363+480517292+479572162+478770584
1940+478457961+478223242+477789650+477451884+477225183+476803091+476179315
1927+475515369+474575150+473466363+472863784+472439426+471980608+472089362
1913+472265234+471741271+470892934+470505807+470541401+470519113+470304625
1900+469956199+469421365+468695424+468193666+467907109+467242492+466755173
1886+466976754+467144860+467026997+466839163+466591432+466392433+466266385
1873+465867002+464506286+462487922+462071791+463467890+464619532+464763965
1859+464454742+464229677+464138762+464018716+463851575+463675158+463295041
1846+462175089+460748517+460858279+461725799+461814322+461575280+461579309
1832+460863358+459036982+458148349+458588280+458826734+459221081+459879696
1819+459996887+459519558+458891164+458093615+457063362+456575623+456797666
1805+456888456+456222034+454772124+453734357+453752238+453487802+451877677
1792+450318970+451234844+453069740+453737925+453220049+452237016+451267919
1778+450829458+450356369+448324446+445027048+444532636+446835626+448678120
1765+449277845+448544264+447536509+447695591+448115206+448521179+448427031
1751+446109433+442908743+442530934+443837251+444522730+444224420+443744405
1738+443896435+443164449+440400037+440047707+442411182+444476558+445602722
1724+445699095+445291946+444172414+440570620+436709846+438228425+441746187
1711+443722200+443571178+441433691+439163188+438455631+436725418+433555075
1697+433294710+435813028+439114162+441027759+440918417+439811099+436922738
1684+433021711+434677336+438184856+439498057+438333193+436646675+435724253
1670+434323452+434558045+437139240+438240010+437140038+436933861+437841508
1657+437635961+434149680+427709767+427679336+429099864+428259124+430333692
1643+434875747+437525066+437646707+435452597+433934521+438476702+444234326
1630+447553425+449313691+451330335+453968740+457922487+462196832+464774207
1616+467599523+473278362+478802568+482475886+485389347+488967636+492810110
1603+496446994+500236622+503882699+506795951+509500759+512805083+516483061
1589+520132076+523709693+527223006+530618497+533699225+535758809+536189295
1576+537945322+543519477+548265148+550812134+554305803+559422777+564079967
1562+566879385+565762120+564229982+572594867+582771814+591060768+597217733
1549+602341045+606541473+608741418+608618728+608449614+616711327+628425784
1535+636336929+642838501+650690463+657804311+662956669+667043137+670303389
1522+674138978+680981674+688936010+697076838+705019925+710984187+713787719
1508+713268751+716865005+728975949+738774038+744612462+748101766+752784056
1495+759890685+765435962+767593680+769360704+775609383+784068583+791430162
1481+797288818+801917717+805294698+807185126+808163206+812837689+821909963
1468+829393854+833277546+837537745+843954992+848305099+848734830+852635899
1454+863285894+872968806+879733766+884789122+890904490+898565932+905822240
1441+911842915+916417332+920477987+926953745+934273014+939528922+944597626
1427+951432598+957933625+963082331+966379309+966625613+968321533+975156338
1414+982083653+986004198+987931143+989524730+991199999+993020414+994438718
1400+993762767+991726354+991324746+993144657+996856759+999114376+995454742
1387+988708419+988081578+993634914+999442949+1002615265+1002472049+999584318
1373+998435572+1001391301+1004683495+1006249463+1006010463+1003107117
1362+1000109413+1000245913+1001767893+1003858285+1006539672+1008011450
1350+1007378481+1005834340+1004080999+1002121566+1000378887+999072738+998239217
1337+997818889+998342893+1000178671+1001719622+1002131976+1003477160+1006499796
1323+1008838339+1009288133+1009850082+1012731937+1017155667+1020843005
1312+1023204381+1025027903+1027116028+1029841740+1032763470+1035475750
1300+1037760482+1040188346+1044404389+1049898122+1054114752+1055908471
1288+1056407459+1057798899+1059883751+1060526961+1060395666+1061660429
1277+1063868852+1065012226+1064277260+1062524339+1061257982+1060767389
1265+1060360576+1060279230+1060272095+1059353283+1058691520+1059168513
1254+1059977017+1061184275+1061962474+1061204423+1060339337+1060376023
1242+1060821367+1061211978+1061136089+1060836814+1060539218+1060653051
1231+1062250164+1064231424+1064516260+1063246293+1061326819+1060472059
1219+1062169994+1065086688+1067460153+1069085221+1070016625+1069203923
1207+1066809807+1066404085+1068930168+1070661598+1070187963+1069319268
1196+1069502611+1071240421+1073331569+1073741823+1072033731+1069388441
1184+1067204279+1066496764+1067489115+1068354200+1067866210+1068131318
1173+1069938553+1071112148+1070953318+1071049607+1071487984+1070546757
1161+1068233651+1065591132+1063417799+1062323199+1061684018+1061100747
1150+1060330942+1058653239+1056891168+1056015337+1055416032+1054579405
1138+1053182424+1051484405+1050425652+1048903085+1045313379+1040104062
1126+1034669932+1030837197+1028923179+1026812220+1023137391+1019173612
1115+1016455876+1014416608+1012405883+1010664631+1008309214+1004215652
1103+998803684+994443419+993006143+992428328+990833901+989828371+989713530
1090+989396038+988843743+987375407+984569944+981734429+980081826+979437524
1076+977818081+974090700+970586454+968342268+965948320+963432059+961102414
1063+959224075+957533864+955289679+953478498+951398851+947237375+942464168
1049+938652756+935516622+933375273+932632332+932044275+931084497+930566117
1036+929505013+927425869+926154055+925909766+925216775+923213353+920168051
1022+917666984+916888785+916838584+916145928+915134773+914395862+914199423
1009+914668021+914539833+913496861+913154940+913769944+914333572+914414162
995+914464195+914779337+914548479+913835088+913720415+913535729+912213042
982+910445263+909029226+908287880+907978112+907029834+905229902+903448187
968+902267373+901177810+899183958+896261724+893550871+892067676+891336236
955+890430771+889445556+889022457+889588939+891141476+893526862+896327119
941+899190422+901826645+903862219+905851454+907867888+909541226+912347443
928+916659355+920230088+922785721+925862923+929181644+932123606+934432180
914+935162528+934861490+935245301+935811280+935409588+935061707+935068842
901+934378705+933699648+933604703+932629898+930327368+928124738+926862745
887+926414127+925808441+923771104+921666357+922317542+925165482+927282150
874+928625740+930626895+931691357+930447414+929341062+930922645+934729440
860+939134366+943130800+946252579+948934554+951633822+954423922+958500694
847+964350199+969124077+970774413+971603485+973320140+976032420+980208336
833+983584225+984444526+984978352+986268131+987703056+988986539+990784540
820+995113325+1001065079+1004574950+1005821496+1007376131+1008135190+1008457047
806+1011716417+1017143243+1020697942+1022360451+1024617396+1027231037
795+1029668639+1031441539+1032142254+1033869403+1036058014+1037220024
783+1039670806+1042309631+1043042666+1045059520+1048954377+1051968954
772+1053801457+1054391109+1053600738+1052104866+1051359155+1053566822
760+1056347100+1056112549+1055449275+1055560339+1053761162+1050106985
748+1046695081+1046937187+1051847397+1055041119+1053520651+1051714591
737+1048523975+1042684711+1040699842+1043887268+1047215056+1049771864
725+1049842800+1044896744+1040016672+1038916952+1038069160+1036136674
714+1034831952+1034761016+1036332861+1038383042+1040072078+1042473078
702+1043666149+1043026968+1042366128+1038709180+1032520860+1031387141
691+1037054730+1043740275+1046072270+1042051575+1037641024+1040808723
679+1044958194+1040951686+1035509329+1034691591+1033200756+1029897649
667+1035133913+1042651888+1041064009+1039677438+1045934427+1052308692
656+1052325146+1048857165+1043620733+1039558903+1038034909+1034202677
644+1033631830+1041407441+1046325290+1043182943+1038119612+1033093302
633+1031102473+1037514934+1046557406+1052119053+1052792149+1033643331
621+1010114267+1016318537+1041948570+1061560531+1058894842+1025743057
609+1000729790+1007762712+1019550959+1021861379+1030420310+1039478397
##END=
