##TITLE=Sample description
##JCAMP-DX=4.24
##DATA TYPE=INFRARED SPECTRUM
##DATE=24/8/2023
##SAMPLING PROCEDURE=Instrument type and / or accessory
##ORIGIN=Default
##XUNITS=1/CM
##YUNITS=ABSORBANCE
##RESOLUTION=4
##FIRSTX=4397.6552
##LASTX=599.8556
##DELTAX=-1.9287962
##MAXY=1.5461977
##MINY=0.58759594
##XFACTOR=1
##YFACTOR=1.4400088e-009
##NPOINTS=1970
##FIRSTY=0.83117324
##XYDATA=(X++(Y..Y))
4398+577200120+577729274+577627408+576682515+575889737+576145828+576282339
4384+574918849+573191732+572753310+573312845+574115309+575103457+576386108
4371+576941918+575921981+574983710+575737787+576782559+575783649+573271412
4357+571912393+572455081+572750619+572432440+573509125+574884246+574640323
4344+573206675+571689042+571350208+571417967+570591247+569591717+569288356
4330+570036348+571872036+574038527+574633783+572942264+571210180+571273137
4317+571921168+571616648+571023006+570914311+571603941+572924755+573320420
4303+572694533+572601609+572985601+572830133+572288479+571744342+570978592
4290+570395712+570760209+571745625+572452018+572790562+572636088+571953329
4276+571773523+572004655+571516686+570405067+569399410+568604396+567711698
4263+566832535+566184877+566064633+567120001+568822739+569526442+568649182
4249+567117932+566583190+567416036+567807851+567176626+566863827+567338757
4236+568109888+568188367+567026083+566021337+566554961+567492611+567288135
4222+566723012+567047400+567611778+567540046+567609543+568300415+568513541
4209+567382467+565540364+564654537+565472730+566641553+566581286+565724144
4195+565610440+566473129+567131922+566907537+566408061+566047621+565564619
4182+565266929+565736603+566315675+565475213+563650080+563036570+563697060
4168+563806790+563290882+563687788+564866463+565016095+564121492+563942431
4155+564902101+565683331+565057983+563569325+562711189+562833419+563359716
4141+563679634+564032583+564798208+564781279+563257106+561588973+561386856
4128+562416313+563118857+563189099+562879240+561846016+560832909+560739777
4114+560791269+560600162+560702938+560492005+559942570+560263895+561316945
4101+562009059+562118788+562231705+562101031+561349852+560804100+560570153
4087+560057225+559542931+559769055+560811219+561578252+561375473+560861014
4074+560898722+561550354+562133648+562034556+560877985+558989522+557514565
4060+557148371+557791352+559009101+560410753+561248442+560489356+558709548
4047+557771774+558339256+559375584+559696992+559072596+558356848+558541373
4033+559296360+559946999+560019310+559011294+557829474+557428676+557169977
4020+556294043+555028652+554727485+556010881+557127261+556648564+555825942
4006+556060924+556871335+557477312+557782287+557937879+558300224+558612773
3993+557865733+556438045+555566043+555284164+555390334+555937617+556246111
3979+555470386+554328633+554283640+555177539+555857400+555787696+555381021
3966+555293105+555171744+554510385+553963474+554073576+554220973+554352433
3952+555295340+555902227+554963708+554370811+553670544+551351937+550756308
3939+553177981+555259288+555051376+553491855+553000782+554218282+554770615
3925+553588712+552945524+553651421+553194289+551047210+549988489+550866411
3912+552337436+553777625+554491717+553398848+551265677+549636327+548303468
3898+548804185+551597557+553355386+551607035+550021975+551278922+550701009
3885+548098661+548245644+549064788+550249134+552654001+552476596+549601641
3871+547376373+547520127+549630532+549246457+546231598+546230232+549183790
3858+552373820+552995608+546212641+541527869+545790030+550516525+552293726
3844+551593666+550119412+548453182+546849869+547167179+548585264+549604952
3831+550674891+551065133+550058442+549883188+549004894+544185640+542523343
3817+543957240+544493802+547116060+550925477+552915929+551662707+549624158
3804+547670628+543361901+542385425+545641599+548128753+550155754+551963047
3790+552424111+552327543+552367238+552406229+552479410+551742387+550875724
3777+551429174+552186397+551770947+549688729+548058221+548513201+548989041
3763+549329117+549304489+548003460+548224658+550782799+551200609+545599296
3750+541989967+545716518+547494754+544961448+545822647+549211812+550164074
3736+545669248+540388102+541463339+546110693+549603131+549664722+547702003
3723+546696884+546900781+548430127+551323294+553767856+552149972+546600317
3709+545136494+547521369+549291326+548540354+546457515+546910508+549320714
3696+550965254+551023120+549521630+547106995+546891592+549509544+552088919
3682+552794733+551768464+549563519+543758890+538730979+540580367+541942987
3669+541072061+542417876+543769569+543477632+542775005+541711069+538508539
3655+535921175+537151755+536901997+529738431+524838670+527174040+530228552
3642+530626121+529033569+527047215+524423634+521435514+519256605+514840755
3628+507437572+505534002+506694506+506114688+502209904+496975034+495016909
3615+494441355+493210941+492160788+489690315+486609394+485862313+485559283
3601+483642012+481090535+478752143+476296902+474603312+474651823+473386391
3588+467589668+463679255+465245854+467151452+466882033+465616559+464426378
3574+463174274+461886076+460113553+455952719+450742145+449879498+451878269
3561+452874613+452436604+451882905+451160493+449600641+448153705+447289940
3547+445785677+443820557+442861549+443143717+443661447+443242685+442116785
3534+440995604+439489685+437729786+436988292+437304816+436906336+435453730
3520+434618070+434725275+434697915+434204606+433542254+432531547+431315827
3507+430561833+429706387+428475849+427814614+427382441+426535522+425885836
3493+426011253+426047140+424961555+423692853+423174338+422241282+420488751
3480+419618859+419974167+420019450+419473119+419225388+419017560+418445441
3466+418067865+417530060+416546797+416194304+416196787+415518706+414471905
3453+413580532+413042976+412734937+412359058+412030365+411836237+411648856
3439+411283325+410829753+410817294+411142551+411308201+411348310+410955046
3426+409714490+408351829+408050248+408923616+410016320+410843660+411354229
3412+411252239+410640716+409922857+409599959+409940738+410170256+409780014
3399+409457861+409718630+410242444+410472748+410402961+410571261+411190980
3385+412016044+412697561+412857292+412842225+413416206+414217428+414723402
3372+415511297+416931493+418248458+418806503+419092148+419861581+420919930
3358+421669081+422357800+423697489+425432057+426600425+427092119+427649336
3345+428548243+429500546+430239349+430688699+431088793+431816586+432911318
3331+433888497+434332880+434231884+433830962+433835598+434540212+435214858
3318+435623147+436048573+435952875+435173217+434670596+434994280+435621491
3304+435774683+435684945+435964547+436321428+436445893+436512699+436878811
3291+437616745+438190560+438632004+439353175+440137219+440699652+440839639
3277+440782146+441271646+442461497+444030538+445533021+446595095+447463537
3264+447998983+447827289+447774018+448207970+448375607+448600406+449294424
3250+449654326+449527584+449727010+450323343+450236585+449577172+449967538
3237+451429788+452546831+452952223+453405712+453857256+453573763+453043574
3223+452563925+451956914+451851696+452020036+451776611+451684597+452510778
3210+454007053+455089822+455110022+454604668+454429126+455047893+456104378
3196+456519332+456369286+456565194+456845872+456932754+457473290+458668480
3183+459793676+460273698+460241536+460063924+460384794+461584702+462783411
3169+463201800+463598830+464640622+465707829+466206807+466224937+466013218
3156+465986147+466419023+466850865+467051781+467585901+468453144+469034410
3142+468983829+468348091+467909337+468431579+469243770+469369642+468994715
3129+468726247+469107052+470080630+470929412+471296309+471017825+470479896
3115+470309941+470088122+469771557+470065191+470751468+471181613+471161744
3102+471014141+471394201+471975591+472106472+472247991+472358218+472079981
3088+472050179+472273654+472047447+471739947+472224646+473230592+473967450
3075+474265637+474050524+473549641+473413627+473751716+474288775+474600166
3061+474247218+473724232+473755400+474022253+474130783+474269404+474415517
3047+474505379+474766313+474951045+474849801+474921409+474970789+474699259
3034+474740568+475088011+475104816+474912095+474915448+475210158+475833934
3020+476552082+476828083+476604691+476147601+475759884+476010925+476786402
3007+477453846+477980474+478305276+478344971+478519024+479019120+479595957
2993+480293369+481494395+483001348+484215289+484879214+485162293+485740579
2980+486691019+487156843+487142480+487328247+487432016+487109449+486962384
2966+487152042+487219096+486868963+485999734+485272313+485500962+486318327
2953+486649213+486218779+485932720+486582738+487660334+487954216+487565339
2939+487589181+487854958+487704250+487527962+487688397+487853013+487715219
2926+487296541+486855179+486554550+486393577+486373916+486096922+485414453
2912+485092672+485478031+486108967+486596190+486805799+486934238+487273278
2899+487698911+487889065+487985550+488365403+488700718+488562842+488414038
2885+488675924+489001637+489052052+489084255+489198621+489031687+488671827
2872+488475878+488516855+488861194+489389148+489506618+488970634+488520167
2858+488825308+489736177+490535164+490421419+489475574+488635733+488354848
2845+488298182+488463253+489117120+490050879+490985218+491657670+492025685
2831+492582654+493252498+493487397+493504658+493581812+493589056+493599569
2818+493631565+493800527+494453318+495335668+495811964+495997110+496485037
2804+497016923+496999497+496868285+497233692+497882344+498495606+499095912
2791+499739804+500385889+500764087+500701088+500534320+500487258+500454144
2777+500513831+500661393+500785652+501045800+501280781+501219107+501308265
2764+501867221+502596546+503208524+503651210+504030608+504270101+504258346
2750+504356197+504954516+505683013+505891628+505855700+506262954+506931184
2737+507330616+507545605+507874836+508239415+508289707+507967016+507893338
2723+508430315+509079091+509594171+510098241+510408266+510499163+510699458
2710+511253861+512062078+512724513+513095260+513459674+513925788+514270417
2696+514425346+514636072+515111748+515671821+515933956+515909203+515975844
2683+516245429+516374945+516185328+516131933+516503052+516822432+516873178
2669+517146365+517744229+518277108+518722525+519101261+519288394+519417743
2656+519518036+519647013+520040442+520401131+520493269+520818071+521320941
2642+521437169+521512668+521940370+522468406+523032081+523573114+523898454
2629+524058185+524231782+524460803+524684030+525062889+525718661+526447116
2615+526967991+527036950+526844147+527028051+527743882+528474490+528886587
2602+529207746+529722785+530285632+530621071+530890946+531263887+531561784
2588+531905544+532453696+532903502+533192624+533450702+533613869+533852203
2575+534140166+534109205+533991197+534255443+534791012+535189781+535267432
2561+535408164+536049904+536815239+537111771+537125182+537317695+537587529
2548+537677763+537834762+538323766+538862274+539063149+538969810+539003172
2534+539501075+540229489+540619276+540624160+540754296+541139489+541434157
2521+541564624+541775226+542244320+542877326+543357803+543597089+543784511
2507+543978432+544207081+544508538+544780027+545064555+545364936+545495278
2494+545536505+545543873+545348710+545176561+545497514+546149063+546566376
2480+546678092+546597709+546304200+546065369+546062844+546040120+545905017
2467+545869130+546034407+546338886+546474155+546214752+545986352+546110155
2453+546093515+545596730+545118364+545040796+545034256+544775888+544430970
2440+544286305+544286098+544228025+544083857+543876774+543633638+543392572
2426+543103491+542672974+542274412+542088852+541827504+541417932+541171981
2413+540899002+540399485+540128699+540097283+539785726+539251233+538784126
2399+538539459+538556430+538535692+538221983+537612364+536897237+536287742
2386+535583873+534444769+532859792+530809777+528073692+524743055+521254880
2372+517830448+514316900+510471637+506528110+503497647+501953896+501297545
2359+500977255+501156150+502714926+506261961+510723631+513842880+513759020
2345+510709392+507624870+506316805+506284643+506867648+507176721+507001550
2332+506965912+507504006+508580360+509670498+510539934+511609996+512885818
2318+514119709+515508116+517109485+518583697+519777024+520824570+521556295
2305+521963881+522426807+522826984+523030425+523276210+523623984+524086207
2291+524557785+524894838+525249360+525641299+525826362+525773050+525799913
2278+526026285+526099921+525896687+525764854+525969247+526412844+526715294
2264+526757224+526936409+527326114+527647521+528065165+528725779+529332750
2251+529557839+529466735+529672991+530418169+531136897+531466211+531608516
2237+531823546+532157165+532615538+533207194+533756215+534211236+534778305
2224+535383909+535743066+535868069+536032312+536570903+537468527+538170864
2210+538356052+538388668+538667360+539131197+539633156+540214712+540920691
2197+541620545+542186123+542747480+543251798+543589846+544125787+544960620
2183+545732826+546429617+547180217+547771872+548250900+548991856+549882485
2170+550614831+551222712+551889204+552677222+553348101+553780770+554142949
2156+554499333+554953774+555563518+556057199+556279680+556438459+556776506
2143+557216792+557366465+557141872+556833337+556570044+556382911+556090229
2129+555367362+554441509+553753907+553169785+552326343+551306075+550423062
2116+549646717+548632947+547249838+545817928+544711606+543948423+543135487
2102+541835824+540211731+538824980+537720397+536551822+535341979+534154157
2089+532859875+531619153+530549091+529468515+528344974+527310716+526284694
2075+525090456+523920640+523012585+522175973+521119859+519877689+518816444
2062+518065719+517226085+516092693+514988772+514024673+512964710+511894110
2048+511005427+510161612+509204384+508116606+507077132+506283526+505495673
2035+504528883+503739168+503297269+502738934+501775000+500711560+499749820
2021+498890650+498030692+496957443+495967556+495375777+494876094+494239860
2008+493618941+493086600+492415762+491601005+490927228+490356103+489677276
1994+488800762+487726685+486747395+486108760+485728079+485483991+485125910
1981+484498989+483850337+483308186+482701299+482042837+481459750+480723016
1967+479740084+479107947+478999707+478840183+478443484+478002826+477493540
1954+476863887+476291521+475858645+475349400+474593709+473599808+472729503
1940+472475274+472550359+472520308+472244556+471641849+470954909+470428612
1927+469849291+468845787+467826388+467530643+467326043+466816634+466695190
1913+466599575+465932628+465185091+464903171+464888559+464833550+464676054
1900+464447902+464134110+463650405+463192031+462720619+461848410+461309322
1886+461672453+462075693+462069235+461850107+461630399+461438010+461211969
1873+460860221+459680635+457601605+456951504+458321120+459518421+459620576
1859+459369700+459355668+459365726+459200366+458968157+458589546+457805501
1846+456298879+454826487+455208493+456367962+456770373+456773975+456746739
1832+455767904+453526700+452268098+452678250+453261337+454070672+454969041
1819+455253072+454941598+454288683+453145647+451824377+451464102+451961384
1805+452202781+451515387+449869936+448602766+448632030+448662701+447333070
1792+445777647+446607885+448423084+449033738+448455411+447551578+446804082
1778+446505440+445987214+444030828+441082444+440737774+442885266+444572481
1765+445076510+444447561+443871717+444348386+444757544+445095302+445043686
1751+442909067+439933985+439632446+440868903+441482165+441150782+440538555
1738+440528331+439722887+436944748+436724709+439413524+441933129+443474521
1724+443734462+443175092+441781263+437918409+433879059+435417140+439130114
1711+441384936+441442677+439479213+437534085+437146450+435297807+431438181
1697+430883944+433880591+437702136+439736380+439497591+438305257+435331500
1684+431049056+432497523+436293364+438185303+437508257+435813218+434732891
1670+433433642+433731332+436039384+436868173+436021585+436386578+437477420
1657+437203157+433659351+427015792+426876633+428544476+428116195+430262321
1643+434640256+437401631+437920064+436292081+435255711+439655335+445180569
1630+448592459+450655016+452869066+455487309+459461507+463866346+466440175
1616+469080024+474738871+480496396+484434252+487408009+490780162+494392513
1603+497954614+501743046+505408792+508353616+511082416+514440496+518210963
1589+522007342+525675737+528951448+531958608+534978972+537264300+538034768
1576+540084948+545567052+550135430+552623371+556175828+561494185+566428633
1562+569601361+569088474+568305340+576743568+586252976+593650033+599612034
1549+605352878+610194857+612668269+612454728+612747120+623002492+635981945
1535+644252743+650996678+659211638+666740942+672315101+676859224+680579855
1522+684743546+691904379+700565212+709683508+718297817+724460900+727641947
1508+729184622+735959725+748473644+758021753+763975475+767195266+771805408
1495+780435115+788392452+793194901+797207511+804551835+813566072+821305357
1481+827719605+833585743+838020301+840045026+841866019+848055013+856967509
1468+863967866+868236940+872434158+877882403+881523314+880681072+882174077
1454+891561006+900889738+908186792+914745747+921607690+928159525+933759761
1441+938678356+942127954+943342639+945475810+949973947+954750733+960219343
1427+965652936+968076760+968465099+969578871+971232724+974914613+981113376
1414+986326846+989021539+990170826+991052803+991330377+990360566+988915742
1400+987071320+985268787+984267436+984943944+988549755+990764882+987169088
1387+980896400+979788091+984442523+989328667+990283908+988526493+987991296
1373+990837400+994770952+996520834+996157413+995113842+993128605+991886022
1360+993944687+996498482+996043834+993081419+990907352+990858593+991599507
1346+992225932+992247704+990574810+987454112+984760330+983574536+984074053
1333+986128496+988945875+991733782+993780941+994950592+995920238+996908759
1319+997672438+998634468+1000704227+1003731710+1006892227+1010594729+1014763221
1306+1017682010+1019656401+1022726933+1026736314+1030361827+1032937808
1294+1034517818+1036650575+1040051082+1043158701+1045054200+1046493809
1283+1048336823+1050327937+1051513731+1051686335+1051357601+1050529432
1271+1049418475+1048708025+1047710067+1046143882+1044488456+1042748507
1260+1042599000+1044099207+1044675712+1044270983+1044397228+1045272831
1248+1046517899+1048040622+1049245788+1048927071+1047060960+1045418779
1236+1045780296+1047681921+1048854718+1048400814+1047539533+1047143495
1225+1047446153+1048233260+1048325978+1048294603+1050267670+1053448966
1213+1054828557+1053916446+1053322721+1054308592+1055203484+1055184444
1202+1055333620+1056157484+1057136484+1057893624+1058665665+1059077183
1190+1058229147+1056352522+1054504293+1054061897+1055488591+1056690197
1178+1055988688+1054822431+1054015372+1053101854+1053759239+1056392258
1167+1057846023+1056678442+1054690887+1053000609+1051079613+1049550266
1155+1049047024+1048229121+1047231412+1046845474+1045568204+1043378078
1144+1041956267+1040679825+1039070095+1038197720+1037829747+1037116648
1132+1035208235+1032168002+1029593180+1027384428+1024704801+1022349025
1121+1020503858+1017758750+1013454990+1008745755+1003833617+998458470+994424833
1107+991930063+989167073+987010640+986539600+985944551+984279936+982754729
1094+982056034+982957052+985804978+986766014+983011938+978445918+976040637
1080+974681991+973602574+972128444+970245446+969126127+967855645+965051346
1067+962086613+960441783+959288937+956932415+954235487+952948035+951140866
1053+947668089+944922153+943694305+942389467+940481468+939617289+939205937
1040+936897016+934674024+934670796+935131984+935223377+935504511+934851430
1026+932640608+931009354+930693203+929519579+927481609+926492592+926278844
1013+925874942+925676344+925617485+924719033+923600791+923594251+923794256
999+923302852+922825356+922313835+921787662+922138913+922830488+922463508
986+921386988+921071251+921466792+920872819+918531364+915357022+912551978
972+910728418+909435668+908187703+906921940+904765921+901438677+898799284
959+898159614+898508299+898843738+898747627+897759437+896851383+897052381
945+897486665+897591138+898717162+901762858+905387792+908092833+909802648
932+911247555+912981046+914835733+916950112+919449352+921674910+923772236
918+926242502+928314661+929283645+930138718+931420210+931232043+929787467
905+929800795+930038136+928457215+927471261+928877756+930560915+930494026
891+928870554+926708326+925487101+926031072+927612738+928759872+928688264
878+928212424+928437761+930110406+932092166+932154502+931269709+931861365
864+934644057+938574959+942329615+945602387+948510413+952039897+956287365
851+959337945+961405054+964649514+968016908+969802304+971659143+973709779
837+975095164+977231481+979903574+981065361+979896455+978086140+978565044
824+982395530+988743717+995746061+1001117814+1004955750+1008076945+1008950645
810+1008370414+1009407859+1011743354+1014231253+1016423283+1015737420
799+1013209784+1015502231+1022665093+1027522180+1027644948+1025706319
787+1025626681+1030220846+1036637910+1039791307+1038804691+1036169271
775+1035688629+1038741278+1041876298+1042259752+1040684544+1041016423
764+1045459095+1048587078+1047377276+1047033558+1048019264+1045639067
752+1040871055+1038870587+1040964187+1042695277+1040917745+1038310637
741+1037076994+1037860791+1041138198+1044988883+1046930079+1045613155
729+1042026716+1039768873+1039171257+1035414532+1029212458+1026766944
718+1027874424+1030552395+1033575740+1033563653+1032364531+1032433986
706+1032381419+1033546269+1034855741+1032534900+1030140794+1031147113
694+1032232491+1031935463+1032316765+1034230310+1035003428+1032840620
683+1028894154+1023823569+1022634298+1029963058+1041175120+1047910486
671+1044409314+1033365966+1030695942+1040315659+1046672125+1048895530
660+1053685562+1056152186+1051094017+1046001245+1046163005+1049369136
648+1047606670+1039327470+1031987534+1025043552+1022549113+1027218943
637+1018820948+997492632+990658753+1003834445+1025787612+1046613431+1060927979
623+1068585308+1061147356+1038393090+1018617631+1015133844+1032797159
611+1061114077+1073741823+1060445184+1031298442+1010130064+1014743767
600+1026720088
##END=
