##TITLE=Sample description
##JCAMP-DX=4.24
##DATA TYPE=INFRARED SPECTRUM
##DATE=24/8/2023
##SAMPLING PROCEDURE=Instrument type and / or accessory
##ORIGIN=Default
##XUNITS=1/CM
##YUNITS=ABSORBANCE
##RESOLUTION=4
##FIRSTX=4397.6552
##LASTX=599.8556
##DELTAX=-1.9287962
##MAXY=1.357541
##MINY=0.30977473
##XFACTOR=1
##YFACTOR=1.2643085e-009
##NPOINTS=1970
##FIRSTY=0.57660145
##XYDATA=(X++(Y..Y))
4398+456060703+454219869+451853284+451260495+451845741+452294647+452781928
4384+452626211+451457698+451263182+452673779+453705527+453323613+452362959
4371+451664566+451021616+450089295+449490518+449318725+448970896+448806363
4357+449181489+449895533+450606135+450838838+450648518+450547064+450538153
4344+450066053+449421593+448939262+448110092+447337166+447248535+447689709
4330+448229414+448482059+448588935+448569606+448579930+448947513+448907770
4317+448121266+447710971+448121218+448276464+447406279+446805805+447441118
4303+447476193+446243518+445693111+446377030+447253061+447425042+446683985
4290+445710837+445313695+445584821+445812526+445760291+445980595+446368968
4276+446779593+447455261+447314348+445681372+444255122+444040381+444236689
4263+444351532+444393867+444157251+443588552+443244919+443653988+444377603
4249+444330647+443702122+443750209+444123732+443657241+442828496+442621675
4236+442676456+442343006+441619486+440849718+441097413+442628558+443570826
4222+442677258+441282406+440741805+440594527+440600891+441331436+442449646
4209+442653780+441471265+440337026+439996410+439357372+438593686+438826813
4195+439585597+439791522+439311407+438889326+439036651+439181337+439025714
4182+438965888+438993185+439071019+439155690+439154464+439092046+438736108
4168+438151097+437557035+437169181+437525024+438234778+438386535+438351224
4155+438481860+438316762+438060864+437811660+437242961+436744601+436422607
4141+436172319+436232711+436263166+436132341+436461831+437334091+437781346
4128+436985790+435599802+434840688+434860677+434953504+434640373+434027029
4114+433259335+432450814+432182847+432780823+433544179+434044991+434797598
4101+435503062+435299164+434457313+433441075+432571173+432470143+433002824
4087+433489209+433478696+433093058+432854650+432388772+431372064+430623416
4074+430474959+430757258+431323411+431671711+431817009+432196849+432754610
4060+432942149+432365578+431586239+431255853+431117438+430495844+429405213
4047+428761885+428930095+429490638+429911493+429864208+429639189+429243839
4033+428731430+428953196+429478711+429065964+428598060+429256662+430091112
4020+430270165+429873165+428876162+427928331+427863366+428209357+428007014
4006+427557590+427364394+427016612+426718473+426912376+427161957+427091147
3993+426830676+426740913+426998367+427144278+426869145+426807622+427219661
3979+427431763+427042588+426304218+426046010+426431083+426497179+426099566
3966+426079906+426286067+425782522+425137497+425356009+425870917+425859602
3952+425127549+423722609+422453255+422311964+422422140+422186702+422775862
3939+423899446+424508312+424074964+422365708+421258954+422177415+422904659
3925+421989169+421508205+422286082+422319272+421415708+421609989+423221515
3912+424438350+424499355+423716056+421173671+417565264+416113557+416535590
3898+418187566+420970008+422355337+420560656+419432688+421407411+421895258
3885+419940995+418917639+417882968+418407210+420506394+420352044+419023571
3871+418169792+417434251+417997764+417537025+416306329+417805982+420194583
3858+421051520+418854796+411513333+409108939+414946694+420320363+421911664
3844+420434075+418509701+416609182+414369556+414519805+416305292+417194712
3831+417650595+418100679+418388117+419511041+419081229+414483079+412966360
3817+414891300+416690223+419958202+423372423+424296729+421293181+418384911
3804+417875755+415803537+415031365+417154356+419251230+421599570+423635345
3790+424278107+423579998+422003642+421134918+421415803+420924090+420507997
3777+422169448+424023199+424158503+422411910+420949454+421060902+421299923
3763+421634598+420995089+418733117+418186576+419333449+418268182+412725501
3750+409276159+412404309+414735536+413558348+414791213+417723479+417745684
3736+413383633+410193252+412637766+417345903+420581730+420600257+418890814
3723+418432102+419700654+421696687+423242258+423215857+419984273+415527839
3709+416183141+420061967+423182527+424137100+424109709+425555617+427832817
3696+429733807+430457516+428474071+424157796+423661039+428109081+432211416
3682+433433296+432345777+429541035+423698660+420446049+422364153+421876966
3669+421032993+424165952+427105431+427742583+427499603+427646928+427972411
3655+429990177+433562895+433532582+426521929+421864803+422896362+423447853
3642+421332876+417777412+414309353+410703964+406875300+403416859+397025585
3628+388305135+386673196+387993065+386778398+381709845+375357088+372607222
3615+371597750+369927459+367947974+364944638+362022012+360995073+359734276
3601+356708334+353684348+351369221+348615984+346402311+345719028+343683183
3588+338310362+334859039+335359827+336213017+335667089+333891855+331733176
3574+329922066+328732173+327173685+323028425+317955983+317278994+318962485
3561+319621088+319384660+318795383+317189986+314647719+313098400+313105424
3547+312863693+311611853+310348439+309614830+309194470+308794311+308499944
3534+308614999+308306700+306311210+303658366+302254487+301705046+301228019
3520+301167486+301443232+301340175+300650316+299873782+299200117+298522798
3507+297978897+296864883+295030932+294150540+294140616+293800189+293557962
3493+293423649+292448780+291035614+290334746+290364753+290058812+289054620
3480+288469138+288589119+288547750+288103606+287498677+286978890+286679408
3466+286389872+285712129+284613225+283533720+282804000+282565616+282589377
3453+282427696+281990482+280919605+279415733+278814033+279050814+279165256
3439+279037331+278778227+278483483+278045278+277538951+277372132+277278857
3426+276941636+276598616+276370627+276236243+276228488+276470643+277007590
3412+277346014+277057233+276566204+276386373+276303258+275905079+275535352
3399+275666507+276126491+276716476+277134573+277246682+277469414+277743981
3385+277950590+278567965+279564755+280382728+280907536+281402950+282199260
3372+283402447+284697895+285843755+287007931+288552111+290443885+292026087
3358+293068253+294336830+296313533+298288445+299564234+300533893+301804732
3345+303260942+304388887+305101093+305776620+306454952+306985747+307524981
3331+308125007+308412492+308000005+307409714+307442102+307714901+307521021
3318+307231627+307566232+307995644+307686992+307244969+307287399+307481349
3304+307510414+307354013+307303970+307592869+308060915+308596165+309283643
3291+309846756+310055580+310605139+311736997+312701258+313395101+314455159
3277+316166748+317686059+318271164+318872840+320110301+321119420+321454143
3264+321583153+321932420+322692924+323733040+324443690+324514524+324303365
3250+324374859+325103329+326152261+326832220+326988078+327073008+327509350
3237+328062680+328500460+329088017+329700607+329913721+329939509+330162076
3223+330326114+330282671+330484164+331026698+331446375+331457194+331381811
3210+331681435+332006493+331880218+331592639+331563999+332073249+332961868
3196+333490377+333580893+333847894+334230727+334442852+334872593+335550596
3183+335901748+335882466+335849088+335962046+336382736+337285285+338306143
3169+338817562+338968988+339537428+340449783+340621081+340078760+339877667
3156+339934027+339810015+339926154+340498790+341025082+341138700+341036468
3142+341031753+341174058+341230961+341099570+340950642+340923770+341078827
3129+341306415+341524244+341722437+341651721+341399288+341497372+341797514
3115+341752563+341630554+341784338+342021284+342297430+342583406+342746359
3102+342776107+342802862+342987171+343099539+343076321+343280950+343608742
3088+343741476+343728488+343755290+343890287+344158206+344726764+345411248
3075+345698049+345748965+345870479+345630209+344952183+344629600+344979267
3061+345440266+345559917+345292422+344951052+345056654+345483685+345704885
3047+345783592+345971131+346148346+346224625+346242893+345968043+345350692
3034+344957157+344981035+345138732+345383952+345546505+345460797+345439558
3020+345606778+345596124+345263381+344969155+345138779+345608570+345771335
3007+345724049+345979358+346408652+346841434+347380668+347888575+348243664
2993+348493787+348785208+349418329+350448545+351569230+352573799+353453366
2980+354144027+354454470+354403484+354377861+354449261+354265635+353852582
2966+353486650+353247511+353179223+353216797+353248926+353322305+353446082
2953+353636026+353858522+353937913+354037269+354381821+354631968+354543030
2939+354389553+354280438+354042125+353759543+353737550+353949109+353981403
2926+353737008+353608211+353576341+353104264+352357408+352103773+352313635
2912+352648357+353288338+354004221+354317870+354415411+354650000+354901915
2899+354898685+354814910+354929730+355174808+355551984+356078348+356561975
2885+356923476+357066629+356903463+356763775+356912915+357187459+357298813
2872+357020592+356644477+356728723+357164311+357465538+357559779+357637190
2858+357724312+357757077+357636930+357310363+356871924+356443903+356358171
2845+356819122+357510349+358167655+358703235+359087247+359578040+360463123
2831+361449683+361918743+361859860+361716212+361733891+361958910+362310557
2818+362756776+363325003+363917203+364417944+364814709+365139531+365355050
2804+365490142+365742221+366208947+366748440+367147538+367390519+367623552
2791+367903399+368217402+368561130+368977907+369424903+369725777+370012790
2777+370542406+371035533+371130953+371128148+371477131+371988456+372278675
2764+372453791+372687155+372874529+373110438+373645947+374328475+374782638
2750+374910492+374944742+375216764+375806725+376423463+376742841+376887078
2737+377289123+377934077+378460676+378898338+379424796+379935272+380374914
2723+380877281+381457035+381952189+382315741+382712812+383232481+383828829
2710+384422797+384899683+385271108+385552487+385685811+385824485+386181648
2696+386770548+387331068+387519432+387397612+387301626+387418544+387672414
2683+387839399+387843477+387761234+387755529+387902690+388038347+388151704
2669+388361637+388606503+388745696+388776481+388982784+389529231+390170060
2656+390601640+390781188+390901406+391032395+391266419+391750282+392161802
2642+392320301+392523727+392804234+393173915+393716071+394181666+394557122
2629+395029434+395431715+395754392+396237902+396873168+397610030+398347929
2615+398870709+399354077+400016310+400607355+400990306+401374625+401919516
2602+402609045+403286034+403817159+404341354+404984587+405545272+405967400
2588+406503475+407190552+407711494+407912705+408057296+408373774+408936627
2575+409661891+410161194+410301825+410477578+410904326+411352195+411712941
2561+412122670+412667844+413291324+413830228+414203939+414366445+414506038
2548+414998364+415586533+415881749+416138072+416507964+416869182+417325961
2534+417948592+418537799+418855220+418969261+419237605+419659545+420013408
2521+420387072+420780584+421168108+421665808+422170815+422628678+423087908
2507+423432154+423642700+423827646+424065912+424417465+424813475+425109634
2494+425317776+425521485+425678946+425800106+425912262+425923058+425996179
2480+426302474+426543427+426443906+426092588+425672393+425311741+425167103
2467+425264927+425371850+425345685+425182708+424813098+424285556+423904726
2453+423820574+423733735+423433144+423061131+422726313+422391261+421985963
2440+421568974+421333159+421283894+421086219+420498049+419742566+419175988
2426+418882516+418655659+418245977+417589496+416878422+416409056+416194220
2413+415978442+415542878+414920623+414345513+413801895+413062346+412189238
2399+411506827+411035010+410497237+409880404+409271303+408614350+407858584
2386+406871387+405522784+403768412+401385939+398114047+394227985+390314368
2372+386409213+382240027+378071573+374286234+370993575+368667086+367731913
2359+367734105+368372365+370330470+374107252+378721029+381734219+381155525
2345+377579389+374281190+372964315+372776233+373149025+373761969+374072483
2332+374051999+374457768+375441075+376365358+377101937+378005099+379384111
2318+381209081+382951926+384257322+385255362+386201991+387332859+388515350
2305+389446540+390143824+390710731+391262671+391872126+392440424+392881079
2291+393211701+393642173+394334248+394990588+395300489+395478741+395790175
2278+396109623+396335490+396549005+396781850+397144954+397708042+398222337
2264+398562623+399054288+399806755+400449894+400982952+401786192+402723558
2251+403369573+403850348+404510459+405195746+405799048+406515638+407188667
2237+407704470+408352465+409259894+410257415+411128873+411904912+412829926
2224+413880672+414737940+415357413+416125296+417193297+418299769+419335807
2210+420346292+421352064+422408845+423496977+424646444+425994057+427385891
2197+428470346+429489412+430965163+432641842+434110851+435523287+436994512
2183+438457817+439985143+441751348+443637394+445267588+446659611+448261425
2170+450298379+452475303+454389446+456008703+457654503+459496893+461335087
2156+463101952+464858116+466439847+467776522+468912741+469748464+470351060
2143+470932723+471429952+471666332+471601462+471330006+470941633+470283125
2129+469174579+467668892+465946720+464175706+462304605+460184112+457864765
2116+455361180+452572184+449627047+446736173+443891736+441096046+438365461
2102+435501695+432472689+429491723+426548424+423575048+420687898+417911773
2089+415111793+412335903+409821097+407507455+405134835+402715213+400374369
2075+398083875+395783810+393517053+391305737+389104180+386999928+385111643
2062+383312013+381460453+379655118+377913805+376075988+374215306+372515032
2048+370861736+369141402+367435282+365717895+364039495+362512381+360969827
2035+359386989+357898108+356459743+355036016+353557271+351973490+350411489
2021+348958085+347505176+345974172+344564117+343412128+342339978+341160740
2008+339874673+338554875+337266050+336041978+334825803+333590204+332307037
1994+330792770+329099590+327757847+326935183+326269815+325558859+324680801
1981+323595969+322490299+321530163+320695949+319826918+318857472+317691811
1967+316341181+315365063+314957762+314560031+313826233+312828995+311791660
1954+310919189+310126838+309193457+308119798+307009107+305775041+304682100
1940+304331513+304304051+303939274+303349337+302727554+302026922+301303237
1927+300540871+299400526+298168393+297527233+296976426+296407868+296453174
1913+296451972+295721993+294876393+294633059+294699862+294628981+294381687
1900+293944497+293278870+292509054+291978401+291559573+290870656+290507506
1886+290747705+290926805+290889090+290711239+290430849+290163684+289898805
1873+289312003+287601215+285239369+284945355+286570576+287739324+287938885
1859+287687984+287359201+287165746+287027543+286746187+286135978+284998250
1846+283202108+281881957+282749078+284109915+284255024+283852202+283543219
1832+282366998+280108562+279001289+279374388+279728746+280262299+280772233
1819+280643435+280188236+279687660+278774385+277593073+277203615+277571928
1805+277614382+276647386+274807707+273451466+273216288+272841328+271256981
1792+269716902+270596280+272264897+272612656+271828155+270776559+269945315
1778+269731588+269319808+267287969+264150084+263651653+265737825+267530973
1765+268124776+267382894+266518295+266687283+267020969+267344401+266944218
1751+264430473+261544573+261438781+262694794+263325393+263016363+262478497
1738+262551122+261702765+258965227+258804135+261429989+263920563+265285171
1724+265283474+264605260+263044650+258990142+255218971+257100514+260730536
1711+262737035+262615827+260664959+258767033+258210403+256448818+253154980
1697+252799066+255662973+259144563+260711749+260104864+258565539+255397529
1684+251585035+253363286+256995878+258680854+257898239+256200486+254946666
1670+253413541+253802716+256189525+256828139+255623207+255619978+256272640
1657+255257275+250986801+245015133+245676328+246920814+245962728+248045035
1643+252316428+254701659+254674622+252513891+251537349+256377300+261820884
1630+265016427+267135977+269564132+272589201+276983076+281423504+284183954
1616+287724827+294095617+300033836+304285736+307913590+311962770+316052305
1603+319981174+324152410+328333594+332010548+335562052+339596405+343912680
1589+348305116+352664669+356826571+360942837+365003638+368041555+369535880
1576+372751766+379156452+384246007+387956363+393069255+399006437+404045760
1562+407137091+406968410+408221310+417687084+427319277+435207045+441656070
1549+447677404+452592173+455317854+455927474+457202533+467638720+479887361
1535+487704036+494981712+503867756+511320290+516826056+521669591+525799693
1522+531082139+539190635+547640926+557098403+566864909+573910118+577367145
1508+578723197+586405228+600668806+611118571+617984492+623216116+630215737
1495+639176645+645919660+650081303+655749292+665933872+676596304+685163795
1481+692625899+699820649+705944380+709931967+713800750+722927323+734592839
1468+743540264+750444653+759036141+768390372+773973266+775922013+784874624
1454+801265249+814963711+825520587+835228399+845589533+855574929+865115379
1441+874543532+882214532+888797069+897784331+907992247+917433977+927634539
1427+937688576+944125250+949061139+954770003+958076687+961205639+969108493
1414+977396608+982944333+986757722+988769265+989512822+991677677+994872536
1400+995651262+994330379+994618335+996620355+999595900+1001552662+999437024
1387+994952115+993803403+996733029+1001148543+1005859932+1009402054+1009764403
1373+1008783147+1009156528+1009035556+1008451913+1009292586+1008754200
1362+1006217284+1006738132+1009732345+1011080006+1010130430+1009336807
1350+1009348404+1009563853+1009888487+1009651352+1007959069+1004858875
1339+1003486323+1004813711+1004961837+1003746463+1003785782+1005271291
1327+1007552781+1010477222+1012818679+1013888001+1014576681+1016090760
1315+1018743745+1021870717+1025788577+1030696274+1035158743+1038324467
1304+1040861760+1043559910+1046751091+1049787169+1051266738+1052350486
1292+1054999417+1058127614+1060843961+1063377389+1065090133+1066022454
1281+1066959583+1067467985+1067112047+1066687374+1066303904+1065428250
1269+1064072198+1063164486+1063045023+1062137500+1060608429+1060329525
1258+1060943246+1061278535+1061285795+1061681900+1063147043+1064780868
1246+1064663479+1063565211+1064070407+1065399964+1064750035+1063119699
1234+1063766610+1065911005+1066256288+1065124925+1064940120+1065030543
1223+1063996296+1063485254+1064818111+1066786188+1067974878+1068726920
1211+1069925417+1070945331+1071217070+1071247902+1071546607+1072296197
1200+1073281225+1073741823+1073111507+1071925645+1070825491+1070730354
1188+1072090932+1072776313+1071767335+1071246016+1071719060+1071592808
1177+1070951271+1070449564+1069844800+1069094455+1067955738+1066145594
1165+1064382123+1063512692+1062886902+1061827763+1060729967+1059322905
1153+1057703883+1056809466+1056129837+1054281507+1051504439+1048886717
1142+1046259567+1043506165+1040982638+1038262991+1035001470+1031308487
1130+1027084662+1022150281+1016457824+1010599419+1005787896+1001430464
1119+995291741+987747842+981585170+977607814+973693348+967785442+960644813
1105+954767080+950355904+945446698+939255362+932147546+925537759+920901329
1092+917137535+912448021+906782719+900867647+895304836+889982271+884454063
1078+878933871+873449979+867764970+862458245+858355015+854904729+850686561
1065+846235030+842971058+840381151+837278506+833639927+830431585+827972550
1051+825528696+822813387+820555940+819504533+819037901+818154987+817053230
1038+816382936+816346824+816441583+815887829+814671701+813739851+813547975
1024+813383819+812999312+812928030+813246159+813843662+814682638+815260153
1011+815700667+817179294+819743742+822042958+823437857+824534805+825806752
997+826996574+827968213+828707055+828836041+828063444+826696643+825320131
984+823856779+821879086+819528482+816975254+813967274+810358867+806411495
970+802695317+799749567+797793465+796606378+795686314+794823484+794245780
957+794320834+794944267+795891580+798085381+801564519+804411926+806708408
943+810183209+814277388+818047593+822391164+827414647+832209670+836932657
930+841804902+846079831+848938459+850940950+853600536+856942956+859640162
916+860775485+860861287+861233348+861586835+860739184+858910277+856376567
903+853046310+850008158+848153510+846519214+844091955+840982521+837501214
889+834270715+832115382+830993071+830046795+828881299+828000177+827400127
876+826513536+825783368+826467995+829003497+832411541+835836840+839301363
862+842697622+845885504+849488819+854269510+860009866+865896274+870638401
849+873794225+877310983+882212929+887316651+891588186+895156426+899472277
835+904846323+908865072+909879801+909919779+911195120+913140567+915271290
822+917928047+921505716+926333740+931883445+937108987+940261511+941202884
808+942662369+945563332+948478156+950901832+953598095+957661631+963127137
795+968561433+973546164+979513188+986381136+993161112+1000330782+1006782541
781+1011246047+1015938202+1021593792+1026086810+1029494289+1032140863
770+1033489843+1035714100+1039562847+1042800324+1045266996+1046500002
758+1044690990+1041789556+1041653969+1043934139+1044407748+1042430809
746+1041953334+1043594702+1044653180+1044241518+1042919505+1040909659
735+1038211038+1036368460+1037586285+1040427752+1040294334+1035754832
723+1030309033+1027072876+1026405504+1027701683+1029330793+1029068484
712+1028497381+1029837404+1029939235+1027010457+1023902437+1022801812
700+1023633622+1024830327+1025470732+1024606487+1021493941+1018047050
689+1015794412+1013045913+1009058562+1007561267+1011363059+1017716381
677+1021735507+1023407047+1025632436+1023992388+1015468270+1014678041
665+1025563888+1031152063+1031396835+1032447110+1032158400+1029800537
654+1027228074+1023514536+1021221731+1024008606+1028799103+1030550316
642+1030510055+1030618204+1028240445+1028254494+1042494925+1058556531
631+1050765314+1031602572+1021827250+1017326123+1013641531+1012049476
619+1008700173+1004237045+1007339501+1014669366+1020145904+1026125374
608+1031058812+1036046183+1040442461+1042066574+1044041345
##END=
