##TITLE=Sample description
##JCAMP-DX=4.24
##DATA TYPE=INFRARED SPECTRUM
##DATE=24/8/2023
##SAMPLING PROCEDURE=Instrument type and / or accessory
##ORIGIN=Default
##XUNITS=1/CM
##YUNITS=ABSORBANCE
##RESOLUTION=4
##FIRSTX=4397.6552
##LASTX=599.8556
##DELTAX=-1.9287962
##MAXY=1.5608537
##MINY=0.57685673
##XFACTOR=1
##YFACTOR=1.4536583e-009
##NPOINTS=1970
##FIRSTY=0.81134278
##XYDATA=(X++(Y..Y))
4398+558138575+558900497+558362576+557757532+558377296+559767099+560667284
4384+560434549+559371787+558346871+558005274+558446263+558886966+558873353
4371+559019160+558991278+558277658+558072560+559011492+559447643+558345805
4357+557150562+556646223+556381588+556527067+556887444+557531564+558788845
4344+559384047+558514903+557382025+557171146+557741090+558031967+557533942
4330+556721587+556195761+556585005+557642313+557798741+556745450+555913126
4317+555734147+555359870+554540667+553908193+553658114+553533793+553712157
4303+554164504+554063841+553717282+554838063+556874323+557487813+556651389
4290+555706306+554614473+553140490+552341625+552364258+552111843+552102207
4276+552748212+552706553+552010688+551590897+551456775+552243750+553367525
4263+553075664+552725004+553356946+553064019+551816168+551369685+551733178
4249+551566787+550837668+550903396+551766268+552548650+552825175+551828592
4236+550282280+550353174+551405726+551427704+551000656+550903437+551034196
4222+551950495+552630574+551529474+549931907+549491656+550206834+551046333
4209+550951575+550311310+549748910+549405262+549534340+549583298+548904203
4195+547701784+546585923+546615035+548084795+549407107+549244079+548301989
4182+547840498+548048097+548529926+549017987+548875542+548220024+548149334
4168+548319251+547774401+546689866+545921015+545867834+546215705+547154966
4155+547958464+547475693+546601586+545946724+545756346+546535079+546669488
4141+545206575+544146807+544262641+544477620+545062326+546780155+548480189
4128+548286408+547084563+546882335+546831204+545874231+544994589+545099065
4114+545740724+545832817+545759750+546581700+547817495+548353817+548155772
4101+547837464+547222826+546005605+544963139+544928533+545378584+545698737
4087+546299229+546565750+545287803+543432244+542952055+543617578+544009774
4074+544118555+543938428+543438722+543437574+543420312+542955418+543290168
4060+544391063+545154091+545698901+546363030+546599823+545454522+543399933
4047+542331677+542534274+543303453+544566597+545393919+544642002+542755609
4033+541241443+540801765+540916451+541277403+541820162+542147121+542308510
4020+542508360+542291781+541953381+542442304+543255930+543265197+542437465
4006+541653607+541277157+540627830+539667453+539283540+539837575+540754612
3993+541153655+541228978+541874614+542285425+541119171+539593114+539480683
3979+540147846+540333017+540141040+540065471+539871403+539394085+539382645
3966+540410267+541406891+541255425+540708606+540413465+540155268+539937295
3952+539748680+539196654+538150416+537784545+538224345+538317586+538002846
3939+537671048+537997474+538591119+537658173+536515373+537828131+539842906
3925+539638300+538132949+537458856+536696771+535506366+535687231+537361843
3912+538797283+539302401+539436646+538714948+536531651+534005075+532078252
3898+532514116+535584764+537961228+536917122+535443139+536477404+536270789
3885+534475545+534619016+534587730+535002519+537112420+537404486+535591899
3871+533282024+531617048+532421244+532437317+530815190+531660635+534477842
3858+536753355+535646310+527613414+524462236+530294080+535546836+537610814
3844+536915072+534775976+532103756+529274125+529264449+531427900+532531092
3831+533341807+534494858+534556691+534284102+532011499+526317015+526009245
3817+529346701+530910850+533633873+536887600+537526717+534875737+533053349
3804+532174979+528731694+528659733+532260758+534187211+535444574+536934712
3790+537751496+537825097+536907035+535737214+535427927+534555010+533565479
3777+535184819+538094611+539225602+537032013+534365370+533972108+534279960
3763+535256533+535622569+533172792+531339170+532285605+531890253+526539253
3750+523618021+528273401+531297674+528906860+529490171+532911970+533348408
3736+528822557+524866117+526199172+530348573+534154449+535264160+534094257
3723+533092876+532834761+533771110+535885195+537375620+535277568+530790793
3709+530923192+534156705+536367638+536204117+535356786+536753724+538552084
3696+538853416+538236482+536440214+533085168+532239846+535721592+539709973
3682+541259238+540245393+537489363+531007905+526296227+528221327+528074536
3669+526000102+527644453+529668248+529861988+529400907+528672280+526069397
3655+523816189+524489298+522715499+514410547+510352993+513594583+517145378
3642+518038510+516487687+514284626+512234671+510364474+508473939+503012395
3628+494877154+494037327+496601708+496209676+490716355+484164617+482854114
3615+482961911+480972928+478860156+476265924+473268590+472383741+472033738
3601+469530697+466283613+464706138+463906698+463135510+463022792+461639057
3588+456886335+453801418+454868567+455756205+454582775+452537617+450688988
3574+449550985+449390786+449041848+445511432+439885792+438570492+440220461
3561+441066029+440667231+439692995+438020024+435724624+434443888+434489525
3547+433952670+432405332+431244737+430685002+430222937+429817825+429560202
3534+429482788+428914566+427221421+425686753+425375415+425033941+424192145
3520+423773092+423520800+422867783+422106681+421287355+419976934+418671023
3507+418380966+418167791+417004776+415966575+415495407+415073197+414427274
3493+413392517+412394950+411900861+411673334+411337723+410692333+409865954
3480+409363542+408801511+407443649+406117852+406051837+406837089+407276725
3466+407008236+406352841+405317551+403723757+402111101+401548619+402139844
3453+402844156+403158200+402864494+401708531+400776078+400632484+400520218
3439+400181695+399799012+399869169+400224831+399821441+398577773+397398644
3426+397159800+397707111+398107753+397939066+397301671+396831037+397119945
3412+397646098+397866531+397953130+397766279+397479543+397697680+397953704
3399+397858290+398164420+398853355+398936223+398551695+398616193+399037747
3385+399400051+399855761+400260216+400474540+401029518+401974437+402917634
3372+403680252+404158432+404885213+405931164+406436857+406588896+407148918
3358+408131519+409312288+410855854+412709936+414244030+415401756+416454472
3345+417062754+417114254+417462248+418662699+419858271+420389139+420539621
3331+420506408+420439655+420415135+420445190+420640940+420962897+421218798
3318+421481997+422176387+422956883+422931297+422491947+422768227+423703879
3304+424180090+423776824+423500134+424054661+425001876+426056807+426750745
3291+426420874+425977998+426844929+428428227+429030154+428733332+428901404
3277+429797734+430820231+431790243+432913075+433993017+434639925+434783805
3264+434957946+435747011+436506145+436722600+436818220+436917284+437181016
3250+437502891+437496208+437484809+438067259+439246635+440061614+439976245
3237+439862298+440034142+439863528+439621035+439958409+440616962+441325251
3223+442063390+442257131+441885068+441688088+441773744+441947228+442008610
3210+441952026+442168974+442615868+443025449+443449094+444119373+444904010
3196+445310680+445609921+446216974+446448683+445892597+445608609+446304598
3183+447408814+448381410+448961810+449381314+450211752+451440987+452481648
3169+452671862+452424120+452596580+452949536+453109448+453331767+453907575
3156+454568383+454733954+454505689+454619145+455326696+455959458+456097925
3142+456143070+456512550+457360701+458206515+458266052+457797713+457513807
3129+457438648+457476125+457753020+458325629+458865395+458805244+458330427
3115+458065382+458064111+458279624+458734554+459209330+459481756+459392533
3102+459301711+459989703+460817845+460514913+459853450+459896790+460206323
3088+460442215+460590851+460683354+460814278+460748385+460625581+460909774
3075+461401936+461761288+461949410+461571853+460640629+460348112+461163584
3061+461935223+461946786+461830665+462166399+462653599+462747620+462524726
3047+462360877+462167957+462123428+462669303+463495190+464071695+464280401
3034+464120079+463710621+463238510+462731587+462629776+463218418+463800828
3020+464097281+464285035+464483654+465157419+465986257+466102543+465586312
3007+465158280+465316429+465926393+466500643+466897718+467281344+467779163
2993+468598448+469669534+470515635+471076559+471825154+472931011+473979094
2980+474717028+475196889+475446311+475489447+475296937+475109142+475011144
2966+474616529+473990615+473659310+473894996+474333976+474558223+474780583
2953+475130751+475402356+475638411+475827231+475825591+475882667+475907474
2939+475431714+474889406+474860785+475087902+475154040+474933156+474673524
2926+474623992+474566505+474240448+473715115+473353549+473502554+473880317
2912+473981677+474062699+474668275+475533525+475824976+475433313+475252366
2899+475794551+476426411+476536791+476460402+476818319+477557566+477911711
2885+477536039+477087464+477232821+477759220+477962186+477730231+477496020
2872+477304371+476986186+476815326+477152454+477798460+478284840+478345115
2858+478065555+477827285+477641787+477254552+476777275+476263751+475872498
2845+476197613+477064010+477652939+478018319+478505724+478847199+479018141
2831+479402792+480031945+480572695+480802682+481036237+481637918+482155501
2818+482202778+482304630+482778709+483234295+483524844+483980718+484511135
2804+484700898+484847607+485381838+486013451+486395191+486533618+486612590
2791+486808667+487016595+487110615+487347777+487909972+488526128+488927918
2777+489044162+489024890+489258322+489788780+490295088+490599044+490667028
2764+490748501+491158861+491717120+492216088+492662038+492907115+492993959
2750+493071209+493172774+493511830+494004852+494299337+494469132+494648808
2737+494762427+494906923+495209977+495567443+495961771+496467505+496929570
2723+497304134+497759680+498231052+498608528+498977598+499400546+499839977
2710+500240414+500664715+501015949+501016154+500969779+501420650+502241452
2696+502984184+503439566+503499431+503314465+503470318+504024272+504468623
2683+504792549+505056035+505017779+504860245+505091257+505623192+505899143
2669+505863306+505797742+505845347+506213310+506964447+507697954+507967345
2656+507791072+507641287+507950779+508420635+508502805+508431788+508657715
2642+509133066+509647492+509960674+509899333+509878709+510446480+511196716
2629+511581777+511837145+512198260+512701779+513257906+513586956+513621932
2615+513576255+513859915+514528062+515217162+515819622+516202756+516330686
2602+516580969+517042419+517427152+517743574+518291828+518946526+519241339
2588+519222846+519444633+520017365+520478980+520698429+520885526+521208016
2575+521728962+522191970+522385587+522416176+522335153+522307353+522675152
2561+523104374+523088751+523031306+523182526+523230089+523180393+523272282
2548+523777974+524530834+524824827+524673771+524741139+525144980+525606963
2534+525932241+526258873+526810038+527175868+527097757+527055032+527259638
2521+527645929+528203573+528661168+528842075+528842772+528775772+528879839
2507+529304058+529777030+529903975+529893110+530307283+531035213+531591503
2494+531637427+531219112+531018155+531306941+531638985+531789057+531711766
2480+531355448+531050917+531133621+531289228+531249004+531321907+531622461
2467+531850438+531790656+531448361+531015777+530815231+530915401+530970838
2453+530760491+530504918+530411595+530333976+530041582+529584971+529310413
2440+529402670+529472909+529113885+528622707+528291279+527888627+527484336
2426+527346278+527348861+527299903+527175007+526976921+526622612+526091539
2413+525506505+525074946+525005897+525094587+524808918+524139499+523636390
2399+523489230+523397505+523051356+522477312+522106356+522001633+521748275
2386+521138434+520149806+518691404+516620742+513948154+510664166+506755331
2372+502652018+498923104+495733342+492591882+489322000+486778038+485636099
2359+485807041+486752452+488504929+492042644+496976108+500528421+500405698
2345+497032898+493516422+492004921+491771449+491754310+491848740+492093488
2332+492479451+493431423+494954773+496339862+497458675+498903423+500655326
2318+501950904+502653658+503489180+504686432+505776215+506794612+508019870
2305+509051346+509528008+509756642+510120341+510682577+511244156+511643036
2291+511951052+512347102+512875838+513219199+513175940+512980888+512911265
2278+513032798+513126531+513175776+513456238+513812064+513887428+513841094
2264+514026265+514399599+514707246+514883847+515170869+515762094+516442911
2251+516921050+517087277+517152677+517518671+518080497+518467157+518749177
2237+518991752+519078638+519246054+519717181+520328088+520796180+521030596
2224+521274278+521623133+521999419+522470628+522969555+523379054+523697690
2210+523949286+524265748+524759304+525346511+525915225+526519612+527200183
2197+527748683+528027259+528382921+529127293+529901269+530262425+530369936
2183+530620957+531145716+531817431+532494927+533165165+533760040+534190573
2170+534630538+535212209+535835704+536455180+537073016+537684210+538267235
2156+538735778+539031821+539265498+539631862+540066988+540297959+540281927
2143+540291276+540467999+540586417+540541395+540384435+539973091+539359191
2129+538917873+538731760+538355268+537520156+536518612+535540768+534555092
2116+533660689+532867523+531991859+530946851+529826356+528634393+527326801
2102+526066117+525028941+524208303+523423419+522501790+521476997+520282574
2089+518833070+517455321+516372427+515506152+514774737+513861145+512685255
2075+511618188+510627755+509528213+508490545+507576297+506691120+505879339
2062+505153746+504366976+503468473+502549674+501641289+500684643+499641603
2048+498660356+497889455+497153693+496267040+495445049+494905693+494318527
2035+493354501+492306705+491501197+490886067+490417277+489964971+489237574
2021+488310574+487460946+486738101+486211620+485872728+485428951+484775073
2008+484133331+483568840+482980608+482365806+481789342+481330886+480839339
1994+479943501+478759944+477950295+477599389+477246721+476717000+476051477
1981+475446434+475098235+474852380+474472444+474001194+473429733+472535699
1967+471593486+471203505+471213264+471095461+470689530+470089079+469440244
1954+468973751+468836841+468745732+468238563+467237839+465963501+465044414
1940+465148644+465653270+465724411+465402659+464930794+464352239+463730179
1927+463134075+462263823+461231198+460709473+460265532+459664589+459710799
1913+460052930+459784933+459110554+458830051+458921775+458943507+458723032
1900+458150300+457252453+456362355+455991317+455827673+455229232+454930441
1886+455294058+455467624+455357941+455235915+455099497+454994283+454961194
1873+454698404+453308519+450989500+450473065+452061037+453299662+453495124
1859+453375764+453302081+453204985+453056472+452912961+452556930+451608977
1846+449895166+448549072+449395747+450777104+450951614+450733599+450769477
1832+449899799+447751601+446727833+447425379+448035835+448576954+449156042
1819+449234358+449010686+448700169+447798098+446343756+445672533+446084287
1805+446444378+445956521+444607803+443545082+443520439+443355319+441835905
1792+440305952+441365106+443322107+443896849+443235344+442402569+441891013
1778+441879983+441582300+439621117+436314660+435663365+438059264+440324240
1765+441357602+440958272+440178719+440373936+440728736+441114699+441008460
1751+438832625+436110341+436075529+437432407+438192114+438001121+437560542
1738+437825792+437191841+434292833+434042303+436922532+439469815+440868434
1724+441152176+440775193+439260740+434981194+430976166+432999387+437051487
1711+439487118+439617837+437649642+435751891+435429810+433508728+429577177
1697+428943760+431783560+435665620+437933138+437831409+436551084+433549527
1684+429564754+431166093+434990461+437003226+436421268+434701881+433453620
1670+431910793+432300569+435000958+436108741+435288308+435661069+436919006
1657+436592948+432549746+425704876+426098999+428034350+427601151+429938006
1643+434725539+437629222+437813040+435461096+434155390+439391048+445587452
1630+449168097+451117225+453139626+455736154+459765129+464036514+466417324
1616+469164252+475158510+481011430+484861548+488012439+491991923+496187740
1603+499976026+503788954+507604302+510850649+513688767+516983252+520867485
1589+524766438+528305835+531542504+534836989+538213602+540570589+541214463
1576+543419410+549120864+553629617+556371132+560594667+566151257+570870110
1562+573643608+572710539+571952677+580830444+591193552+599841620+606872603
1549+613357177+618664262+621485816+621650238+622372715+633903676+648393306
1535+657947134+666090903+675437951+683739460+690247242+695786282+700091783
1522+704870460+713044366+722671918+732931083+743159578+751088531+755383042
1508+756670297+763847579+779297585+791619868+799820918+805010939+810943446
1495+819952424+827837996+832306197+836693129+845711537+855944706+864076297
1481+870166749+875289443+879782164+881882922+881536609+884923145+892927790
1468+899553908+903229763+907110552+912439984+915852762+914332774+914010488
1454+921901309+930141148+935230383+938407803+943027224+948856075+953133775
1441+955757980+956648652+956118070+959432687+965496241+968208438+969027190
1427+971931365+974611990+975890060+976988700+976645339+976647471+980264938
1414+984130064+985477347+985514332+985920591+986115931+986122573+986779855
1400+986291506+983321645+979795779+978255043+979950771+981756634+980109290
1387+976496662+974985038+975581962+977320908+979692943+980825534+979503344
1373+978373460+980212372+982498054+982633201+980490866+976680274+974510467
1360+975898179+978051093+978613739+977333373+976703728+977819425+978790709
1346+978670651+978144990+977183957+974921155+972935616+973200906+974374746
1333+975052611+974746645+974477090+975746631+977948749+979767897+980445762
1319+981145687+984443656+988622374+990563548+992546709+996665809+1000658290
1306+1003241656+1005490846+1008371075+1011774996+1014567478+1016496023
1294+1018262441+1019942424+1021709580+1023761298+1026317520+1029951798
1283+1033539414+1035163387+1034902688+1034435908+1034388344+1033082474
1271+1030965889+1030850670+1031849508+1031191488+1029322481+1028670858
1260+1029620246+1030010268+1028912366+1028042443+1028416802+1028967311
1248+1029559643+1030703960+1031803748+1032437166+1032413876+1031581429
1236+1030556923+1030744062+1032483827+1033951414+1033804869+1032876474
1225+1032828828+1033735655+1034446405+1035253184+1036854113+1038709179
1213+1039942310+1040644039+1041887092+1043789804+1045102317+1044891970
1202+1043168688+1040979855+1040027596+1040384980+1040544401+1040146096
1190+1040067206+1040886696+1041945562+1042331812+1042304340+1042062421
1178+1041739480+1041956633+1042247920+1041415637+1039608380+1038360652
1167+1038542624+1039519157+1040162251+1039776903+1038673589+1037183122
1155+1035529709+1034612058+1034530625+1034763605+1034648304+1032942079
1144+1030062260+1027662917+1025876571+1024415299+1023192092+1020744119
1132+1016620017+1013346567+1012399229+1011811407+1010180218+1009723770
1121+1010791740+1008750518+1002262746+995916106+992242055+989255054+985880326
1107+983375933+981062286+977909386+975260661+973865978+973369101+973615449
1094+974107569+974180309+973917396+974079441+974308895+973096676+971134919
1080+970072280+968953467+967757403+968272813+968747385+966027232+961637511
1067+959284420+959097855+958791233+958477559+959237840+959299755+957104197
1053+954205025+952327242+951879897+952195130+951836680+951009891+950658166
1040+949477110+947202252+945925658+945347431+944065917+943114889+943440536
1026+943772826+942838691+941541596+940761305+939729747+938318088+937751424
1013+938270853+938138658+936967197+936417754+936217084+935028402+933661273
999+933147257+932660385+932007122+932371886+933446170+933838981+933184652
986+931892723+930618261+930062668+929894883+928415405+925737650+924558890
972+924875189+923905709+921582632+919329424+917055222+914998666+913646052
959+912662549+912212416+912322059+911796233+910071803+908168516+907816463
945+909895079+912646066+913624320+913055606+913201413+915516864+918797858
932+920742476+920928631+920818004+921919022+924455070+927174320+928800097
918+929715207+930808516+932060098+933738687+935599412+935965735+934626160
905+933398606+932934450+932417646+932324322+933524814+934821335+935263514
891+935543730+935808857+935229071+933882690+933455109+933988642+933810196
878+933434443+933283387+932468572+932452006+934984938+938924854+941412928
864+941117459+941075800+944051648+947870850+950166538+951967808+954665081
851+958130590+962268469+966240941+968046230+968807249+971008793+974004323
837+976728822+979510233+981997897+982652390+981333481+980388440+981527508
824+984737403+989461628+994153132+998006285+1000773673+1000052509+997574768
810+998893430+1003371226+1006804588+1007677792+1007244307+1006868225+1006023559
797+1005881688+1009133652+1015053858+1019663766+1022408193+1025700258
785+1026661291+1023552018+1022046462+1024535685+1026752072+1025983426
773+1024348382+1024068248+1024160833+1023070230+1021825209+1022906956
762+1027847759+1034430167+1036854441+1034793538+1032875080+1030843453
750+1027697278+1024956624+1022803217+1021381144+1021132009+1021241898
739+1020142110+1018410134+1018353058+1019216421+1018059803+1014812021
727+1012807047+1012063249+1010037199+1009119711+1010428123+1011025622
716+1011517742+1012151242+1010822574+1009424201+1010991425+1013816218
704+1015248378+1015226400+1013103500+1008896818+1007133844+1012542822
692+1020990958+1022495693+1016573929+1010265914+1005444840+1003298322
681+1006887989+1013036829+1017968202+1023294026+1025236839+1016722033
669+1001698295+999817233+1015252724+1027981102+1029767611+1020282095+1007078982
656+1004269032+1015003014+1023401536+1020444303+1015099454+1009259614
644+1005243842+1005472722+999272546+994885860+1013851234+1050484397+1073741823
631+1058612216+1017822723+988358724+990267833+1020370416+1056869252+1060359362
617+1015853421+966881329+952724973+975209079+1008027960+1019194526+1013137697
604+1015738940+1025682380+1026782332
##END=
