##TITLE=Sample description
##JCAMP-DX=4.24
##DATA TYPE=INFRARED SPECTRUM
##DATE=24/8/2023
##SAMPLING PROCEDURE=Instrument type and / or accessory
##ORIGIN=Default
##XUNITS=1/CM
##YUNITS=ABSORBANCE
##RESOLUTION=4
##FIRSTX=4397.6552
##LASTX=599.8556
##DELTAX=-1.9287962
##MAXY=1.4110162
##MINY=0.34594032
##XFACTOR=1
##YFACTOR=1.3141113e-009
##NPOINTS=1970
##FIRSTY=0.47852719
##XYDATA=(X++(Y..Y))
4398+364145108+364226479+363521965+362739664+362400481+362251936+362075949
4384+361997390+361882319+361610628+361368442+361328641+361497416+361446729
4371+360916320+360575187+360757546+361051893+361572550+362315799+362569234
4357+362405289+362299856+361780559+360764940+360231083+360548993+361023023
4344+361083643+361040576+361297254+361158324+359972229+358972733+359366549
4330+360312386+360893868+360936912+360381375+360121024+360835992+361644646
4317+361620244+360835402+360109435+360049540+360092244+359797195+359776648
4303+360020965+359851079+359549725+359539655+359471415+359399819+359503778
4290+359397891+359147223+358876258+358506664+358587264+359161193+359463682
4276+359470304+359816630+360283766+360065892+359656768+359858404+360009989
4263+359600026+359084222+358567102+358037396+357896562+358044563+357773507
4249+357120383+357053572+357722548+358405948+358722338+358320041+357638682
4236+357811018+358508705+358750936+358867527+359329900+359236849+358483237
4222+358358254+358543653+358335009+358231299+358082640+357824942+358019457
4209+358459469+358723404+358799287+358610600+358158432+357714043+357525221
4195+357690571+358042000+358286612+358292917+358099853+358137636+358447404
4182+358424612+358411391+358733110+358600100+357991290+357311179+356558020
4168+356397840+356981544+357420264+357586861+357697715+357838504+358233658
4155+358370524+357908695+357227200+356434943+355915260+355958032+355953724
4141+355734194+356003571+356801476+357257907+357014383+356626442+356553325
4128+356705499+357029419+357344517+357002454+356006837+355295883+355158223
4114+355205281+355635451+356209993+356141367+355850853+355799645+355589731
4101+355169585+354917375+355109668+355369566+355423382+355709157+355872080
4087+355160582+354175646+354000544+354660925+355305929+355266990+354551432
4074+353880370+354082596+354837161+355267081+355201925+354889435+354574043
4060+354254795+353944709+353925704+354215425+354455751+354305708+353840432
4047+353487983+353617796+353978954+353966594+353797592+353854085+353846034
4033+353722775+353818275+353999773+353706764+353060127+352849328+353108659
4020+353103738+352732692+352648622+352833725+352692777+352346882+352220199
4006+352270750+352308986+352255351+352172823+352298440+352752830+353044615
3993+352593853+351844254+351705574+352223782+352794106+353119817+353198399
3979+353006605+352600883+352189174+352075531+352202895+352213214+352156494
3966+352330009+352545048+352365320+352213690+352617507+352767776+352030061
3952+351307790+351080935+350975434+351413994+351817970+351050001+350362247
3939+350909302+351974657+352272881+351145002+350159023+350872676+351678995
3925+350887463+350104776+350601553+350573817+349564547+349471065+350596699
3912+351659740+352316266+352707927+351989987+350196829+348982271+348274470
3898+348435647+350314350+352072130+351113297+349634533+350841108+351292459
3885+349715224+349306441+348766007+348887338+350721137+350978359+349527172
3871+347710496+346921255+349033707+350017213+348477466+348577616+350424183
3858+352444491+352824745+347374647+343240209+346825074+351569116+353738356
3844+352600384+350413818+348856609+346802668+346102690+348087257+350128883
3831+351069278+351574400+351982095+352965874+352374074+348065259+346912115
3817+348237911+348232627+350330565+353639567+354683672+352262200+350558236
3804+351008567+349209444+348090409+349763688+351147179+352651434+354302533
3790+355096378+355318947+355136406+354843239+355008385+354289357+353282060
3777+354767583+357177851+357806436+355906212+353843335+353721823+354371363
3763+355706730+356630252+355353691+354384970+355486565+355840580+352513570
3750+349900237+352452224+354052705+351874009+352551194+355827721+357026290
3736+354177710+351381065+353321340+357862884+361652311+362554107+361294351
3723+360681709+361840159+364564210+367910201+370956063+372437253+373963733
3709+381208237+393665913+408972397+427813036+451119790+474226609+493092875
3696+507890357+518613296+523929090+521921482+517594569+516532481+514561884
3682+508982881+501040078+491923879+477681027+463137409+457408001+450568471
3669+442280362+439687326+438051830+434528922+430852343+427472175+422027339
3655+417167296+416625411+414693777+404720414+396654285+397229099+399589179
3642+400207808+399019536+397374832+395832137+394271298+393090691+389327344
3628+382348295+380817302+383037319+384314809+382003896+377237561+375491642
3615+375547046+374624069+373486075+371603653+369332881+368686629+368241605
3601+366288856+363720427+361511250+359309376+357572528+357294692+356731625
3588+353115644+349558854+349119024+349098092+347801415+345847283+343797537
3574+341979568+341087366+340516747+337368287+331857184+329659256+329832000
3561+329206499+328232699+327497319+326065387+323847139+322197264+321441315
3547+320248666+318136395+316583313+316224786+315996978+315094344+313886908
3534+313071518+312149380+310319504+308478357+307553316+306478074+304906895
3520+303868074+303197012+302420698+301542148+300186416+298435689+297344572
3507+297267850+296628243+294696880+293240364+292626066+291705946+290590359
3493+289801095+289041699+288043406+287027106+286241992+285438033+284353515
3480+283543591+283038332+282224530+281337022+280642261+279790200+278751244
3466+277845774+276910233+275658392+274509830+273880519+273489107+272870931
3453+271996577+271109727+270286604+269516821+268791126+268143513+267864248
3439+267892460+267493859+266799710+266595125+266355276+265446699+264542046
3426+264064614+263676015+263333635+263250404+263321116+263549196+264222118
3412+265068804+265343126+264966206+264709347+265107721+265818630+266305519
3399+266387615+266326020+266605852+267084600+267358558+267756048+268576744
3385+269318519+269606084+269905783+270808781+272199597+273369840+274060633
3372+274654928+275350959+276008437+276477025+277042177+278075373+279402644
3358+280814483+282173276+283213752+283964893+284828906+286089387+287505286
3345+288627314+289194712+289340536+289559975+290019446+290535227+291061350
3331+291391302+291318345+291228696+291230783+290796191+290179104+289963951
3318+289833911+289674820+289772203+289618373+289142846+289534439+290735230
3304+291203613+290767774+290549741+291023341+292083411+293389431+294414621
3291+295227607+296110398+296911840+297598483+298289729+299078426+299942076
3277+300686164+301068821+300982461+300998608+301584104+302209287+302506151
3264+302724728+303065453+303579760+303892409+303623054+303142991+302761264
3250+302681095+303174265+303498820+303059443+302603125+302579585+302691050
3237+302630272+302259951+302079315+302388403+302456122+302382824+302839165
3223+303041459+302442197+301835814+301753990+302136035+302739515+303089424
3210+302946685+302768544+302889670+303019030+303035132+303125824+303339797
3196+303690614+304338589+305092021+305450095+305560608+305791568+306159892
3183+306785597+307402117+307371229+306848553+306629046+306928473+307123759
3169+306826510+306549444+306746046+307262303+307898781+308499154+308868703
3156+308944745+308898072+308923064+309006998+309227480+309526022+309605579
3142+309539108+309385346+309164410+309254241+309576301+309683707+309616669
3129+309646242+310038583+310809001+311444798+311665190+311776587+311905561
3115+311833896+311722703+311962008+312408484+312754719+312960120+313022577
3102+313030810+313323886+313951814+314209489+313937708+313971068+314589788
3088+315510997+316383627+316725577+316642346+316764402+317197429+317445874
3075+317338672+317327718+317662342+317940519+317795807+317443221+317236414
3061+317123293+316922790+316657223+316355211+316037233+315843693+315876055
3047+316014894+316041927+315966339+315895741+315728803+315525647+315595701
3034+315777947+315658589+315279923+314943281+314946206+315291784+315716125
3020+316208389+316755444+317040198+316959666+316797672+316699587+316736167
3007+317087438+317612790+318106890+318577972+318984805+319589011+320860151
2993+322549532+324026845+325285625+326573412+327880997+329077140+330067972
2980+330909623+331509520+331824232+332090162+332111049+331651670+331111486
2966+330742322+330477889+330324762+330203681+330054002+329922760+329930471
2953+330201617+330694901+331384107+332244400+333051693+333563552+333869442
2939+334139522+333999663+333279501+332780048+332889110+332816289+332199950
2926+331731227+331649289+331333760+330525106+329720897+329266303+328926145
2912+328654545+328633930+328684209+328752812+328880153+328713578+328334208
2899+328275970+328463386+328460937+328286629+328343257+328623498+328707794
2885+328642616+328627920+328554985+328547479+328742357+328854979+328677496
2872+328254017+327677479+327257447+327258286+327469855+327617653+327679724
2858+327618877+327370047+326944005+326467072+326217765+326246839+326238675
2845+326140794+326266683+326618089+326949856+327348910+327924949+328440458
2831+328761157+329096167+329570197+330018918+330439403+330974008+331425337
2818+331596130+331770121+332293069+332947122+333280635+333303790+333334043
2804+333563347+333921126+334306505+334711003+334941350+334981333+335170677
2791+335547234+335898890+336265491+336809190+337419360+337846331+338221573
2777+338762165+339213312+339460147+339775948+340036231+340041357+340073356
2764+340375550+341041464+341917383+342463169+342542408+342565744+342792440
2750+343113593+343352377+343681309+344288236+344910245+345303924+345609111
2737+346086996+346745450+347251615+347437921+347628218+348090908+348765100
2723+349555747+350226311+350571163+350900050+351497111+352010988+352182711
2710+352267325+352397501+352604829+352900809+353100880+353221145+353391417
2696+353562981+353658685+353691910+353790607+353973965+354168638+354470038
2683+354834439+354963821+354929849+355010109+355176888+355364372+355465905
2669+355425560+355414878+355555168+355829354+356030037+356097960+356261768
2656+356500008+356676471+356816988+356882098+356859964+356918316+357142110
2642+357440561+357666963+357757496+357892003+358195421+358516778+358782663
2629+359070343+359295587+359401633+359579706+359883895+360268571+360730876
2615+361160479+361504605+361725269+361789858+361811584+361925567+362095839
2602+362090146+361912549+361780174+361701479+361633375+361497098+361247066
2588+361105256+361076885+360853137+360523729+360463676+360692186+360876723
2575+360754099+360483679+360349443+360262471+360032282+359767871+359659580
2561+359691580+359735032+359619144+359351989+359252838+359359949+359423019
2548+359458103+359424720+359143141+358850042+358844395+359002715+359270936
2534+359656745+359835726+359659240+359433837+359495364+359859470+360161845
2521+360155541+360057138+360104060+360228634+360235052+360106124+360058385
2507+360194661+360402217+360572261+360565639+360288188+359974746+359907594
2494+360048452+360243307+360324406+360235868+360107689+359907436+359605015
2480+359343984+359207843+359317631+359644136+359860627+359860990+359807060
2467+359695639+359511171+359364168+359244424+359222244+359417463+359547343
2453+359279712+358922001+359013963+359283409+359250865+359231815+359332644
2440+359320239+359488923+359863280+360030604+359961071+359838606+359851351
2426+360043667+360165360+360120321+360054870+360082946+360294606+360589112
2413+360708969+360682072+360730241+360906092+361128978+361307663+361370393
2399+361375563+361507009+361708668+361769175+361760058+361768290+361728875
2386+361588403+361221031+360479937+359292866+357610425+355314978+352472340
2372+349657711+347396101+345524111+343635271+341938565+340946803+340753558
2359+341111156+341800747+343256628+346248832+350334715+353402688+353596614
2345+351245015+349000278+348367906+348416529+348535297+348961702+349612036
2332+350228987+351032289+352043600+352968459+353913254+355029952+356177086
2318+357340684+358617449+359906438+360913893+361628159+362387827+363239865
2305+364027405+364714297+365284372+365791354+366255949+366579007+366809945
2291+367182170+367705866+368103560+368301227+368532164+368871755+369090400
2278+369099313+369130542+369263779+369374156+369511135+369643057+369677846
2264+369834896+370154462+370353649+370422388+370612186+370917962+371016501
2251+370885736+370944587+371322278+371689764+371875570+371947779+372046817
2237+372367085+372747384+372922895+373030913+373177350+373289859+373483648
2224+373920893+374339383+374423771+374385738+374465431+374662804+374965406
2210+375282567+375540265+375734871+375853435+375936371+376066320+376301226
2197+376641089+377027443+377382364+377600556+377695013+377895084+378292574
2183+378725850+379102588+379468010+379866384+380283173+380671659+380999003
2170+381270331+381561979+381996185+382522285+382899387+383151982+383527586
2156+384010552+384482405+384955890+385341746+385514875+385620149+385740936
2143+385758852+385851472+386131508+386256559+386033219+385618153+385122080
2129+384540462+383977622+383487218+382979987+382369930+381466502+380353318
2116+379420135+378676637+377920802+377093982+376171277+375188564+374197256
2102+373178280+372166765+371247144+370373243+369489205+368675630+367936191
2089+367155795+366300536+365398377+364446417+363431840+362462009+361696036
2075+361051508+360406322+359786536+359109554+358294051+357459566+356774488
2062+356258366+355794973+355299693+354792484+354268447+353625348+352982566
2048+352553666+352144996+351600322+351152259+350869093+350557193+350144101
2035+349713342+349375497+349097457+348731513+348315178+347938190+347535938
2021+347123775+346685487+346084570+345511026+345227837+345069109+344862801
2008+344628711+344309214+343810441+343193241+342660972+342321994+342094254
1994+341714432+341015111+340330714+339968762+339877480+339945448+339934563
1981+339690245+339320424+338961987+338643646+338412029+338254026+337844767
1967+337125512+336688335+336674025+336612316+336410226+336165818+335793366
1954+335391681+335147023+334930147+334565088+334137708+333568518+332949503
1940+332894780+333220264+333339373+333230356+332998875+332702351+332477673
1927+332340898+331981599+331459786+331335756+331313417+331112280+331284910
1913+331646408+331650808+331495391+331648336+332053786+332376163+332524119
1900+332566596+332491076+332285539+332170173+332181762+332081590+332231950
1886+332794585+333243986+333511481+333738245+333969613+334285800+334653671
1873+334783461+334019030+332591566+332476335+333822338+334997956+335534466
1859+335791892+336027682+336273678+336470551+336615718+336637308+336453316
1846+335826499+335067580+335627040+336922288+337616551+337872639+338171090
1832+337946118+336778233+336148015+336667425+337260155+338012725+338943141
1819+339549252+339853282+340055939+340003143+339710497+339824435+340462749
1805+341066275+341233031+340774286+340337699+340736821+341323020+341048993
1792+340601770+341848304+343743381+344739519+344993974+345042892+345077795
1778+345506808+346015241+345570966+344101931+344152776+346236698+348355115
1765+349691389+350016669+350113825+350950850+351922155+352955941+353689324
1751+352846970+351292164+351679493+353320161+354547645+354955702+355103000
1738+355864369+356245938+355199498+355759367+358388848+360993972+362923588
1724+363976832+364541735+364558699+362799536+360883050+362891951+366443298
1711+369075274+370236105+369882680+369395156+370075812+369994894+368635012
1697+369395361+372412420+375950727+378531471+379880921+380558628+380065934
1684+379020718+381723179+386014486+389154260+390621844+391483815+392712910
1670+393931163+396534722+400481268+403382825+405140877+407621654+410573694
1657+412580485+412722862+412187373+415630860+419445824+422541964+427908287
1643+434405006+439569261+443134623+445702123+450018241+458143789+466210327
1630+472887976+478841541+484676949+490719686+497599312+504090906+509093054
1616+514405310+521538665+528655012+534693848+539956574+545239303+550507744
1603+555639206+561012740+566532597+571467798+575680092+579787838+584234903
1589+588980600+593777143+598505559+603210208+608317676+613366179+617292495
1576+622341498+630065497+636989119+643266762+650996386+659277646+667110366
1562+673773955+678294907+684664670+696649587+708689069+720139721+731371115
1549+742784529+752637513+760111049+766104210+775008045+794410844+812428338
1535+825059915+837700563+851686330+864082956+875411596+886054434+894710890
1522+904223421+916145064+927227868+938730681+950856977+960375949+965728845
1508+967023436+972070624+986790454+999763119+1008652621+1014073826+1017636285
1495+1022076138+1026541844+1027767491+1026784869+1030542819+1036639395
1483+1040284768+1041880168+1043086947+1042766451+1039580186+1034677598
1472+1031861358+1034469951+1036889223+1034419695+1031324780+1031633845
1460+1030866308+1024045011+1017139894+1019697506+1023311310+1022807571
1449+1019281125+1018307302+1020617354+1022367514+1023325915+1023652670
1437+1021634176+1020237985+1021205548+1020823095+1020795155+1024012989
1425+1026784688+1026927473+1025570380+1020951456+1016030634+1017482342
1414+1020905192+1022100359+1022030599+1022166399+1020983388+1017660688
1402+1015126571+1013810481+1012972458+1012359952+1010612876+1009630708
1391+1009357928+1005523234+998234757+994958049+997853664+1002336152+1004496524
1377+1003859253+1002113629+1001712579+1002758339+1002707901+1002316195
1366+1003007532+1001906164+998977348+998543187+999956341+1000748644+1000723516
1352+999728647+997758413+996845097+997731290+998700214+997966241+994814992
1339+991679436+991152292+992301467+993439121+993728047+994245666+996107677
1325+998510711+1000227669+1001045191+1002362460+1005071384+1007704108
1314+1009964992+1013419863+1017443970+1020540791+1023156551+1025866473
1302+1028888998+1032714893+1037321207+1041338147+1043454614+1044271409
1290+1044249184+1044260796+1046504807+1050246518+1052652092+1053255799
1279+1053447661+1054122669+1054743884+1054539141+1054276975+1054838318
1267+1055314117+1054209665+1051784496+1050268109+1050659089+1051742042
1256+1052091022+1051379455+1051484593+1053681433+1056238773+1058014696
1244+1059520923+1060578023+1061098453+1061343474+1061328597+1061193613
1233+1060605509+1059971232+1059933585+1059770389+1059654909+1060204550
1221+1060994131+1061280608+1060807349+1060682889+1061519914+1062190931
1209+1061928675+1061594300+1062296977+1063850195+1065205020+1065708396
1198+1065532591+1064993654+1063892105+1062050414+1060799185+1061403436
1186+1062546896+1062618651+1061579241+1059896483+1057931329+1056172551
1175+1054845122+1053769517+1053938246+1055365915+1055333984+1053015587
1163+1050563567+1048820210+1047054447+1045499143+1044511531+1043884057
1151+1043139833+1040855817+1037702391+1036194439+1035514713+1033724004
1140+1031285500+1029295854+1028269416+1027199254+1024849197+1022140183
1128+1019912772+1016937782+1013395189+1012097786+1012553628+1011533994
1117+1009346498+1007193111+1004516844+1001461481+999287774+998828213+999552933
1103+1000516959+1000393768+999219556+999967499+1003419831+1006606822+1008011268
1090+1008677568+1009708450+1011140473+1012135614+1013203962+1016054220
1078+1019586743+1021916208+1024233154+1026351434+1027153352+1029164045
1067+1032403378+1033577953+1033614965+1034561029+1036171488+1038584682
1055+1041376338+1043255676+1044563511+1045832247+1045696629+1044655677
1043+1045455872+1047790144+1049039740+1048673071+1048462613+1049327034
1032+1050134939+1050090761+1050113621+1051447219+1053566225+1054582412
1020+1053556519+1051468718+1050301673+1050385856+1050284891+1049805282
1009+1049552913+1048827830+1047580593+1047103252+1047595561+1048921539
997+1050511768+1050214405+1048017838+1046540548+1046224952+1045442083
986+1044419728+1044492300+1045404709+1046331632+1046540185+1045496059
974+1043985839+1043009930+1042429718+1041396749+1039805612+1038782622
962+1038657708+1038489613+1037250722+1034572641+1032512871+1033804014
951+1036759773+1037141048+1035272777+1034115982+1033111861+1031123665
939+1029354274+1028694959+1029377860+1030934072+1031648813+1030956478
928+1030383342+1031210570+1033029401+1034282898+1034433484+1033937184
916+1032569205+1031920595+1033737248+1035726079+1036069978+1035639718
905+1034509594+1032846429+1031946539+1031831422+1031535148+1031201771
893+1030889440+1030166352+1029604375+1029675223+1028950321+1027079329
881+1026809816+1028136247+1028651779+1029759043+1032555870+1034419423
870+1034201617+1033529330+1033796576+1035075745+1036800232+1039219776
858+1042022953+1043676865+1044741675+1046327187+1048178948+1051281120
847+1055909387+1058610964+1057362819+1055284363+1054142082+1054124484
835+1056732987+1059113614+1057300135+1053322747+1051418825+1053475238
824+1057491634+1059561836+1058189503+1056611701+1058875307+1062635252
812+1063265538+1062291806+1063215191+1065313061+1065844014+1064467962
800+1063195506+1063045192+1063459849+1063978919+1064114084+1063233969
789+1061886583+1060903961+1060040538+1059147995+1058086632+1057221123
777+1056875137+1054941642+1051468628+1049820613+1050904835+1053256978
766+1053901870+1051917666+1051870857+1054747694+1055632345+1053970722
754+1052503865+1051110123+1049696968+1048865114+1048056483+1047931478
743+1049875223+1052279708+1052281886+1050424682+1049372754+1050100831
731+1051622480+1051327294+1047650353+1044429616+1045234437+1046514785
719+1045467121+1045195430+1045967322+1044585827+1042052980+1042235407
708+1046131425+1050323807+1050628518+1048359470+1046790286+1046259786
696+1047349633+1048832457+1047746873+1044143229+1040163573+1038654261
685+1039727416+1041062737+1042595091+1045792514+1051302166+1055421614
673+1054205764+1049606979+1042582391+1037356404+1040392990+1044696045
662+1046452646+1046506349+1044769433+1045461496+1050218125+1052665518
650+1052003391+1053079994+1057811948+1063620414+1061643740+1051962479
638+1048320009+1050877349+1050260579+1050897034+1052999258+1048727228
627+1047223268+1052636852+1052607461+1052803314+1055609303+1044022760
615+1026633194+1020678405+1024491328+1031037305+1035295819+1038910802
604+1049083192+1066334600+1073741823
##END=
