##TITLE=Sample description
##JCAMP-DX=4.24
##DATA TYPE=INFRARED SPECTRUM
##DATE=24/8/2023
##SAMPLING PROCEDURE=Instrument type and / or accessory
##ORIGIN=Default
##XUNITS=1/CM
##YUNITS=ABSORBANCE
##RESOLUTION=4
##FIRSTX=4397.6552
##LASTX=599.8556
##DELTAX=-1.9287962
##MAXY=1.5199372
##MINY=0.57370567
##XFACTOR=1
##YFACTOR=1.4155518e-009
##NPOINTS=1970
##FIRSTY=0.80747926
##XYDATA=(X++(Y..Y))
4398+570434278+568586665+568289684+570739806+573090725+574218519+574999814
4384+574398442+572087104+569523925+567775137+567451123+568157552+568606581
4371+568314401+567988998+568148289+568138436+567548306+567444891+568928826
4357+571003565+571353727+569791220+568207618+567144289+566043486+565353605
4344+565282991+565245264+565447124+566453482+567649658+568075275+568367751
4330+568947690+568493777+567249641+566974556+567346866+567450281+567780821
4317+568269136+568830885+569313432+567994093+565711641+565743768+567753030
4303+569034136+569077464+568876993+568687764+568162353+567491377+567603972
4290+568381477+568386025+567646794+567174396+566940492+566646921+565872153
4276+564737874+564438409+564829204+564978389+565223157+565165555+564408766
4263+564794592+566790843+567947691+567345856+566601867+566265264+565615300
4249+564985042+564903144+565155660+565784696+566522748+566545444+565593910
4236+564402029+563796698+563352891+562668652+562167326+561885167+561524310
4222+560501657+559507216+560245478+561904157+562958558+563842174+564289182
4209+563156251+561288174+560155748+559923107+560275584+560401821+560326155
4195+561105008+562027152+562050858+561730002+561530542+561684316+562096839
4182+561522036+559865799+559096504+559914138+560871946+560911990+560493825
4168+560279795+560421696+560979824+561401568+561085681+560599387+560466919
4155+560168422+559331966+558530039+558406581+558828325+558981678+558576777
4141+558661328+559462961+559403169+558186656+557454878+557937509+558795776
4128+559110989+558744742+558379927+558574167+558827482+558661791+558166402
4114+557119538+555878982+555540525+556069053+556804072+557832999+558507385
4101+557879106+557150655+557228385+557421993+557934982+558527723+557992458
4087+556495260+555312937+555329443+556069389+556633581+556952289+556546041
4074+555260261+554627646+555157478+555993555+556586379+556023956+554746093
4060+554692911+555930099+556964584+557109517+556790177+556217311+555311211
4047+554558843+554489408+554871487+554724829+554238072+554602002+555319843
4033+555558505+555523641+555096086+554542421+554454038+554719102+555421826
4020+556399719+556727943+555983870+554649078+553573328+552757758+551767401
4006+550998696+550842563+551324267+552081730+552877510+554036211+554768157
3993+554037305+552680786+551816666+551728957+552714093+553926017+553501746
3979+552177523+552278243+553505283+553829971+552862309+551776244+551608279
3966+552523222+553194955+552704871+552577961+553608909+554266957+553415553
3952+551879953+550980800+550799066+550992422+551144175+551265064+552202366
3939+553378794+553803359+553445870+552015411+550229148+550127586+551021981
3925+550999664+550986063+551412439+550192768+547897809+547329660+548366376
3912+549306794+549621628+549525456+548734602+546810775+544661128+544169866
3898+545717046+547729971+548418673+547161611+547233782+549747907+549611354
3885+547000046+546848419+546388905+546222793+548998402+550510381+549060089
3871+547005815+546321744+547695022+547422085+545464319+546051417+548343849
3858+551124932+552732157+546339471+539480998+542781261+547987876+549816752
3844+547840670+544567398+541405036+538593130+538758274+541527651+544285408
3831+546636115+548080259+548297237+549212306+548645040+543950236+543177741
3817+544804797+544233869+545972130+549073648+549872249+547684116+546418548
3804+546913853+544903201+543299093+543714479+543736627+545736920+549219169
3790+551229231+551621121+551308098+551162239+551407218+550064257+547684580
3777+547594050+548827701+548973096+547495014+546581081+547382125+548325406
3763+549489917+549725969+547258415+545172644+545654180+545911327+542243428
3750+539030159+542442258+545438634+543278587+543633717+547188096+548283931
3736+544465878+540494851+541337833+544916970+547863113+547764204+545364568
3723+544010617+544662981+546679064+549195000+550808919+548908630+543769723
3709+542561842+545773722+549603859+551209231+550144302+550265360+552289233
3696+554031410+554562127+553107920+549349996+547646346+550392776+554028505
3682+556034777+556458711+555396183+549549036+543333789+543329326+541821011
3669+539074918+540827833+542746060+541839622+540427016+540364866+539599487
3655+538541128+539046033+536348743+527099686+522725990+526011136+529787377
3642+531256364+530417887+528265335+525432333+522930251+521451242+517040786
3628+508752402+506568817+508424220+508609996+504435886+497799191+494775992
3615+493950484+492471223+490928212+488307935+485422427+485196354+485756546
3601+484136731+480936683+478317922+476769732+475782281+474689309+471999598
3588+467242559+464472887+464671000+464907642+464084829+462511374+460475416
3574+458523630+457950596+458855012+458135235+453749454+450859061+450604440
3561+449715687+448050313+447245775+447256638+446957889+446058694+445186405
3547+444176890+442415680+440828204+440435177+440355427+439431599+437963665
3534+436968887+436560449+435991246+434993984+434236437+433634643+432681551
3520+432061189+431860338+431194711+430114203+429302170+428684291+427805981
3507+427155007+426777223+426077489+425558731+425459274+425197368+424492960
3493+423583617+422787374+421917401+420891211+420292071+420317167+420398854
3480+420273502+419891338+419135265+418255187+417688005+417694405+417494481
3466+416261420+414598951+413396165+412967347+412728642+412303319+412039730
3453+411537940+410570995+409562238+408937033+409282226+410137840+410411831
3439+409935979+409292205+408947433+408596303+408112157+408023437+408025458
3426+407474446+406700688+406170561+405778544+405360590+405287661+406193298
3412+407531880+407918970+407564176+407444382+407345641+407116705+406988279
3399+406755722+406611842+406806545+406974889+407271069+407971309+408610914
3385+409085376+409635083+410209422+410772351+411216832+411667967+412333679
3372+413149207+414209967+415161838+415600677+416052190+416925026+418100822
3358+419258765+420303355+421533764+422599871+423176148+423781857+424498308
3345+425172651+426048056+427055761+427948682+428757389+429648079+430622519
3331+431337748+431435226+431244187+431434805+431944005+432396613+432671993
3318+432707026+432619359+432518050+432256481+431862233+431981944+432841979
3304+433580494+433679614+433533629+433714268+434228015+434565250+434665760
3291+434756542+435046281+436078492+437804584+439267003+440014318+440168429
3277+439959410+440363006+442126531+444283252+445406920+445233186+444541157
3264+444425574+445205480+446202279+446607517+446297314+446364349+447470036
3250+448571640+448739352+448345610+448457572+449353988+450265773+450848702
3237+451232213+451430032+451591386+451819227+451848828+451893335+452410451
3223+452723264+452505360+452518245+452387250+451697453+451581280+452295878
3210+452940031+453120333+452799015+452668020+453423125+454245432+454168798
3196+453697326+454037087+455407586+456799685+457637320+458342402+458986470
3183+459197763+459132708+459136414+459179489+459414993+460309178+461428003
3169+461723257+461447499+461679761+462427792+462974046+463467666+464340671
3156+465004025+465024362+465059353+465712349+466404840+466352459+466314058
3142+467015013+467512634+467052530+466229170+465980065+466500002+467524929
3129+468778033+469396627+468983094+468547245+468623500+468741779+469010843
3115+469621773+470033832+470213756+470445639+470478525+470152406+469681902
3102+469559455+470133458+471154553+471913573+471963007+471768894+471720765
3088+471742745+472001240+472394393+472313085+471867845+472053453+472617518
3075+472289673+471489766+471504125+472089833+472388751+472768935+473618023
3061+473999302+473478185+472906330+472769314+472741608+472636593+472711038
3047+473236702+473975595+474163645+473722322+473528587+473780093+473698489
3034+472935216+472215481+472218260+472688174+473230807+473638403+473721606
3020+473600801+473712006+474240112+474729100+475081367+475638864+475851126
3007+475474563+475647791+476577092+477079640+477186297+477898368+479134377
2993+480081869+480526645+481069910+481964852+482699072+483269622+484143721
2980+485152647+485822485+486283388+486644498+486294294+485510051+485411437
2966+485589170+485354676+485448112+485906404+485816127+485354845+485247093
2953+485557801+486172100+486820842+486744334+485995250+485677342+486017609
2939+486389203+486508787+486441963+486522009+486693848+486515482+486218081
2926+485983334+485465376+484893815+484577592+484106077+483689934+484140984
2912+485146247+485942827+486369371+486579274+486896003+487214585+487203300
2899+487097991+487174920+487311936+487410130+487549209+487753260+488009860
2885+488300440+488382928+488114327+488012976+488524702+489048934+488778650
2872+487957058+487494765+487757260+488362801+488751785+488704289+488483395
2858+488282671+488250586+488494933+488560451+488099169+487466048+487232901
2845+487618181+488348948+488981100+489356779+489698856+490106704+490529248
2831+490971498+491352819+491658432+492057859+492654978+493136977+493184558
2818+493122071+493451180+494109944+494606554+494785129+494976927+495403471
2804+495928377+496480147+497084046+497416143+497449955+497611899+497840708
2791+497921049+497921259+498039201+498598719+499511262+500186111+500364897
2777+500398246+500594254+500795188+500944879+501370075+502168256+502933129
2764+503147286+502851147+502633707+502837168+503288892+503597915+503718172
2750+504016922+504511763+504926096+505243162+505495678+505745962+506253351
2737+506880914+507134693+507168505+507506076+508104880+508551804+508772866
2723+509056372+509439420+509891986+510585109+511353309+511889205+512190691
2710+512527505+513118645+513651004+513808147+513841412+514101507+514578116
2696+514936110+515006934+514932320+514928236+515241428+515912024+516530702
2683+516675087+516623717+516767638+516945246+517113842+517294944+517409096
2669+517668391+518098262+518446739+518698413+518931559+519184201+519518447
2656+519688812+519513057+519577354+520210770+520821195+521077037+521248034
2642+521526277+521879597+522173672+522365301+522658661+523152323+523582783
2629+523704683+523674155+523789571+524041286+524463072+525181797+525966419
2615+526692512+527401088+527934247+528247144+528434268+528667709+529124023
2602+529642865+529956226+530250217+530897359+531709730+532203224+532292364
2588+532246215+532384284+532732719+533084692+533410768+533702570+533917779
2575+534138251+534298005+534380198+534661683+535160525+535556583+535634102
2561+535433673+535256571+535295604+535399566+535398177+535426768+535861017
2548+536622522+537145070+537284908+537313498+537522096+538025528+538422765
2534+538436829+538461461+538689387+538924975+539231851+539721429+540240567
2521+540457081+540229577+540091508+540551064+541190543+541404531+541315895
2507+541244861+541225913+541444616+541981144+542441415+542639150+542816463
2494+543109780+543371938+543376317+543157192+543033356+543040472+543058830
2480+543222585+543257154+542935752+542819789+543013565+543099632+543175930
2467+543352569+543305367+542898698+542510050+542464364+542604201+542609296
2453+542439521+542299599+542165530+541783157+541220902+540806906+540531358
2440+540191512+539946449+540026537+540175722+539954071+539443355+539142669
2426+539261326+539475524+539306212+538719535+538090962+537634017+537389207
2413+537328025+537134880+536621638+536209747+536153156+536035719+535549088
2399+534867081+534394851+534406599+534604965+534451738+533931716+533432790
2386+532980140+532182633+530782365+528703121+526027895+523141839+520407536
2372+517744942+514774335+511540306+508427083+505675222+503712277+502535050
2359+501865591+502384433+504532143+508004455+512165301+515057420+514675804
2345+511381521+508277687+507217854+507111913+507091659+507418199+507970685
2332+508308510+508872786+510032076+511247242+512037422+512664395+513802000
2318+515545482+517276122+518543838+519339239+519931643+520610618+521272203
2305+521828900+522410272+522729653+522623333+522727422+523377133+523973031
2291+524178766+524467367+525048107+525537222+525792854+525951428+525962629
2278+525818623+525711966+525765652+525894542+525829487+525528969+525432333
2264+525817907+526523705+527326854+527980649+528408414+528760176+528883087
2251+528664846+528646529+529131223+529628128+529906455+530188193+530502353
2237+530897654+531432834+531943255+532296996+532490057+532694739+533132694
2224+533754656+534333333+534624755+534668884+534892893+535416493+536014834
2210+536573383+537085826+537705935+538328656+538667070+538915249+539254294
2197+539646142+540211471+540904426+541406131+541665636+541975291+542386382
2183+542807452+543429077+544310377+545088935+545486426+545685213+546022869
2170+546696918+547633841+548437284+548900714+549304604+549823952+550210831
2156+550429072+550799698+551354542+551957093+552523895+552822897+552852541
2143+552970146+553274116+553332645+552772790+552029012+551783865+551799192
2129+551396438+550640533+550070615+549696705+549039836+548036889+547036216
2116+546125063+545161107+544020681+542771661+541681805+540810401+539944596
2102+538899164+537645596+536370722+535234928+534137325+533094376+532148948
2089+531017617+529745564+528732175+527898583+526932016+525818791+524683039
2075+523630196+522706873+521808689+520793236+519653610+518467077+517393138
2062+516589820+515918214+515083821+514082938+513251240+512664732+511883942
2048+510817877+509915481+509261054+508469695+507474917+506722718+506287921
2035+505697075+504697329+503495174+502523849+501987827+501630970+501164509
2021+500532988+499736197+498898563+498244767+497699608+497174112+496795276
2008+496413070+495757085+494939831+494238117+493749760+493326459+492759951
1994+491910021+490736878+489751953+489398759+489274333+489016680+488598137
1981+488106074+487764629+487548830+487144014+486470133+485749051+484878530
1967+483816887+483223009+483191345+483001400+482538181+482198883+481846826
1954+481248570+480739580+480441126+480038036+479376240+478399147+477532837
1940+477512794+477794869+477591029+477099304+476600125+476129327+475760385
1927+475383612+474622106+473615412+473056694+472604886+471976271+471859887
1913+471921953+471394731+470594993+470406185+470755252+470831297+470486356
1900+470028022+469482399+468850162+468400039+468054466+467363448+466833405
1886+467048951+467401724+467373554+467083563+466953495+466992528+466879976
1873+466588806+465648220+463881789+463267363+464413642+465401304+465420336
1859+465072112+464882335+464919432+465038763+464958970+464489182+463729909
1846+462538449+461305724+461634875+462719004+463059186+462992405+463025206
1832+462372421+460612601+459534030+459846296+460264544+460695804+461193425
1819+461371159+461206562+460869538+460204331+459236039+458847223+459139866
1805+459258819+458698627+457408932+456355920+456389732+456562076+455467125
1792+453737580+454109595+455745831+456364341+455872489+455267285+454788655
1778+454531844+454200799+452750381+450197433+449719898+451674000+453394029
1765+454039992+453556225+452902387+453102775+453373102+453895860+454406576
1751+453158482+450788616+450359798+451369735+451958180+451580101+450970097
1738+451318196+451290826+449202277+448756363+450935822+452974938+453980579
1724+453926135+453550330+452856322+450152463+446871064+447895696+450892831
1711+452957042+453251033+451572017+449815818+449789922+448769669+445912751
1697+445582295+447452141+449834850+451488266+451578333+450794974+448713204
1684+445365949+446209058+449164254+450641073+449874431+448435887+447766091
1670+446730722+446876117+449005384+449931233+448991573+448988920+450139536
1657+450440770+447802345+441980757+441870226+443573833+443174827+444838138
1643+448778975+451470412+452237602+451048500+450074986+454061046+459443963
1630+463150685+465768982+468489558+471461934+475504796+479974749+482945440
1616+485854781+491273237+496837130+500992797+504515721+508297183+512025169
1603+515567378+519327365+523188872+526524000+529573473+533245498+537206125
1589+540704165+544079125+547909431+551967788+555692405+558485237+559791985
1576+561786215+566866973+571576094+574784521+579125964+584880349+590205622
1562+594161743+595137362+595395521+603210033+612770007+621189387+628476046
1549+635356204+641427866+645825563+648444619+651824590+662295171+673784403
1535+682225679+690818245+700874744+709707825+716783655+722930435+728314321
1522+735040662+744751380+754576038+764637002+775129478+783874007+789155321
1508+790680689+796781067+811695452+824194243+833101390+839725243+846641739
1495+855147944+862623790+867912598+873258334+881972211+891653537+899855392
1481+906436969+911351025+914873108+916705436+917311272+921923673+930636454
1468+937255675+940490419+944139749+949483212+952736989+950747096+949180631
1454+954788779+960934464+965577183+969784515+974537890+979141533+982803663
1441+985796208+987558302+987414886+988548575+992958946+997160552+999762175
1427+1002590587+1004631429+1005345816+1005839310+1004676989+1004481949
1416+1008360931+1012045293+1013465394+1013497480+1012814925+1011866675
1404+1012459710+1014920696+1014901075+1010933584+1007654796+1007003485
1393+1007991315+1008111910+1004472686+998197395+994763737+996600697+1001608820
1379+1005808404+1006944535+1006380133+1006723810+1007910301+1008245642
1368+1008394616+1009054096+1008626373+1007314235+1007277180+1007731852
1356+1006884827+1004917251+1003378240+1002566333+1001946013+1001247879
1344+1000467888+999373612+996632025+993690177+994361446+997592570+1000405149
1331+1001536480+1001759731+1002367925+1003089049+1004390072+1007176460
1319+1010760524+1013953499+1015779679+1017149420+1019585731+1022261716
1308+1024881866+1028661728+1033075889+1036603698+1038998913+1040705173
1296+1042153317+1044265573+1047800540+1051653078+1054288135+1055950098
1285+1057313270+1058846302+1060802425+1062794170+1064679975+1066034136
1273+1066038852+1064398195+1061584520+1059476475+1059326406+1059671431
1261+1058378577+1055642969+1054241059+1055501574+1057742172+1059096502
1250+1058692696+1057717160+1058649241+1060809667+1061377607+1060472390
1238+1059856533+1059644314+1059252887+1058952496+1059342828+1059838848
1227+1059513614+1059027278+1059653998+1061433693+1063254905+1064327792
1215+1064442660+1063979904+1064011568+1064502452+1064554748+1064381941
1204+1065065843+1067158056+1069726499+1071114851+1071192665+1071131105
1192+1070956613+1070945750+1072034216+1072881324+1072740434+1073183147
1180+1073741823+1073375239+1073186347+1073027520+1072130556+1071427117
1169+1070846630+1069274775+1066691510+1064084076+1062496474+1062262106
1157+1062787517+1062819771+1062000790+1060568310+1058328133+1056383547
1146+1055961972+1055996921+1055213310+1053785798+1051811148+1049697124
1134+1048354752+1046812541+1043495773+1039763997+1038137572+1037173153
1123+1033748675+1029622525+1027213163+1024920689+1022301044+1020814245
1111+1019426483+1016259615+1012512681+1010262735+1009136626+1008390911
1099+1007784822+1006137765+1003557111+1001622884+1000063661+998123370+996964754
1086+996864876+996087160+994371636+993753169+995243336+996869592+996109056
1072+993349110+991143966+990559942+990042278+988648789+988196223+990072090
1059+992276729+991647397+988202202+984675741+981977692+979960430+980038075
1045+981617846+982223766+981723366+980403059+977842616+975257162+974549764
1032+975195686+974625473+972525681+970889402+970538398+971114085+972130885
1018+972726363+972214426+970639118+968126930+965733147+965351994+966837698
1005+968140152+967864604+966013327+964178978+964335447+965687924+966128785
991+965994463+966182345+966103941+964852942+962557858+960352040+958662960
978+957782418+958204078+958381685+956399709+953474619+951310909+949222738
964+947220129+946235415+945192508+942873928+940331592+939395385+940277105
951+941676068+942455469+942215627+941442374+941359845+942861549+945120421
937+946324176+946559975+947363461+949046562+950837458+952261264+953714040
924+955472849+957255407+959627716+962695379+964950462+965032992+963530361
910+963266940+964822709+965783928+965927850+966241042+966271780+964782287
897+961539626+959039397+959680434+962724433+965220368+964915598+962887219
883+961587123+961161084+960550196+960220751+961134304+962707169+963820057
870+964825236+966691334+968928227+970882581+973965487+978628080+982147468
856+984105528+987633337+992325489+994625963+994785969+995430122+997168552
843+999692362+1002221056+1004040499+1006624943+1011120455+1014831766+1014948571
829+1012630918+1010446069+1010655257+1013094600+1015553902+1018783593
818+1022788811+1024966585+1025602654+1025583958+1024482355+1024382814
806+1028239731+1034572456+1038520662+1038588033+1039187131+1043434212
795+1046626007+1044983666+1042875284+1043042870+1044060933+1045966106
783+1047789761+1048056045+1049011201+1052426415+1055746974+1056667012
772+1057419885+1060129218+1061554035+1058833080+1054838136+1051956333
760+1049248516+1047457284+1048126953+1049712451+1050283253+1050945596
748+1053776787+1057061302+1056231373+1051555474+1047121522+1044446464
737+1043257952+1043680285+1046513076+1050502968+1050962608+1046698347
725+1041757427+1039130371+1040183299+1044612703+1048298918+1048039960
714+1044724708+1040175046+1036839161+1036968092+1039652919+1041491395
702+1039726017+1035386974+1034083089+1039154204+1045324817+1045783025
691+1040322168+1034362342+1033788424+1037914237+1041056093+1039265113
679+1035197072+1035956850+1041425203+1045860249+1046430799+1041236479
667+1036931375+1042335809+1047911618+1048378753+1048209146+1051584949
656+1054363085+1047860921+1033210716+1021446524+1022553601+1032745770
644+1036073066+1030330512+1024523788+1024658362+1022460292+999333105+974694865
631+979877732+1011535462+1043253573+1042340188+1018287741+1006999190+996516314
617+967545096+958714920+988674643+1013650918+1012521187+1017500424+1036639405
604+1047835826+1040773639+1038545673
##END=
