##TITLE=Sample description
##JCAMP-DX=4.24
##DATA TYPE=INFRARED SPECTRUM
##DATE=24/8/2023
##SAMPLING PROCEDURE=Instrument type and / or accessory
##ORIGIN=Default
##XUNITS=1/CM
##YUNITS=ABSORBANCE
##RESOLUTION=4
##FIRSTX=4397.6552
##LASTX=599.8556
##DELTAX=-1.9287962
##MAXY=1.5293083
##MINY=0.54307836
##XFACTOR=1
##YFACTOR=1.4242794e-009
##NPOINTS=1970
##FIRSTY=0.79044276
##XYDATA=(X++(Y..Y))
4398+554977335+555619968+556473729+555880854+554988927+555459059+556558097
4384+556069928+554007736+553081534+554072560+554953481+554383540+553201390
4371+553268306+554526412+554832998+554010205+553684871+553984384+554054941
4357+553446750+552816546+553658757+555146196+555078944+554140523+553184859
4344+552030915+552190946+553333005+553013237+551561202+551175145+552761892
4330+554602577+554549011+553269310+551999612+550736443+549895320+549895236
4317+550382819+550980004+551366646+551066631+549797393+548508863+548737442
4303+549905782+550193996+549698713+549808190+550243503+549113330+546945008
4290+546724757+548231823+548498568+547482182+547027158+547594546+548865793
4276+549973326+550348168+550468693+550341848+549415145+548328912+548479652
4263+548939489+547995711+546990414+547061055+546899477+546248809+546169170
4249+546536478+546431772+545977250+545807427+546168500+547397354+548675757
4236+548128916+546333804+545855972+546744259+546459225+544415865+543268449
4222+544968271+547431963+547517377+545894975+544969108+545173332+545392453
4209+545075907+544856158+544594727+544083835+544186072+545009869+545901085
4195+546056010+545246776+544649466+544997691+545309299+544796565+544011771
4182+543280669+542906456+543487654+544309861+544280735+543297367+542471310
4168+542932402+543163701+541368840+539133351+538645978+539759454+541119797
4155+541664169+541352687+540549312+539098868+537832810+538038749+538931765
4141+539274843+539563308+540340025+540533493+539516688+538587808+538880751
4128+540034737+540895194+541115235+540951439+539812393+537997988+537460857
4114+538275322+538124874+537385403+538372955+539790297+539280911+537693370
4101+536941762+537486050+538698624+539565233+539410852+539130924+538864011
4087+537633693+536723185+536968587+536979635+536390234+535841426+535486087
4074+535328776+535647122+536336207+536494354+535720232+535006539+535087684
4060+535166528+534845421+534915894+535511029+536078250+536619190+537325726
4047+537527773+536830360+536254309+536130687+535624314+535001476+535226121
4033+535750196+535480688+534927110+534720920+534434840+534147338+534332520
4020+534878356+535413981+535228674+533952740+532765986+532237141+531666948
4006+531784795+532661322+532594029+531899545+531769018+531734535+531536380
3993+531725704+532208223+532550422+533417450+535076929+535562712+533833763
3979+531604008+530151262+529614214+530013118+530671403+531036242+531356973
3966+531606309+531469463+530809463+529943105+529873427+531054572+532351974
3952+532587542+531915406+531032309+530614028+530542131+529985289+529450459
3939+529812243+530232030+529536919+527929248+527367719+528837580+530041701
3925+529273563+528546981+529221001+529290889+527685520+526616822+527671166
3912+529259209+529893556+529829820+528710150+525910202+523210022+522302359
3898+523640271+526608913+528499650+526807821+524840165+526416156+527564367
3885+526203312+525236768+523953344+523925389+525817800+525772979+524622007
3871+523864205+522857361+523705095+523947359+522597897+523443665+525539755
3858+526702696+524684864+516505020+513961271+520184131+525864252+528222442
3844+527091390+524248881+521536021+519150754+519552504+522715367+524958891
3831+525256479+524883647+524349068+524695996+524088809+520318215+519763423
3817+520890124+520365798+522892053+526938725+528156446+525611484+523772514
3804+523544521+520814712+519525596+521623778+523828131+526190088+528080239
3790+528652315+528230017+526572546+525261334+525957031+526385732+526333756
3777+527596214+528595024+528029937+526016833+524325549+524099397+524529562
3763+525722217+525808258+523763642+523652617+525798256+525335406+518727368
3750+513663139+516973854+520108887+518614167+519487680+522502942+522707039
3736+518968837+515774587+517182722+521461655+524917335+525044472+523127077
3723+522042059+521936808+522709676+524430673+525648311+523255596+518200029
3709+517944499+521444999+524202429+524078012+522419076+522742401+524021850
3696+524766344+524973999+523298449+519135647+517415695+520323488+523982763
3682+525695391+524999108+522009751+515405563+510740113+511636141+511110518
3669+510809122+514469652+518011625+519298314+519358451+518807802+515950939
3655+512704504+512475799+510984176+503669099+499285251+501589707+504447825
3642+505057230+503374231+500839480+498462918+496179889+493793911+488070895
3628+479954075+479401752+482376671+483019513+479488630+473391777+470467077
3615+470018582+468509884+465827657+462412362+459851455+459567342+459399821
3601+457892378+456135139+454341366+451669309+449511240+449132716+447717969
3588+442837248+439332772+439705814+440400256+439730840+438571707+437620270
3574+436560905+435528741+434202589+430300799+424812388+423460917+424612727
3561+424686590+424057642+423646643+423053685+422046924+421083058+420363632
3547+419377461+417870897+416460335+415772254+415574016+415010687+413988651
3534+413287345+412718325+411715205+410569882+409498087+408587370+408292209
3520+408345399+407848609+407011713+406561335+406134810+405183666+403939454
3507+402758685+401618593+401101256+401559963+401473628+400108640+398712014
3493+397766059+396605503+395599077+395399039+395265331+394339297+393023732
3480+392349964+392590051+393284117+393633430+393004314+391985794+391405348
3466+390894205+389813790+388398457+387090467+386284707+386425947+387035477
3453+387450912+387750635+387611027+386709348+385908694+385573232+385044219
3439+384620582+384961442+385523390+385390185+384543454+383772010+383548495
3426+383366619+382634638+381719652+381300451+381531583+381869974+381806489
3412+381844613+382056327+382002216+382206649+382993535+383825116+383947022
3399+383232284+382631541+382865184+383457347+383562723+383352851+383684713
3385+384446239+384928716+385284307+385927693+386783965+387632244+388386363
3372+389479333+391013223+392333266+393328309+394164912+395046461+396326370
3358+397674745+398985497+400621750+401986278+402493739+402910346+403912880
3345+405112021+406214365+407296747+408274925+409063527+409695656+410586412
3331+411752074+412024301+411287968+410967656+411300063+411457666+411261603
3318+411117308+411219420+411368737+411457499+411497213+411647074+412255935
3304+412956069+412952344+412675681+413199504+414483055+415572342+415812095
3291+415689142+416079803+417044212+418151746+418904944+418995798+418601664
3277+418533074+419627801+421163115+421835251+422020684+422556644+423270923
3264+423912091+424486636+424816406+424822809+424979575+425813123+426667847
3250+426634116+426270239+426487478+427299934+428263255+429111409+429873311
3237+430647308+431435367+431772418+431202896+430423249+430467316+431297851
3223+432279126+432980013+433037304+432411955+431921359+432006312+432127926
3210+432286617+432551144+432602326+432903052+433758153+434854973+436060182
3196+436623594+435853782+434896780+434958716+435543807+436004899+436535921
3183+437192322+437483633+437862031+439018779+439730965+439415047+439307872
3169+439809725+440427876+441028116+441865891+442563514+442321208+441664388
3156+441542273+441698077+441979469+442831975+443754996+443880920+443424975
3142+443276746+443845599+444439353+444273840+443735285+443780692+444395662
3129+444697394+444485721+444354985+444688270+445259551+445554168+445244234
3115+444631063+444547742+445049553+445383801+445440715+445480095+445359486
3102+445107974+445165977+445770192+446550006+446877684+446587838+445982534
3088+445572372+445948720+446916938+447373008+446966906+446707609+447346643
3075+448319883+448638522+448178769+447555679+447274287+447288934+447147944
3061+446970463+447160374+447589326+448141565+448616467+448724354+448596129
3047+448576753+448818096+449006709+448987375+448987165+449089444+449327691
3034+449445705+449103003+448717784+448890955+449422144+449700523+449587615
3020+449483578+449764008+450359268+450813413+450855513+450904226+451418717
3007+452021970+452077797+451727814+451809670+452517922+453091379+453378714
2993+454082028+455485225+457005180+457717240+457487531+457238404+457644842
2980+458464705+459112109+459310515+459402876+459663511+459826178+459861833
2966+459964280+460035925+459790272+459137093+458532207+458384899+458599166
2953+458873570+459068962+459451462+460142222+460826118+461191376+461133247
2939+460748990+460061537+459243305+458826657+458840802+458949065+459087711
2926+459207483+459626768+460399760+460482747+459424344+457987543+456883441
2912+456369326+456412807+456942574+457869780+458794977+459323195+459742899
2899+460325646+460639806+460573182+460474837+460459395+460547445+460850516
2885+461521187+462404368+462835371+462524349+462278361+462694340+463152503
2872+463120781+462717315+462149885+461864265+462120381+462528451+462734473
2858+462679777+462458312+462312217+462121804+461558726+460946726+460914042
2845+461356930+461817687+462165829+462418053+463061690+464320843+465331956
2831+465839710+466516533+467365649+467698014+467309906+466891207+466865303
2818+467088609+467558238+468010207+468294069+468854176+469582097+470048336
2804+470373922+470684483+471080039+471481162+471402737+470951228+470816307
2791+471258065+471952800+472544712+473059622+473546828+473810602+473825668
2777+473894342+474270732+474850214+475311223+475471546+475494228+475743230
2764+476253620+476629424+476689645+476750577+477097086+477596680+478093846
2750+478514470+478696596+478919484+479552827+480216468+480410815+480273843
2737+480342057+480777370+481250054+481647661+481975590+482091637+482220030
2723+482718075+483351501+483802424+484178604+484535158+484903512+485341127
2710+485697095+486056033+486609988+487057647+487177209+487392815+488034988
2696+488799276+489229986+489196256+489024968+489085398+489359550+489710496
2683+490018253+490264702+490496043+490665615+490934286+491455306+492080195
2669+492540826+492672441+492774846+493159857+493560184+493692887+493717955
2656+493809353+493928078+494116608+494414322+494790544+495241258+495578770
2642+495680295+495795966+496090666+496377248+496581513+496885295+497376477
2629+498020281+498682793+499218627+499615565+499864106+500104193+500535489
2615+500978084+501248261+501537270+501961995+502299758+502459119+502791819
2602+503483122+504172459+504523446+504749765+505238980+505869058+506364927
2588+506635146+506583504+506503029+506866236+507604117+508315215+508741447
2575+508943620+509226979+509713683+510211393+510575604+510752793+510810879
2561+511031716+511537880+512189929+512816869+513280639+513514491+513553620
2548+513569481+513720472+513916032+514213244+514968911+515963745+516553564
2534+516739792+516887394+516930080+516769003+516947573+517802547+518758964
2521+519452318+519990370+520248202+520320810+520540266+520858779+521174153
2507+521478813+521684794+521890105+522322489+522931852+523373066+523532552
2494+523607797+523681576+523746610+523870859+524164011+524430213+524388113
2480+524412929+524783711+525038320+525071004+525257484+525480497+525382570
2467+524991742+524550863+524220089+524039720+524017875+524124632+524268550
2453+524165936+523641150+523291335+523633701+524050977+523801390+523143189
2440+522744243+522656695+522467119+522090813+521793434+521566529+521163356
2426+520742187+520632083+520706825+520632627+520297960+519805900+519298481
2413+518788593+518229491+517794512+517631469+517417662+516903673+516411989
2399+516261417+516276440+516018274+515415272+514789881+514206464+513487708
2386+512500239+511152995+509355874+507040537+504330271+501134055+497281772
2372+493383288+489902290+486487036+483061697+480021912+477767005+476617246
2359+476486259+477093864+478814485+482115366+486349855+489298911+488713653
2345+485018179+481714745+480492336+480251495+480405667+480809091+481274368
2332+481729476+482367045+483364223+484397977+485169421+486189783+487828882
2318+489427304+490474658+491206220+491921378+492696965+493635219+494821512
2305+495901593+496520707+496862153+497232139+497789317+498350428+498642659
2291+498925391+499373385+499702527+499919765+500188184+500313103+500223254
2278+500138049+500108420+500175797+500492552+501045921+501625655+501923034
2264+501881059+501868547+502161280+502642418+503157663+503684709+504112824
2251+504395430+504817812+505507358+506131535+506510268+506863390+507424208
2237+508069980+508520861+508920477+509445473+509906983+510342840+510906504
2224+511485108+512051953+512550500+513000586+513832041+514961252+515752031
2210+516118209+516415253+516882916+517553378+518355456+519162974+519888008
2197+520559726+521237889+522018707+522775378+523312301+523927816+524917419
2183+525930499+526639797+527340056+528265965+529290972+530215165+530892659
2170+531498297+532317491+533399915+534530089+535452105+536236690+537024497
2156+537772673+538448786+539016300+539458811+539880146+540235737+540465572
2143+540836856+541366832+541614996+541381018+540902140+540364339+539738697
2129+539174614+538798601+538305034+537330413+535926547+534556746+533502487
2116+532430609+531079054+529696154+528318193+526839124+525497404+524307344
2102+522994709+521477390+519862229+518313900+516850357+515447454+514158505
2089+512840681+511334745+509772481+508300568+506949515+505710074+504431044
2075+503003072+501523627+500159099+499050478+498096070+496976568+495606265
2062+494147869+492640343+491196428+490071360+489112641+487951374+486602497
2048+485273583+484067453+482903633+481572752+480230278+479169867+478143730
2035+476975515+475917531+475022465+474125013+473206219+472219001+471003456
2021+469767237+468733400+467725634+466741095+465822928+464910327+464098332
2008+463348565+462483923+461451216+460370633+459411789+458586151+457862289
1994+457113862+456085172+454985673+454159365+453511668+452993201+452542195
1981+452030549+451395156+450549053+449580333+448683007+447904197+447104673
1967+446306110+445786179+445429918+444963553+444445672+443803834+442889141
1954+442032492+441504567+441006690+440276550+439367088+438329443+437547536
1940+437525984+437677394+437402613+436965752+436511732+436025573+435586995
1927+434918834+433652861+432325453+431776436+431404231+430861492+430828012
1913+430844208+430271923+429673148+429589157+429588487+429357188+429094711
1900+428770716+428108875+427182045+426611853+426406458+425908329+425558472
1886+425835429+426084514+426027515+425859282+425717875+425661420+425616558
1873+425222759+423700837+421408894+420973665+422541244+423796420+424045255
1859+423785121+423416683+423113319+422867289+422625946+422251230+421489160
1846+419947151+418438621+418985880+420358233+420734456+420499055+420311279
1832+419330966+417142767+415981709+416453137+416933396+417583269+418341071
1819+418471053+418188071+417893956+417138373+415789705+415026673+415223405
1805+415428883+414797968+413123339+411713740+411631590+411638495+410351346
1792+408926137+409711643+411142208+411332286+410630395+409826978+409156851
1778+408912955+408439182+406343594+403046815+402517258+404848623+406929397
1765+407707704+406873779+405662753+405745489+406178835+406510237+406245919
1751+403891662+400783580+400500514+401973765+402768896+402398742+401801389
1738+401778080+400545460+397284210+397281741+400305749+402824723+404177324
1724+404358655+403875802+402432430+398344036+394253507+395889467+399451904
1711+401338247+401040659+398990937+397256590+396879949+394718030+390829381
1697+390526603+393515876+397148494+399048438+398707159+397285382+394149972
1684+390173356+391796804+395397951+396992439+396101767+394588508+393776303
1670+392415206+392561971+394902752+395732743+394597003+394633244+395629125
1657+395150916+391122491+384492859+384811957+386349656+385615751+387776330
1643+392170976+394590684+394427808+392064847+390657130+394981888+400248876
1630+403363445+405383914+407756751+410589969+414744569+419183993+421746448
1616+424378833+429854689+435315897+439188435+442489734+446226262+449852435
1603+453114061+456655280+460446505+463725666+466553151+469752715+473364031
1589+476999746+480587166+484101267+487593314+491084649+493808976+494842479
1576+496680151+501940945+506532825+509264476+513222553+518747916+523844369
1562+527306410+527146170+526089483+533458462+542354091+549609533+555795985
1549+561896311+566553057+567918715+566369424+566101046+575733259+587733037
1535+595267235+601417153+608889163+615325747+619542952+623087101+626682933
1522+631048033+637623388+645094185+653349608+661579588+667450749+669896404
1508+669295996+673176360+685056952+694881168+701165379+704599046+708593364
1495+715377085+721112990+724030618+726886978+733658060+741828070+748101400
1481+752702612+757072734+761179040+763769074+765036680+769699745+778252254
1468+785301716+789746999+795025578+801517862+805687863+806791169+812020284
1454+823251798+832858483+839787336+846103854+853787328+861869538+869298235
1441+876209093+881308643+884643923+890642473+899118147+906528012+913830158
1427+922073571+928916800+934112938+937709188+938278418+940260805+947735201
1414+955655205+960165521+962586066+965159946+967397527+969811461+973215792
1400+974365300+972105371+970757499+971637750+974094035+976880089+976459841
1387+972034228+969825940+973186079+978744294+982790337+983843258+982947187
1373+983866609+987134178+988811820+988639319+989138075+988812155+986806166
1360+986604872+988067578+988761350+988392912+987747768+986233337+984117117
1346+983013225+982735934+982152893+980803180+980120372+981117884+982019395
1333+982522085+983609322+984507736+984672872+985822045+988262427+989922994
1319+990925026+993491708+997288081+1000404575+1003120741+1006279921+1009354984
1306+1012110991+1015251757+1018979079+1022535824+1025629971+1028384973
1294+1030775303+1032369331+1032830925+1033120855+1033988887+1035895275
1283+1039064164+1042497873+1045290456+1046245952+1045496939+1045699656
1271+1046891180+1046208790+1043694336+1041933080+1041541708+1040868441
1260+1039369494+1038873835+1039791500+1040682213+1041309028+1041513920
1248+1041474917+1042094784+1042714651+1042742606+1042381701+1041594186
1236+1041202145+1041719817+1042260088+1042067080+1041406117+1041118280
1225+1041492159+1042161408+1042651376+1042642504+1042802869+1043683706
1213+1044585552+1045020195+1045302843+1046042148+1047535319+1049003549
1202+1049204341+1048427540+1048138698+1048535845+1049129012+1050280445
1190+1052036847+1052508736+1050560499+1049109343+1050217839+1051857483
1178+1052616707+1052853656+1052592351+1051810528+1050663280+1049410823
1167+1048287932+1047334779+1046589532+1045826207+1044293697+1041857584
1155+1039840798+1038843788+1038396171+1038839686+1039459470+1038094356
1144+1034310454+1030283243+1028489512+1028496710+1028192635+1027004877
1132+1025159923+1022698952+1019510477+1015522102+1011403994+1007932705
1121+1004868355+1000913626+995845546+991254713+987660387+984987158+983423680
1107+981385383+977632031+973331797+970332062+969164726+968095652+965699045
1094+963296578+961852453+959279410+955164316+952735736+952112604+950217515
1080+946726473+942907000+938921386+935064416+931921558+929254689+926930229
1067+925503179+924134047+921281118+917421638+914062755+911860075+910174314
1053+908183726+905767867+902543905+898505478+894802262+892654990+892303626
1040+892624943+892155732+890648917+889049365+888070853+887502460+886364418
1026+884128511+881940060+880996700+880976111+880410061+878579419+876837748
1013+876613521+877288294+876994933+876049313+876192353+876781671+877156972
999+877746875+877818856+877374001+877523151+877995375+877629029+876450143
986+875347924+874680098+874111538+872961360+871148881+869270866+867700022
972+866398017+864971803+863046918+860555480+858085302+856263950+854741736
959+853560673+853151893+852951520+852674898+852786300+853423158+854709930
945+857062345+860435122+864034805+867333676+870211464+872465868+874891352
932+878356448+882526448+887113264+891204170+893863840+895787052+897598695
918+899765049+902407227+904073318+904196940+904307087+905139630+905787871
905+905913920+905859517+904932729+902800774+900909786+899858623+899007834
891+898406213+897850291+896500493+894179047+892132799+891653963+892237672
878+892811924+892911441+892996729+893932054+895241341+896284636+897295457
864+898391565+900409272+904194597+908932488+913550188+917367067+920488833
851+924071776+928072372+931751985+935101076+938125753+940908041+943498744
837+946000393+948106401+949327471+950918234+953034454+953182850+952975447
824+957068529+964406581+970220744+973242743+975609888+978643940+981428571
810+983343581+986286569+991559206+996821632+999420621+998597117+996789157
797+998006126+1002716815+1009951918+1015435977+1014885495+1014148451+1016843274
783+1019900761+1023836156+1027372562+1027372981+1025784310+1025448262
772+1027292129+1031048410+1034886882+1036430942+1035706034+1034866125
760+1033471550+1030910141+1030706420+1034606410+1038431408+1038569175
748+1037978853+1038897940+1037660466+1034551170+1033187730+1031808973
737+1028643432+1025996233+1026162876+1027126993+1024340771+1019663980
725+1018368168+1019199037+1017783788+1015039416+1014680602+1016592850
714+1018855290+1020768542+1020895930+1016891903+1010974875+1008712519
702+1009735643+1011664462+1015897487+1021338441+1023431225+1021026750
691+1019555758+1022051799+1023237548+1021523162+1022108630+1025883659
679+1029014633+1028640587+1024579059+1019163549+1014434698+1014333088
667+1024701928+1033253265+1032941825+1033027030+1033638276+1027438684
656+1019778060+1022155584+1034546650+1045842277+1048086471+1040451374
644+1032245877+1040017652+1055567730+1057029850+1053417362+1049554449
633+1035939803+1022322227+1016932998+1028716752+1059221983+1073741823
621+1061757529+1053594215+1045675383+1039831926+1052017262+1054590221
609+1034104557+1021988440+1022707991+1031412161+1049235309+1054347999
##END=
