##TITLE=Sample description
##JCAMP-DX=4.24
##DATA TYPE=INFRARED SPECTRUM
##DATE=24/8/2023
##SAMPLING PROCEDURE=Instrument type and / or accessory
##ORIGIN=Default
##XUNITS=1/CM
##YUNITS=ABSORBANCE
##RESOLUTION=4
##FIRSTX=4397.6552
##LASTX=599.8556
##DELTAX=-1.9287962
##MAXY=1.44873
##MINY=0.60010934
##XFACTOR=1
##YFACTOR=1.3492349e-009
##NPOINTS=1970
##FIRSTY=0.74861747
##XYDATA=(X++(Y..Y))
4398+554845894+552750552+551757329+551916630+552702753+553529033+553843129
4384+553846309+553873964+553325644+552528476+552860199+553245154+552124393
4371+551225089+552160397+553434583+553590438+553718241+554450778+554275839
4357+552925801+551736655+551118359+550745773+550920845+551908502+552207312
4344+551154628+550441087+550285762+549575092+548425440+547786381+548115364
4330+548804520+549379257+550056088+550807046+551086507+550525994+549760723
4317+549448482+548874098+548027144+548686391+550293272+550486942+550112634
4303+550131497+548750978+546236886+544744158+544095026+543655646+544284412
4290+545763312+546536668+546365175+546440628+547390161+548532347+548749431
4276+547775248+545910597+543692091+542788238+543689662+544790499+545741666
4263+546512769+546148621+545157032+544941981+545326008+544760415+543431140
4249+542887105+542999711+543543216+544556937+544819302+544160629+543735517
4236+543386919+542322263+541163731+540786992+540964141+541243337+541411208
4222+541897504+543047775+543707244+542978374+541906031+541748408+541990275
4209+541462055+540453592+539975645+539948078+539709525+540048713+541570995
4195+542267749+541373481+541328333+542560419+542613828+541103739+539576155
4182+538314250+537133718+536951180+538414752+539692384+539197473+538479736
4168+538453407+538344776+538299584+538518744+538616286+538727743+538923843
4155+538513973+537379119+536374808+536310929+536990233+537120289+536344945
4141+535481247+534921618+534778486+534755735+534364330+533851572+533544368
4128+533321143+532955051+532381639+532128198+532706690+533757917+534273989
4114+533324721+531617207+531253324+532884811+534426133+533948098+532768494
4101+532022174+531088147+530896818+531587431+531481496+530601807+529623250
4087+528980966+529570238+531161657+532215535+531653696+530327117+529716286
4074+529567367+529522395+529990756+530249101+529839407+529561977+529502118
4060+529230034+529039545+529110581+528864959+528236104+527758025+527320853
4047+526654007+526092478+525961583+526158169+526697433+527464648+527827382
4033+527629338+527196938+526718593+526469172+526480128+526448276+526309120
4020+526170052+526164221+526404056+526646364+526696019+526421726+525526089
4006+524804597+525095853+525560370+525539652+525237130+524684657+524327092
3993+524703079+524880890+523821888+522449099+521996156+522321517+522577167
3979+523144042+524654220+525234170+524041887+523166086+523046323+522849251
3966+523261463+524463288+524581196+523301222+522459790+522192786+521920482
3952+522614850+524444955+525129737+524524738+524064329+522949841+521914562
3939+522019349+522787625+524360710+524671272+521617872+519066716+519394418
3925+519917690+519543824+519813787+520333525+519661952+518029228+517422550
3912+518311561+519751410+521845161+523711800+522640163+519237194+516389833
3898+515372225+516552757+518023838+516513616+514007344+515387378+517360924
3885+516752479+516454552+515309980+513968734+515544956+516892166+516475404
3871+514833359+511813665+511236719+512039673+511440594+511775497+513988613
3858+517004507+517964907+510016119+502559679+505177497+509547493+512497254
3844+513717899+513144354+511210522+508080829+505886930+505570448+505703994
3831+506972261+509357092+510386805+510048942+508902868+506058246+505426035
3817+505632251+504355105+505761026+509009554+510685527+508766008+506760390
3804+507635264+506487378+504794618+505816733+506060985+506340623+507873773
3790+509264277+510333130+510263552+508660205+508109588+508538985+508145327
3777+507973701+508651503+509357092+508711229+507536264+507922323+508455535
3763+509055321+509908283+509039992+508087986+509814717+511999649+510127974
3750+507397814+510740748+513660425+511209727+512580262+519127238+524941942
3736+525253255+519954534+517693795+521940715+527748306+529899973+527705278
3723+524206489+520998030+519372065+520353669+523549406+527154219+528622252
3709+528905601+530871726+534512101+538447929+543038498+549770132+557547824
3696+565053565+571692031+575569722+574659640+573623698+576022135+578658773
3682+579808867+579441494+578280798+574946964+571377096+572090018+571471413
3669+569022570+570583816+573484276+575006868+576908362+580408388+583757197
3655+587539069+593398745+597847375+595009292+590541799+592021848+595479332
3642+597323441+596641398+595141822+594467289+594712337+595848736+594888690
3628+588929617+586018201+586838737+586959870+584140650+579479044+577685120
3615+577503068+576415572+576334950+576244299+573879878+572404821+573173096
3601+573937705+573827573+573452513+571568646+568971502+569437035+571316220
3588+568800097+563808359+562397623+563241352+563295601+561659299+559666049
3574+558995537+560699473+564931726+568444298+565363067+560532618+560147486
3561+560882762+560114354+559578491+559842888+559651559+559881941+562509389
3547+566064106+566553185+564082033+562381807+563002356+564111278+563333239
3534+562135258+562899734+565302368+568202387+570332186+569559625+566293957
3520+564274378+564332338+564402667+563901218+563996242+565300159+567114758
3507+569866388+573361377+574170649+571281497+568210029+567136007+567477493
3493+567670191+567230103+567192112+567819022+568778715+570940675+573052715
3480+572593367+571064988+570546752+570420981+569857066+569434296+570455350
3466+572300564+572620889+571687436+571273590+571591441+572215435+572415865
3453+572498298+573763561+575329622+575305016+574389897+574007151+574425150
3439+575334349+574933093+573124016+572820964+574091263+574384198+573588003
3426+573030715+572885021+572992856+573661336+574997458+576152545+576066974
3412+575292956+575043402+575364875+575935505+576599170+576853142+576762138
3399+576835338+576615516+576349837+577100442+578364380+578882439+578199248
3385+576919627+575875513+575319197+575529124+576355094+576475034+575377996
3372+574452849+574480415+574550700+573964035+573886770+575171824+576453255
3358+576633054+575476200+573825629+573474072+574320319+574860953+574433941
3345+573593614+573155116+573840693+575412189+575881035+574621250+573075378
3331+572069874+571644497+571784713+571983155+571511923+571212184+571785288
3318+571582517+569971175+569029550+569277337+569153333+568902719+568702510
3304+567161453+565070220+564472201+564439510+562994449+561175255+560823477
3291+561584773+561961290+561500042+561061015+561235159+561683949+561490279
3277+560685823+559977936+559180813+558512112+558583236+558972874+558894637
3264+558255357+557199757+555953623+555042171+554169815+552809661+552027072
3250+552821853+553794534+553966205+554079827+553483222+551656960+550124782
3237+549956513+550446388+550821271+551305756+551601165+550787564+549127451
3223+547673333+546633504+546056336+546000850+545996609+546170356+547027559
3210+548092348+547826979+545936220+544386901+544575624+545139008+544606813
3196+544061761+544310476+544803399+544377006+543131269+543508273+545043587
3183+544475520+542011171+541403610+543498730+544424717+542229580+540227275
3169+542243363+545743345+544976792+541059032+540825073+545277767+547103587
3156+543562875+541106345+544707624+549804104+548373179+542300174+541330763
3142+548430167+553205351+548319504+542262006+544207412+550344693+549256358
3129+541150257+538402029+546648038+554757320+550051670+540618238+540978233
3115+550399738+553495812+544068123+535906050+539861536+549575225+548588894
3102+536949192+532069310+540475150+549674004+544472869+532005121+529553584
3088+540467949+549501627+542258251+530297518+528707071+535626677+538838097
3075+532794867+526720272+528347430+535167373+536573735+529028898+523060813
3061+525340768+532056808+533316239+527112030+522083361+522426392+525212700
3047+525005866+521325334+518788094+519290603+520661580+520256746+518584131
3034+517764522+518687062+520535942+520931765+519396804+518871190+525899338
3020+555516407+613215053+659863845+650825440+612238441+580138690+559835378
3007+546364600+537131686+531724732+528933786+526437674+522938885+520141533
2993+519845285+522989026+526884741+525534306+520630657+518865447+522923777
2980+529473315+529877354+523669611+519738687+521783711+527512403+530453727
2966+526604176+521558189+522096349+530862493+539478834+534955899+523913466
2953+519597675+524772127+534115881+535176340+526254385+519359695+521108869
2939+529736210+534651301+528744887+521012343+519978787+526783224+535126863
2926+533363155+523805940+518094521+520637769+527875358+529143095+521636735
2912+515423867+515986810+521597330+526066060+523435342+517504277+515316607
2899+518780451+524196241+524292192+518615408+514247356+514846877+518950841
2885+521566009+519072592+515087065+514165231+516507829+519286230+518941034
2872+516015039+513951284+513970942+515541156+516952732+516352107+514532030
2858+513327996+513453325+514257560+513828959+511912223+510547917+510725109
2845+511519272+511736312+511052414+510100628+510088480+511312879+512472869
2831+512891310+513117406+513192020+512858487+512617106+512747648+512539752
2818+511923621+511656750+511827846+512202420+512502114+512311713+511896894
2804+511773420+511898087+512134785+512280038+511978621+511565790+511767103
2791+512388933+512681736+512543905+512403556+512502423+512694856+512685535
2777+512640828+513064306+513787654+514257251+514395259+514268693+513888509
2764+513656802+513987730+514522178+514712403+514647596+514660451+514697471
2750+514573291+514545327+514711961+514777608+514842945+515145069+515530598
2737+515659903+515341434+514705025+514339950+514837997+515650626+515805244
2723+515517699+515409510+515571462+515973292+516401673+516562652+516566628
2710+516658869+516874053+517125860+517219205+517060744+517026640+517334639
2696+517630269+517748751+517790674+517842538+517890337+517854200+517917505
2683+518258372+518740693+519048780+519312515+520009268+520685038+520600440
2669+520074429+519938409+520496537+521163515+521455258+521653787+522006361
2656+522455549+522860781+523051271+523078660+523111925+523175628+523445768
2642+524080189+524719380+525141311+525529756+525882506+526298341+526913854
2629+527398957+527504009+527424315+527411990+527701965+528337136+528865710
2615+529095031+529387745+529804463+530126201+530339442+530754614+531566006
2602+532359065+532787357+533021449+533253818+533392709+533326577+533395625
2588+533966608+534704711+535166666+535494810+535893018+536354443+536777301
2575+537112425+537564705+537982837+538146997+538429639+538900872+539279244
2561+539609244+540099428+540817519+541489047+541771955+541779906+542056805
2548+542807366+543413602+543433305+543274799+543326397+543633557+544239086
2534+544985053+545520076+545729915+545840887+546067513+546464793+546915571
2521+547174976+547353583+547591783+547717024+547890682+548234685+548409095
2507+548304043+548176328+548195633+548281115+548413026+548795773+549302346
2494+549518149+549500832+549540591+549752992+550119128+550374601+550465428
2480+550697753+551087788+551325724+551330892+551336856+551394109+551306330
2467+551099849+550981234+550805500+550420898+550206288+550337183+550568227
2453+550755889+550732255+550451336+550226212+550339171+550627424+550486103
2440+549720964+549104125+549089636+549059595+548627150+548202967+547991449
2426+547725196+547388438+547103985+546876917+546801066+546571877+545837794
2413+545187691+545235004+545541148+545425847+544806933+543941910+543264020
2399+543037615+542987960+543272281+544906551+548963158+556807468+569766725
2386+587617350+608725604+630876558+651958483+671051840+688443559+705260230
2372+723106526+742560895+761843019+777934443+788725025+794645841+798160975
2359+798515625+791027687+775585395+757096241+739458547+728872459+731311494
2345+742317747+746026993+738443192+728717531+720655783+716596658+719295894
2332+724898064+725609043+722047038+721355099+724837940+726522041+721868697
2318+712088611+702036573+698168910+700950889+702215223+695946384+683150271
2305+668003874+655562014+647235825+640059288+631972448+623110219+613526101
2291+603500349+594172543+586067811+578889905+572741093+567783902+563816929
2278+560620044+557800559+555051801+552667765+550958528+549668747+548403219
2264+547163093+546310617+545886521+545359892+544378596+543170321+542258737
2251+541926573+541933022+542017135+542194636+542346957+542248355+542011657
2237+541867376+541847673+541991557+542337415+542832326+543449429+544058625
2224+544377227+544444640+544689158+545306217+546112970+546846258+547430803
2210+548119870+548965499+549525836+549755421+550189324+550948676+551790992
2197+552698026+553635543+554455726+555150050+555961265+557073279+558179550
2183+559053408+559934025+560685425+561007826+561312866+561965443+562797819
2170+563692130+564551100+565379633+566368659+567321196+567744938+567709111
2156+567798127+568067825+568150921+568142262+568192756+568055544+567729520
2143+567587183+567794018+568124283+567905299+566707273+565174919+564011218
2129+563110854+562130354+561044139+559986639+558755878+557196753+555674029
2116+554341750+552742645+550782175+548994170+547489912+545864521+544012284
2102+542275215+540778820+539280084+537796412+536551294+535519195+534369189
2089+532894927+531269139+529613620+528061872+526844408+525821454+524741999
2075+523714583+522850841+522078236+521391069+520815536+520192822+519208921
2062+517988409+517023105+516467982+516234508+516199388+516257127+516392572
2048+516495460+516476641+516701323+517433595+518163923+518604496+519045688
2035+519630719+520373991+521212154+522065160+522911143+523731326+524456264
2021+525087548+525695153+525924695+525493840+524754942+523873707+522721536
2008+521418017+520110212+518779612+517355623+515750554+514177954+513070269
1994+512315247+511071984+509003855+506749169+504668936+502962702+501632191
1981+500323988+499115492+498088739+496957067+495618073+494371276+493498788
1967+492657533+491480270+490292979+489317824+488456468+487685542+486941961
1954+486324990+485940212+485487843+484910367+484698495+484935238+484857443
1940+484275328+483848935+483741453+483794465+483766590+483496715+483208020
1927+483427932+484401938+485324567+485494912+485338173+485168049+485104788
1913+485329073+485866570+486386440+486427613+486280990+486345488+486386087
1900+486482480+487002483+487501635+487473936+487285346+487071089+486732652
1886+486568536+486553339+486693291+487094326+487313398+487139519+487096800
1873+487813787+488913343+488966399+488466850+489282350+490799641+491781113
1859+491895972+491643944+491707161+492253052+493528475+495573013+497099050
1846+497100508+496323839+495708282+495074524+494481453+494600951+495336226
1832+495026592+492442039+489985200+489488390+488797070+487261579+486204742
1819+485744156+484459412+482150388+480040468+477854255+475482324+473604420
1805+472730695+473072047+472240290+468930754+466285634+464821709+462698051
1792+459997445+458228304+457811895+457868088+457066194+455464305+453895107
1778+452381307+450873471+449020217+446832458+446828394+448374222+448385090
1765+447507035+446881406+446566736+446749362+446384286+445877359+446878844
1751+448021428+447030060+445924894+446405093+446743000+445850279+444777494
1738+444897036+445648215+445898432+446318640+446888474+446845093+447034389
1724+447709894+448227733+448499551+448465138+448491423+449214638+449949649
1711+450500885+450858097+450923479+451395197+452366817+451934019+450141641
1697+450235428+451984248+454557448+457456936+460017502+461503868+461297740
1684+461072174+464037044+466929111+467985551+467969073+468426875+469955828
1670+471675580+473742693+476242250+478187435+479825946+482374540+485371615
1657+487678518+487867373+485561486+486930608+489731715+491127652+493515487
1643+497385403+500535373+502335482+502449414+501563717+503480850+506957285
1630+509600947+511648842+513876449+516311685+519591844+522941404+524528802
1616+525699704+529608186+534201141+537517746+540146211+543184811+546535564
1603+549785417+552899339+555979554+558980605+562185045+566026379+570152829
1589+574056320+577713526+581510727+585554567+589352696+592466530+594672490
1576+597409187+602194841+606726567+610564279+615477692+621039263+625998575
1562+629880066+632014857+635687128+644914564+654051085+662584728+670840058
1549+678400666+685402749+692079737+695587007+695463003+703112716+715363954
1535+723929006+729980011+736377669+742992765+748985678+754165475+758003805
1522+762113645+769338909+778870634+788392640+796352914+803847743+811288412
1508+815240630+814430607+819145667+826598705+832122373+835326239+839036898
1495+844862116+850310773+853725802+855799630+859785333+865145548+869595901
1481+872887413+875947528+878929715+880281343+878652993+878451459+883830846
1468+889763944+892405441+893841799+896957842+898782690+895944783+896028719
1454+904388527+911178209+914410347+917418864+923054475+929294335+934014342
1441+938144238+941451212+943323152+947166607+952743464+956417457+959977916
1427+965356950+969284075+971858866+975282377+977063225+978177537+982622412
1414+986730749+988364313+989346712+990373819+991340580+993143958+994967039
1400+994650204+993038023+992267494+992637606+994281948+995014485+991993422
1387+986132333+983592619+986437328+991331568+995344484+996293133+994641988
1373+994971810+997979001+999702773+999580492+998467683+995797118+994642076
1360+997592544+1000579326+1000891213+999431175+997532994+996577365+997057477
1346+997052883+995725994+993328528+990450775+989679009+990640469+991334307
1333+991705302+991825286+992248056+992477245+991892169+991488307+991935374
1319+993368906+996039206+999441159+1002776671+1006292335+1011295161+1018906352
1306+1026615173+1030321856+1031198497+1032615683+1034700643+1036131966
1294+1037633264+1040915499+1044712038+1046332172+1046521248+1047852378
1283+1050023924+1051692475+1053261805+1054651513+1055200452+1055969744
1271+1057472544+1057257493+1054294831+1050880067+1049045058+1049456254
1260+1051167391+1052707742+1053874093+1054449980+1054220085+1054731473
1248+1056652891+1057416793+1056243639+1055720588+1057049067+1059456428
1236+1061859990+1062905032+1062466093+1062327290+1062586695+1061973170
1225+1061168979+1061288609+1062000383+1062087765+1062052600+1063827793
1213+1066822615+1068298998+1067106141+1065350032+1065207871+1066005524
1202+1066848679+1068295287+1069869477+1070765821+1071959473+1073358105
1190+1073741823+1073327005+1072538363+1071592984+1070909041+1070536102
1178+1070164930+1069885999+1069965694+1070083203+1070399861+1071052615
1167+1071017539+1069846682+1068248283+1066848856+1066371395+1066674005
1155+1065878826+1063688814+1061454979+1058820992+1055904097+1054794646
1144+1055344821+1054544694+1051535029+1048229823+1045683747+1043419342
1132+1040470199+1037048101+1033877986+1029937785+1025448910+1022003840
1121+1018822504+1015403057+1012046164+1007696622+1002675595+998055515+993188930
1107+988139012+984313405+981653353+979479068+977848951+975714955+972545370
1094+969635633+967261670+965323906+964361739+963482448+961256918+958166586
1080+955680503+954116120+952612083+950300143+947461530+945734224+945107181
1067+943371040+940853061+939533063+939064261+938566125+937826962+936774233
1053+935867463+935241304+934437554+932905332+931046027+929942053+928712882
1040+926889095+926771232+928494738+929161275+928280482+927877944+928209269
1026+928033181+927310982+927120138+927854442+928596875+928816256+929145195
1013+930103828+931062725+931315151+931512885+932110595+932610851+932659004
999+932272105+931913125+932141077+932741967+932792064+932377068+932467984
986+932785349+931922403+929536777+927083118+925294319+923830040+922735520
972+921493627+919825164+918509761+917671554+916504672+914720467+912989185
959+911915605+911347758+910590571+909610027+909402573+910564419+912495821
945+914054725+915127157+916640118+918821648+921134383+923496772+926461995
932+929945940+932498466+933562769+935036501+937736930+939773561+940497969
918+941425148+943296028+945163550+945948039+945799870+945602048+945971806
905+946333171+945600546+944243616+943363883+942888454+942488744+942257612
891+941966400+941442288+940876297+940519085+940811446+941664320+942964526
878+944735567+946210095+946917804+946453066+945638891+947037699+950730954
864+955179098+960066534+964694566+967851074+970042765+973472903+977479899
851+978948065+979437100+982150164+985258784+986531690+986815480+987537945
837+989711523+992659341+995047706+995989021+994599490+992781710+993966615
824+998744582+1004919237+1009594096+1011354358+1011140720+1010663612+1011780044
810+1016127907+1020796581+1021725527+1022551807+1026642474+1030090901
799+1030713615+1030998200+1031914865+1032605611+1033386300+1034721141
787+1036701579+1039499903+1041732060+1042254758+1043123093+1046282782
775+1050803553+1054442911+1053963595+1048889645+1044941492+1046031329
764+1049113267+1050262124+1049163275+1047486418+1046722516+1047885775
752+1050983705+1053563443+1053222223+1051242227+1050095843+1051072854
741+1053187147+1052628489+1048842818+1044445123+1040401283+1039462883
729+1041887562+1042173119+1039950417+1038760475+1037397803+1034584017
718+1031887122+1029764877+1028030503+1027332778+1028213748+1030015182
706+1030019600+1027789917+1027013734+1027973074+1028300069+1029732275
694+1033132373+1034177327+1032056584+1030782795+1029451842+1025991399
683+1023839555+1024911545+1027275083+1029052309+1030005993+1031313003
671+1029667159+1020678983+1015978944+1023524223+1027152360+1024034021
660+1022794866+1023543749+1024446365+1029217617+1033709762+1029815769
648+1021463471+1017730635+1024123081+1043228234+1057902029+1044952712
637+1023773732+1017315640+1017022837+1014344585+1012988805+1018239638
625+1021917519+1006410994+982092999+963444279+945445221+938517442+956783681
611+980724937+986526919+984745805+987158468+994193507+1001270690+996381663
##END=
