##TITLE=Sample description
##JCAMP-DX=4.24
##DATA TYPE=INFRARED SPECTRUM
##DATE=24/8/2023
##SAMPLING PROCEDURE=Instrument type and / or accessory
##ORIGIN=Default
##XUNITS=1/CM
##YUNITS=ABSORBANCE
##RESOLUTION=4
##FIRSTX=4397.6552
##LASTX=599.8556
##DELTAX=-1.9287962
##MAXY=1.3244488
##MINY=0.12666725
##XFACTOR=1
##YFACTOR=1.2334891e-009
##NPOINTS=1970
##FIRSTY=0.16630162
##XYDATA=(X++(Y..Y))
4398+134822127+134371923+134297024+134414157+134400723+134594784+134746262
4384+134148869+133061479+132353188+132308574+132920210+133798668+134087464
4371+133735764+133501089+133789184+134445421+135429329+136518374+136921911
4357+136617845+136137971+135492812+134833169+134361836+133948393+133498515
4344+133098264+132880598+132537995+131755964+131119841+131140801+131312960
4330+131310097+131473426+131724905+131625652+131128310+130605865+130481411
4317+130659212+130649077+130290793+129795275+129297643+128870574+128719640
4303+128847428+129095223+129451199+129765521+129899578+129874475+129826588
4290+130192120+130754841+130669275+130303550+130586705+131177296+131420235
4276+131586946+131889164+131730607+131065371+130801484+131081570+131249151
4263+131055718+130607411+130193521+130144498+130349891+130364726+130127851
4249+129997285+130006938+129960984+129886616+129920731+130158343+130431495
4236+130459461+130227963+129869776+129688737+129979346+130431253+130678215
4222+131057663+131717246+131967192+131520841+131084856+131020612+131108244
4209+131303719+131509836+131798560+132387605+132959641+133261605+133403937
4195+133298342+132944697+132735741+132891350+133174287+133286430+133007951
4182+132483814+132316282+132627475+133000666+133192794+133109693+132790937
4168+132427749+132208294+132062700+131693303+131260857+131286818+131838993
4155+132453359+132589639+132124202+131491872+131173696+131211774+131288062
4141+131187069+131155419+131251072+131025879+130588553+130547359+130907031
4128+131107205+131008036+131126329+131598350+131893742+131710348+131416116
4114+131409169+131548397+131609935+131465042+131215302+131450110+132133733
4101+132242180+131590063+131233072+131506140+131750045+131707026+131552299
4087+131494591+131681742+131975092+132198920+132348609+132416949+132215543
4074+131713948+131480529+131843355+132337121+132593493+132694800+132723709
4060+132736321+132794609+132682720+132405424+132337640+132343258+132084747
4047+131684544+131631197+132186030+132749501+132705262+132225920+131776525
4033+131490773+131317950+131295589+131227491+131009921+130780706+130487101
4020+130320813+130578889+130974694+131085799+130876009+130348405+129734788
4006+129644124+129850532+129692917+129420067+129322094+129153390+128869281
3993+128677745+128698849+128831397+128714035+128240068+127925396+128041658
3979+128108536+127662077+126978490+126739043+126882003+126870358+126724691
3966+126580136+126293731+126066944+126315126+126902286+127189935+126562909
3952+125044729+123345716+122735518+123391271+123373452+122554842+123124739
3939+124781495+125466096+124026814+121258556+120073375+121205366+121773560
3925+120814670+120565486+121020329+120182039+119356723+121005494+123500213
3912+124542095+124186711+122126165+117137101+111586898+110205010+112414569
3898+116180000+119671203+120116792+117609630+117198313+118953887+118001908
3885+115510958+114731016+114868565+117142574+119059942+117100401+113561250
3871+110889708+110615010+112673285+112590316+111811366+114381709+116992220
3858+116476201+111392619+102690204+103808894+112369267+118311917+119549673
3844+116844475+112493419+108211462+105882874+107871529+111301786+113741890
3831+115734314+116761277+116632680+116231934+113142661+107934710+108372821
3817+111366127+114424401+119131229+122237125+121118507+116983788+114627015
3804+113154608+110336881+111352911+114828820+117822271+121304365+124070062
3790+124945391+124290652+122794639+122081636+122361481+121574111+121272557
3777+123625560+125770899+125225006+122352421+120474797+120928009+122183850
3763+123325698+122054624+118836428+118189892+118829784+115912139+109236637
3750+107847779+112319459+114659246+114991955+117875352+120364829+118275652
3736+112557119+111710614+118238685+125030123+128172261+127914161+127258528
3723+128531957+131343464+134923181+137908537+138544829+136167472+136725265
3709+147307381+162674945+178294158+194147382+210659343+224145334+231487280
3696+233670999+231973665+226572596+220413499+220824719+225919476+229653509
3682+230604075+229109234+225348769+220609227+222208830+227634834+230423592
3669+236270094+246076220+254197285+259575474+263244297+265548700+266874535
3655+269568220+272208799+269961367+265942017+273472781+286813564+297250703
3642+304505476+310072121+314481478+317679113+320532430+322836277+322908398
3628+325744874+335273125+344206749+348828699+349779554+351636182+357049646
3615+362820427+367991314+373203638+377650034+382963786+389926525+395381643
3601+398322350+401180040+404484611+407366003+411331402+415653610+417008414
3588+416347949+419591997+425716036+430486963+433433927+435458136+437373474
3574+439785756+442063171+441747291+437094415+433995960+438046454+443458276
3561+446298835+447901966+449855672+451340896+452220985+453730129+454996165
3547+454626260+454332124+456018223+458750880+461075989+461950134+461984539
3534+462447754+462729761+462357247+462205419+462137237+461687600+462269880
3520+463856630+464400832+463891711+463357947+462334245+460870669+460500474
3507+460853128+460248910+459536644+459887123+460315256+460850760+461805603
3493+461902295+460728071+459025445+457697557+457173940+456812009+456852889
3480+458042770+459173746+459066084+458459112+458015178+457376554+456427172
3466+455429227+454321783+453281218+452923973+452821434+452675115+453039414
3453+453190179+451934725+449760526+448447134+448230458+447841273+447775845
3439+448766446+449514132+449009602+448199049+448185374+448757265+449016657
3426+448665646+448224466+448202432+448807954+449931634+451351286+452684103
3412+453919744+455689054+457718046+459503447+461289717+463019403+464607215
3399+466294474+468076975+469829034+471768340+473951673+476489495+479773844
3385+482876309+484610537+486099772+488800875+491992832+494381049+495983600
3372+497203198+497965526+498738678+500316536+502133974+503500520+504977095
3358+506331560+506640241+506520982+506910071+507676313+508406168+508766698
3345+508820191+508616707+508055689+507428324+506676386+505543187+504470246
3331+503658774+502541280+501047986+499578901+498363941+497487718+496873787
3318+496915924+497391654+497216149+496801594+497362516+498750034+500171715
3304+501952477+504476672+507019375+509288189+511552799+513836690+516379103
3291+519769518+524157541+528372185+531003462+532926339+536070313+539703595
3277+541865327+542675880+543540699+545026745+546345452+546714149+546415809
3264+546160959+546384883+547491650+549392637+550959767+551707453+552213191
3250+552630500+552568261+551756838+550767059+550503366+550837271+550974264
3237+550895885+551417473+552500272+552831181+551809992+550675005+550661572
3223+551029834+550368257+548992386+547956700+547446758+547562055+547765249
3210+547438882+547407086+547731472+547661211+547560943+547957908+548710282
3196+549150060+548888542+548489402+548624752+549082796+549338999+549529484
3183+549878707+550023335+549500250+548908450+549003596+549357458+549273958
3169+548125247+546855732+546907340+546860903+545961147+545553358+545264103
3156+544298243+543166928+542209186+541570660+541323010+541035107+540256737
3142+539043468+538000148+537351764+536853032+536584072+536053883+534756390
3129+533680114+533527996+533428067+532578566+531168192+529814645+529052076
3115+528836366+528625103+527923661+526742333+525634503+524955434+524421573
3102+523589372+522611141+521911439+521747772+522056356+521789426+520460426
3088+519080205+518241384+517774304+517307175+516816272+516888803+517387534
3075+517894722+518822166+519738351+519032270+516280236+512719630+509691291
3061+507437892+505063108+502174999+499923823+498870694+497691734+495788331
3047+494151133+493141107+492516014+492278366+492393566+492765259+492794155
3034+491722712+490054154+489042146+488898968+488788311+487972829+486780919
3020+486269237+486561247+487274721+488665331+490596230+492535536+494749505
3007+497820174+501705116+505869022+510034571+514966796+521914097+531467933
2993+544109594+560040676+577285199+592072791+602203689+608615243+612753007
2980+614886761+615224435+613760134+609477742+601741779+591671332+581242142
2966+571834382+563674877+556388549+550002798+545057139+541939308+540555221
2953+540502744+541039263+541560657+542192274+543000701+543790910+544636352
2939+545222256+544745559+543083525+540784026+537950763+534615628+531392841
2926+528220116+524163437+519073054+513489883+507655728+501919231+496886593
2912+492786859+489241764+485692563+482283156+479340396+476435278+473680586
2899+471845704+470627796+469298603+468175649+468010581+468567347+468751115
2885+468138489+466967841+465057817+462400736+459526255+456448724+452818100
2872+448657238+444293279+440348224+437092530+434114204+431445913+429559857
2858+428209547+426448356+423618959+420000222+416290204+412772895+409377067
2845+406130265+403224736+400686986+398153295+395198285+391978615+389134528
2831+386955327+385219504+383614683+381966251+380430771+379212598+378008317
2818+376633871+375523021+374677507+373615027+372419106+371375182+370257519
2804+368764829+367087186+365607132+364239861+362556226+360580703+358876265
2791+357706366+356714895+355461810+353852760+352176808+350713836+349341129
2777+347955375+346718719+345589265+344454399+343418158+342433960+341299843
2764+340141033+339368558+339080752+338815416+338213421+337465711+336727713
2750+335983265+335246789+334374191+333435488+332714234+332107672+331459433
2737+330974594+330681932+330301372+329857752+329526722+329206130+328782394
2723+328308235+327895855+327611553+327318407+326851859+326395675+326084602
2710+325736949+325287869+324750963+324253392+323960416+323568452+322808782
2696+322004559+321363640+320580148+319559032+318584981+317715669+316738936
2683+315532964+314215006+312935633+311738867+310685689+309726594+308688686
2669+307595281+306567834+305510598+304377254+303345434+302436739+301530122
2656+300632106+299841583+299193053+298623989+298185733+297949197+297826894
2642+297796161+297767893+297531864+297182520+297016269+297167831+297582047
2629+298078893+298473394+298724717+298946080+299276191+299751945+300303783
2615+300877050+301418039+301815222+302095514+302438286+302845664+303064877
2602+302991186+302856923+302807127+302713866+302475711+302126947+301735056
2588+301279887+300671440+299949220+299201679+298409899+297592605+296735470
2575+295779926+294794617+293701090+292383326+291083826+290008856+289104654
2561+288265447+287314615+286212173+285211642+284543349+284182142+283976000
2548+283889480+283834683+283589207+283256558+283113815+283181224+283402177
2534+283707499+283977426+284199369+284524141+285049860+285681090+286300409
2521+286830984+287358612+288046379+288699595+289049447+289259599+289626677
2507+290088853+290404468+290512226+290457670+290402849+290429692+290299754
2494+289927626+289457043+288945071+288493454+288122583+287665481+287088081
2480+286515732+286048820+285624022+285087213+284492756+283995957+283590439
2467+283160663+282665846+282224642+281824947+281303263+280729053+280235758
2453+279784986+279339022+278854474+278294229+277747659+277258809+276736690
2440+276173062+275695544+275349873+275005724+274572711+274127061+273753411
2426+273449297+273236076+273174127+273110850+272882770+272669742+272556790
2413+272455265+272442484+272547222+272715503+272870424+272857522+272746478
2399+272848461+273121360+273118823+272786488+272525912+272479909+272421150
2386+272109159+271439537+270313127+268629976+266453892+264017207+261493567
2372+258824841+256105279+253682777+251572024+249682804+248263200+247486255
2359+247348006+248072667+249786092+252458974+255740061+258051061+257870626
2345+255531842+253323382+252786501+253297192+253845912+254150775+254265758
2332+254349500+254807181+255614883+256389920+257111246+258038642+259336280
2318+260727954+261743416+262263651+262509900+262845133+263427389+264061929
2305+264578999+264905510+265019768+265089955+265272226+265506926+265623454
2291+265612485+265679677+265839526+265906210+265862914+265758683+265553460
2278+265248210+264935301+264661267+264343767+263990244+263768156+263705845
2264+263626065+263377158+263005659+262689295+262501008+262396174+262278775
2251+262040548+261772965+261616281+261472354+261306803+261213034+261079859
2237+260846536+260685285+260647087+260661342+260698042+260747790+260810560
2224+260820031+260722131+260616547+260665860+260881183+261095104+261238500
2210+261409197+261678568+261993386+262286483+262619518+262997613+263341038
2197+263658900+263937307+264172635+264393684+264533069+264595863+264615240
2183+264471700+264195612+263981328+263843925+263698113+263435942+263000972
2170+262546286+262147605+261769317+261527127+261394628+261143499+260730611
2156+260272543+259925905+259769922+259628435+259294216+258766758+258172711
2143+257675985+257374504+257128980+256746657+256324540+255956472+255493740
2129+254949804+254531625+254236281+253902763+253497076+253075660+252702445
2116+252456897+252362669+252316521+252205356+252054616+251914313+251854780
2102+251983752+252231064+252502102+252868334+253338845+253786621+254143286
2089+254520100+255043210+255697780+256446674+257196824+257817883+258372764
2075+258989208+259702344+260513138+261260897+261704928+262050986+262782629
2062+263784972+264693208+265565106+266423087+267155406+267810193+268448430
2048+269039239+269548649+269988162+270399865+270907029+271539274+272073594
2035+272420498+272780496+273215853+273558335+273768705+273893183+273929158
2021+273879508+273662421+273419410+273535914+273895961+274061464+273947714
2008+273770638+273663460+273498271+273152117+272734180+272409021+271997269
1994+271033270+269870015+269558024+269962624+270254368+270240306+270082607
1981+269927566+269762208+269618740+269656770+269816257+269694654+268935637
1967+268123876+268259999+268927833+269198677+269060646+268680521+268105151
1954+267526278+266954604+266213804+265179134+263690744+261646216+260129752
1940+260307504+260926920+260778668+260260366+259867242+259573010+259213011
1927+258445585+256879470+255469386+255250995+255258291+255578497+256879059
1913+257681518+257127676+256496494+256961980+257845765+258327003+258633099
1900+258922185+258786473+258292622+258168411+258055289+257514397+257898629
1886+259312047+260420094+261119362+261694538+262226660+262707150+262940352
1873+262273581+259666779+256562768+257257227+260790096+263253285+264055116
1859+264357901+264751943+265134291+265306897+265165459+264429998+262916916
1846+260834625+260160678+262711330+265517557+266602917+267125519+267532753
1832+266242773+263704395+263566677+265505863+267429295+269859988+272114789
1819+273269249+273901711+274245667+273603323+272632679+273271424+275116816
1805+276102609+275211576+273477638+273206938+274267775+274392929+272709294
1792+272118316+275613131+279574326+281293743+281587493+281592373+282099851
1778+283520686+284013426+281753213+278708759+280359100+285677297+290501522
1765+292945479+292971380+293347663+295353267+297635612+300044221+300797029
1751+298364452+296308907+298714786+302931460+306210807+308420234+310688154
1738+313033413+312997655+311771798+316094852+323763069+330989525+336244517
1724+339376024+341472087+341550562+338373753+338357904+347498201+358067694
1711+365680895+369794763+371551437+374293806+378557738+381563052+384240163
1697+390455675+401824679+413475400+420511951+424778831+427710430+428373117
1684+431807651+443657072+456005563+465529633+473018623+480659393+487725469
1670+495098534+507854814+521153170+529603816+536005320+543920510+550785518
1657+553253660+550459586+550023238+560075178+567419396+574758781+590908279
1643+607819573+620011453+628060060+633593797+645192234+665982044+683863161
1630+697862379+711581426+725789734+740888857+759158192+776090265+788973149
1616+803789395+821767784+835949321+845005248+851622654+858962861+866789960
1603+872962417+877231182+879942722+880063817+878115281+875908802+873068049
1589+868892933+864068272+858403582+851496631+843743754+834824578+822165377
1576+808657787+804556748+802925350+797453803+794513458+795609111+795712182
1562+793574755+785207078+775303825+785160109+799145797+810071157+819826400
1549+830691405+840114096+845277977+848296072+856332212+881565857+907386518
1535+923863253+938917485+956767821+970930029+978486718+982247425+984191419
1522+984365088+986559969+990458974+995027044+1000061712+1001107787+995750328
1508+983678336+978048534+991507657+1003389938+1008360627+1008307280+1009098021
1495+1014423200+1017285505+1013356154+1009755393+1015873633+1024876503
1483+1030435561+1032632182+1032988798+1030529209+1023366537+1014151438
1472+1012329409+1018704722+1022446970+1018854327+1013979605+1012783442
1460+1008233734+995123109+989178441+998737497+1006936965+1009567517+1008603204
1447+1008079200+1009659232+1011151029+1011089273+1008542994+1003304698
1435+1002327530+1006437025+1007775931+1006683274+1008218367+1010623739
1423+1011578292+1010585468+1005827105+1003057676+1007273962+1010814901
1412+1010620453+1009772596+1008771557+1005856678+1003453529+1003164660
1400+1000529759+995838661+993752407+993593718+993983000+993041784+988458057
1387+982774038+981789429+985124613+988535179+989725736+988518749+985480069
1373+984085690+986135895+987629818+987264987+985773577+982107291+979434505
1360+980908423+982940169+983092770+982733931+982812406+981802283+979960828
1346+979322205+979318146+976902240+971407547+967746190+969129358+972760756
1333+975815865+977391355+978236313+979027538+979796920+981048460+982563354
1319+983774883+985843354+989034925+991811989+994610219+998860331+1003552493
1306+1006662786+1008419677+1010210296+1012280603+1014960831+1018489399
1294+1021577077+1023278205+1024543371+1026627498+1029517926+1032466727
1283+1034590769+1034947868+1033975920+1032910323+1031601667+1029959009
1271+1029011029+1029005907+1029093563+1028677414+1027490046+1025293522
1260+1023408577+1023833521+1025556973+1026400578+1026881092+1027816992
1248+1028118232+1027758233+1028008637+1028851953+1029522469+1029651778
1236+1029324445+1029195522+1029501207+1029318840+1028304465+1027828396
1225+1028784012+1030041157+1030322101+1029714597+1028644651+1027537885
1213+1027122122+1027471973+1028080347+1028447208+1028270446+1028186945
1202+1028415219+1027821631+1026176751+1024491473+1023367890+1022726368
1190+1022408506+1022404930+1022486401+1022484951+1022561783+1022494422
1178+1022193763+1022577343+1024011443+1025215143+1025174166+1024699934
1167+1025188663+1026695729+1027958093+1028451653+1029121589+1030005302
1155+1030076335+1030253097+1031866568+1032893314+1031216831+1028869252
1144+1027957803+1027463372+1026287408+1024707376+1023583793+1023478451
1132+1023217706+1021721464+1020545693+1020191976+1018751401+1016890038
1121+1016488192+1016709217+1016418319+1015667105+1014428999+1013610908
1109+1014368597+1015434676+1015577806+1015484448+1015852758+1017424576
1097+1020471954+1024136693+1027191319+1029306663+1031494972+1034209991
1086+1036297405+1036739261+1036758203+1037926435+1040065360+1042960813
1074+1046618595+1049844667+1051318874+1051699265+1052266275+1053237934
1063+1055206572+1058692230+1061985373+1062965923+1062616942+1063064210
1051+1064445929+1066207362+1067775411+1067979426+1066643806+1064888558
1040+1063877952+1064711217+1066700440+1068051136+1068650038+1068831439
1028+1069324517+1070749919+1071491275+1070094189+1068207023+1067998368
1016+1068494925+1068012575+1067246575+1067532254+1068325991+1068214657
1005+1067875340+1068180639+1068246743+1067603578+1067118618+1067972951
993+1069358729+1068765818+1066721605+1066153821+1065964882+1063409036
982+1060410753+1059809821+1060703971+1060424863+1058475747+1056298648
970+1054403074+1052657103+1050593175+1048636328+1047874483+1047305927
959+1046406364+1046051681+1045816160+1044888764+1043469257+1042757764
947+1043536425+1044519391+1043808864+1041804178+1040805556+1041272926
935+1041336711+1040837352+1041530386+1043363722+1045037886+1045844670
924+1045053059+1043105006+1042057965+1042557228+1042984201+1042528815
912+1042041343+1041632442+1040668418+1039180971+1037569433+1036052122
901+1034348579+1032759462+1033101195+1035166863+1035726045+1034351092
889+1033479073+1032788552+1031671251+1032382550+1034413717+1034275323
878+1032487409+1031763352+1031018034+1028754246+1027684300+1029006486
866+1030037484+1030432372+1031519810+1032939413+1034260053+1035330192
854+1035514878+1035194117+1035922329+1037764847+1039383827+1039913532
843+1039925999+1039872169+1037900342+1034426860+1033314488+1034372836
831+1033639502+1031845983+1033118784+1035969008+1035867146+1034240434
820+1034938977+1036789612+1038347513+1041013437+1042124167+1039112450
808+1036683014+1038097882+1040053859+1039444229+1037616208+1037572332
797+1040291024+1043141248+1042469765+1039095924+1037132892+1038697751
785+1042149197+1043810121+1042905243+1042030905+1042474694+1043174880
773+1042205347+1039369813+1036855620+1034634935+1031590360+1030229999
762+1031261384+1031002861+1028996339+1028275955+1029725808+1031571901
750+1031988436+1031478156+1031018904+1029900540+1029034803+1030978217
739+1033735469+1032157757+1027525321+1025623657+1027171894+1028929365
727+1029202384+1028746804+1029299318+1030136061+1028797059+1026191634
716+1025559003+1027730883+1030005882+1028834460+1024607059+1022186224
704+1023749731+1026175011+1027271340+1026335923+1023866573+1023607277
692+1026607976+1028664850+1026745211+1024434260+1026717764+1032156210
681+1037028710+1039386629+1039364691+1039602049+1039600406+1036769510
669+1032974012+1033134344+1035580403+1036467401+1036330650+1035669992
658+1036849532+1041784560+1046339583+1046286623+1045911161+1049557828
646+1053031792+1052558430+1047359081+1041112594+1037485159+1036531670
635+1050593078+1073741823+1070257035+1045245380+1026926321+1018086684
623+1011480585+1002976785+998644622+1006236103+1018378742+1018488046+1009124888
609+1007431299+1015600904+1022693025+1020949858+1013340981+1010661140
##END=
