##TITLE=Sample description
##JCAMP-DX=4.24
##DATA TYPE=INFRARED SPECTRUM
##DATE=24/8/2023
##SAMPLING PROCEDURE=Instrument type and / or accessory
##ORIGIN=Default
##XUNITS=1/CM
##YUNITS=ABSORBANCE
##RESOLUTION=4
##FIRSTX=4397.6552
##LASTX=599.8556
##DELTAX=-1.9287962
##MAXY=1.5254079
##MINY=0.59149909
##XFACTOR=1
##YFACTOR=1.4206468e-009
##NPOINTS=1970
##FIRSTY=0.84106249
##XYDATA=(X++(Y..Y))
4398+592027851+591669379+591569104+591659436+591160956+590489493+590267629
4384+590452362+590585110+590557126+590231254+589176312+588504303+589463417
4371+590717985+591077674+590942953+590325738+589550979+588915933+587764997
4357+586654883+586828371+587485360+587205849+586421398+586709803+588346339
4344+589629563+589840895+589737557+589512044+589067688+587730928+586079876
4330+586793715+589264000+589871481+588326368+587301047+588115833+589154453
4317+588201675+586008006+584964770+585987867+587541791+587421293+586366519
4303+586827322+588320955+587756312+585204674+583636863+583093742+582727970
4290+583344933+584545839+585141530+585561846+586605585+586964686+585704286
4276+584558132+584874564+585799316+585887424+584722935+583053381+582204485
4263+582554692+583031690+582687315+581907395+582017991+582809029+582692475
4249+581632793+580733718+580469437+580688615+580977734+580762710+580226218
4236+580158459+580624255+581079435+580838776+580233770+580453746+581058457
4222+580822623+580034689+579309774+578698475+578670113+579817525+581561174
4209+582242413+581795540+581722075+581739361+581104861+580660840+580848677
4195+580689832+579381057+577930051+577779219+578860131+579967392+580030200
4182+579352862+578850481+578579362+578502037+578528175+577785219+576578648
4168+576711565+578065820+578914506+579104693+578624884+576998754+576143649
4155+577424817+578574159+578116335+577383742+577280488+577312585+576866508
4141+576154347+575804644+575416090+574490667+573654651+573429767+573792057
4128+574375371+575050863+575666861+575421838+574489156+573731431+573787316
4114+574592494+574469227+572884088+571578501+571534867+572212834+572858117
4101+572916184+572916310+573968944+574839363+574249084+573726900+573710956
4087+573099028+572680643+573336457+573834013+573491317+573164731+573108888
4074+573105573+573504071+574057261+573554209+572315920+571652260+571345604
4060+570997033+570751968+570617415+571104524+572451186+573422635+573363561
4047+573441179+573834727+573826419+573528238+572573110+571208072+570658784
4033+570504218+570100518+569818783+569093028+568014592+568243671+569823440
4020+571466982+572548943+572606045+571647477+570402307+569356512+569068610
4006+569799567+570553265+570812091+571095462+570923191+569741039+568691803
3993+568528259+568432180+568020927+567997683+568761492+569480198+568944085
3979+567555299+567206100+568320367+568913205+567905926+566501826+566172472
3966+567191205+568147089+568089441+568004816+568252062+568188751+567409041
3952+565876934+564388503+564220973+565810643+567061771+565818909+564263265
3939+564717816+565915911+565892164+564287641+563433962+564969426+566663902
3925+566076225+564163619+563028500+562338785+561781358+562576340+564705774
3912+566415984+566773743+565945910+563891241+561620750+560379524+559980649
3898+561377699+564112978+565845677+564649427+562434277+562057890+560720794
3885+558561152+558859039+559311115+560951888+564373357+564801098+561605436
3871+557677810+555812405+557910121+559414746+558469436+558919875+560911736
3858+562994767+563069449+556339498+552217322+556611457+560688740+561922540
3844+561483680+560242790+557839928+554490707+553438199+555176646+557247048
3831+559207190+560732290+561165905+561992187+561432074+556344868+554171842
3817+555513888+556551502+560007417+564419928+565733444+562754401+560982012
3804+561570235+558956083+557103391+558367189+559133096+561145263+564146333
3790+565143082+564077735+562092839+560579696+561391251+563027241+563620121
3777+564220511+564730738+564249293+562590647+561283382+561597675+562606926
3763+564183338+564739801+562652113+560654294+559842026+557331925+551724759
3750+550208889+554729101+555705207+552310171+554147340+558724277+559738940
3736+555103810+549482589+549877143+555299157+560339708+561659098+560279963
3723+558548481+557738227+559104524+561662077+562771939+559771079+554534635
3709+554431004+557922875+560694194+561032905+559702522+559561970+560447577
3696+561259593+561891996+560601933+555663671+552950839+555834054+559663923
3682+561658469+561329030+558919456+553507846+549855871+551359322+550826942
3669+549106201+551109768+553002277+552658573+551968859+551245705+548428444
3655+546364377+547597716+545846599+536822452+532858283+536619889+540015303
3642+540799125+539437821+536832857+533896358+531364356+529377194+524575834
3628+517336580+516227599+517529577+516298337+511648690+506303707+504744538
3615+504591651+503249269+501385038+498307776+495456657+495067389+494584811
3601+492359298+490277651+488742398+486479333+484521583+483881712+482285203
3588+477991636+474757333+474345997+474204731+473246246+472136720+471546819
3574+471168585+470437293+468955659+465469368+460570334+458925282+460136132
3561+461005082+460787373+460033340+458874305+457158347+455772247+455628842
3547+455151173+453253965+451836230+451564355+451263447+450280292+449323108
3534+449401943+449442011+448018822+446229147+445180332+444088385+443309220
3520+443476289+443169003+441843278+440832432+440578641+440198100+439507588
3507+439213476+438572095+436961698+435943007+435938518+435672055+434529761
3493+432707151+430804028+429827334+430246348+431351092+431767127+430806545
3480+429658084+429157800+428668845+427712962+426639895+426373391+426731695
3466+426458226+425056728+423249222+422623658+423392208+423730583+423026604
3453+422445555+422114103+421243180+420296401+420125347+420175316+420010975
3439+420171163+420536180+420298877+419436178+418607211+417854311+417181715
3426+417294660+417746820+417281066+416359000+416400578+417219727+417435087
3412+417016786+416936398+417161576+417253585+417293401+417564353+418178211
3399+418870443+419169002+418935349+418489273+418333281+418548641+418684117
3385+419006674+420053770+421008898+421129060+421305653+422262165+423420109
3372+424453317+425470079+426294598+427091636+428288388+429750387+431094237
3358+432407753+433648812+434878751+436619715+438162815+438552460+438516881
3345+439050058+440166045+441405006+442438801+442967657+443312115+444254279
3331+445271040+445603793+445703691+445980684+446407628+446517175+445770401
3318+444968706+444945882+445491351+446512099+447345429+447195142+446458227
3304+445690516+445390237+445995578+447190695+448327409+449106741+449660812
3291+450178171+450586948+450803483+451110098+451980223+453437690+454676525
3277+454972650+454698006+454723473+455626073+457325626+458905563+459451704
3264+459239490+459350086+460211107+461149327+461143831+460391560+460185598
3250+460620220+461003320+461428209+461911164+462245343+462585481+462859411
3237+463041290+463402364+463710237+463769605+463920856+464114147+464138943
3223+464317927+464782716+465198500+465532469+465979552+466446313+466863901
3210+467391372+468135167+468734928+468483402+467747242+467560370+467727355
3196+467917709+468509247+469289670+469870173+470512645+471488080+472527498
3183+473101246+472973910+472326361+471828469+472162607+472796268+473042592
3169+473577573+474687434+475654856+476080709+476130972+476597984+477673946
3156+478313229+478054487+477666519+478161223+479333347+479628046+478994720
3142+479139301+479875125+479735244+479048298+478764466+479055347+479662702
3129+479882719+479486277+479268735+479729579+480319103+480404484+480117001
3115+479884061+479853224+479972756+480087884+480066906+479931933+479753327
3102+479874202+480509415+480897760+480683449+480805583+481535491+482144189
3088+482192858+481725426+481362339+481608620+482199613+483018468+483864258
3075+483941919+483389233+483136154+483132294+482960862+482904263+483334606
3061+483857210+483690015+483187886+483385750+483983204+484106009+484005398
3047+484153041+484325229+484425839+484592405+484703252+484423658+483599768
3034+482790353+482681939+483155412+483636689+483952786+484449041+485197536
3020+485640507+485539100+485477550+485874706+486457768+486734090+486492466
3007+486355479+486960317+487782403+488213458+488395799+488517849+488786787
2993+489408617+490306265+491270833+491956688+492511640+493478180+494464901
2980+494881650+494983309+495229255+495779340+496270309+496284574+495950185
2966+495596202+495536457+495856246+496041943+495555379+494715168+494326698
2953+494532492+494984736+495773299+496704302+497059040+496939297+496973785
2939+497043726+496588839+495761425+495255436+495315139+495749761+496288350
2926+496683072+496555316+495718798+494704805+493965121+493473313+493327348
2912+493895139+495120505+496006280+496082304+496098919+496183125+495996966
2899+496063844+496534128+496942150+497294623+497656032+498013665+498264897
2885+498169699+497855197+497709442+497926732+498174230+498279749+498590811
2872+498905439+498871245+498829960+498793291+498426805+498301944+498796228
2858+499080270+498824967+498621187+498582672+498243877+497678142+497623054
2845+498207879+498730399+498966359+499462908+500162944+500387115+500244129
2831+500325985+500779278+501503018+502276561+502730777+502931830+503356634
2818+504021846+504387744+504171797+504054782+504704848+505512459+505852428
2804+506142302+506639774+507170895+507884650+508626768+508864700+508761908
2791+508676444+508574323+508773908+509571785+510360473+510641159+510778481
2777+510901874+510678080+510287470+510463517+511327014+512161350+512581120
2764+512711561+512890671+513318287+513760377+514233137+514632348+514678668
2750+514647914+514620811+514662473+515049853+515532179+515843114+516091032
2737+516597483+517384619+517863379+517853729+517814207+518066320+518517893
2723+518837597+518980248+519161833+519398004+519660942+520159589+520962249
2710+521697318+522161183+522484538+522576422+522470315+522513739+522797949
2696+523398675+524239347+524617622+524399284+524284828+524459532+524754567
2683+525197370+525657921+525927279+526190846+526817543+527564318+527927195
2669+527937139+527803844+527770070+528112221+528667424+528983521+528921846
2656+528804663+529030344+529654397+530265276+530444806+530252983+530021848
2642+530309624+531349839+532315288+532532536+532449505+532682403+533240334
2629+533811607+534187239+534253613+534316127+534758511+535148660+535205846
2615+535520096+536368908+537288751+537996045+538687438+539311072+539531718
2602+539499664+539696857+540079873+540433772+540957383+541503272+541770029
2588+542057217+542472582+542749407+543038442+543603254+544211070+544606337
2575+544980039+545473400+545908358+546172345+546334882+546520244+546830970
2561+547296178+547832208+548251894+548574283+548907498+549055561+548956293
2548+548879639+548995396+549297185+549723080+550125942+550419256+550780665
2534+551276501+551824194+552480848+553077084+553341701+553389279+553546068
2521+553939112+554321709+554492134+554698893+555171989+555673153+556045219
2507+556536985+557133431+557451667+557426326+557460520+557847019+558290284
2494+558464653+558592828+558870116+559258964+559696858+559836530+559531971
2480+559267145+559340652+559525678+559542334+559344218+559230518+559393349
2467+559628848+559964580+560455758+560550369+559899212+559115936+558941273
2453+559287158+559597800+559524335+559085769+558768037+558899946+559038107
2440+558828705+558480428+558192862+557889940+557395782+556906953+556662098
2426+556493519+556341470+556198862+555896820+555502770+555317492+555272264
2413+554885597+554077063+553296976+552949454+553013815+553119250+552929945
2399+552336309+551510070+550684586+549992018+549498951+549143752+548777350
2386+548134249+547022457+545393138+543199679+540468847+537150380+533441093
2372+529753539+525959291+521982325+518062502+514490537+511815759+510335552
2359+510097451+511184951+513532892+517100410+521588148+525068440+524978444
2345+521233998+517373207+515719134+515376186+515702730+516457728+516953648
2332+517048762+517532892+518724274+519923880+520662012+521515942+523023001
2318+524807893+526257179+527108424+527646719+528444848+529649614+530818928
2305+531601323+532123507+532526956+532815991+533249732+534021386+534687564
2291+534925664+535067853+535268360+535458799+535735582+536061413+536353888
2278+536593247+536630000+536501447+536559262+536980207+537450408+537545060
2264+537553242+538023401+538688739+539134395+539417095+539536124+539593729
2251+539935545+540515964+541034666+541464127+541859269+542268885+542643930
2237+542829795+542952432+543214364+543702731+544416151+545131585+545700424
2224+546275682+546958684+547451751+547752533+548468177+549646553+550687271
2210+551172870+551251747+551536880+552213924+552987466+553676342+554189128
2197+554640700+555246586+555931770+556437927+556862018+557650077+558750080
2183+559730088+560555865+561259761+561751443+562198652+562768834+563390118
2170+564113859+565073980+566037248+566771394+567451668+568184010+568858410
2156+569517707+570262677+570817462+571046373+571421208+571992019+572293264
2143+572230749+572085372+572216946+572446403+572197142+571618863+571257706
2129+570996236+570398909+569581816+568858998+567992061+566817042+565756814
2116+564907289+563914904+562719829+561438368+560159465+558981257+557846054
2102+556660839+555437193+554102908+552545712+550914337+549568431+548521545
2089+547239412+545566542+544122081+543160073+542144024+540693186+539136032
2075+537899966+536811250+535542165+534259529+533233075+532350657+531359027
2062+530164750+528829123+527543885+526417157+525300960+524077271+522898518
2048+521948508+521075698+520018784+518841038+517705163+516506816+515182224
2035+514089858+513496432+513035084+512191013+510991030+509791928+508712736
2021+507758489+506904349+505996505+505043223+504213040+503555883+502935983
2008+502200621+501300161+500246227+499245744+498560896+498065732+497322733
1994+496068123+494563749+493530961+493141483+492877538+492425840+491701134
1981+490898012+490298377+489754124+489131120+488537233+487890691+486911060
1967+485833421+485377695+485379667+485122141+484551120+483920102+483254176
1954+482588293+482005776+481403707+480633437+479637486+478435027+477557014
1940+477490556+477628633+477503017+477287657+477005167+476524100+475876971
1927+475121721+474007244+472773696+472200032+471839630+471315389+471308215
1913+471424391+470836881+469990251+469758529+469946114+469878942+469492947
1900+469165397+468850937+468250882+467695930+467318914+466688525+466282391
1886+466516967+466764255+466773863+466591816+466234603+465929457+465706209
1873+465082491+463321892+461102252+461111609+463033151+464367939+464600375
1859+464369911+464004810+463677679+463467479+463180165+462595256+461703524
1846+460337688+459104938+459645792+460940470+461444781+461471171+461417174
1832+460234561+457705873+456544196+457211548+457763227+458367645+459055597
1819+459251112+459058870+458550867+457461186+456151613+455814707+456327409
1805+456529889+455828594+454179976+452701866+452402468+452253398+450865956
1792+449320633+450270726+452175570+452728298+451924547+450654288+449630184
1778+449395482+448971936+446718648+443317989+443058240+445739857+447962182
1765+448720578+447870508+446730983+446759261+446915715+447171059+447090210
1751+444656805+441189058+440794966+442385727+443318031+442892094+442020878
1738+441993732+441154486+438149598+437977411+440888150+443433704+444760520
1724+444737822+444039045+442469723+438058974+433631106+435560159+439656616
1711+441985341+441898576+439538677+437149829+436574822+434638931+430649294
1697+430031030+433075273+436925742+438976467+438742688+437202358+433559823
1684+429357301+431593765+435660182+437363847+436372133+434598527+433525587
1670+432060819+432520321+435307374+436259607+435165814+435499910+436639770
1657+435811811+430844809+423197658+423780217+425815292+425184065+427463827
1643+432347085+435231727+435130110+432298164+430522419+435363511+441188806
1630+444421599+446193317+448110790+450315116+454110119+458721208+461470416
1616+464099337+469745270+475455732+479308132+482435657+486205067+490094220
1603+493679988+497307084+500745923+503522318+506186608+509499578+513129611
1589+516778565+520531109+524279038+527849157+530950082+532781209+533012177
1576+535157932+541161835+545773301+548093216+551790923+557167667+561748842
1562+564284704+562963846+561452045+569539314+578992041+586576887+592587208
1549+598132741+602503129+603972344+602508290+601575902+610555071+623111324
1535+631228802+637519976+645335161+652485217+657205643+660313617+662294695
1522+665363944+672592877+681004382+689260272+697139103+702916108+705338856
1508+704022361+707379680+720156370+730064193+735548932+738342613+742008308
1495+748543206+754125282+756797711+759663893+766657872+774792971+781133444
1481+786207518+790794902+793954692+794644112+794057064+797800713+806486694
1468+814231267+819298711+824506037+830712922+834451201+834211213+837945883
1454+849192354+859580825+866674744+871496830+877410359+885131940+892927950
1441+900224852+905729646+909477743+915231587+922751108+929852830+937747521
1427+945561740+950295048+953952939+958787611+961542526+962982875+968143881
1414+974810604+979833575+982270044+982923466+984273023+987677667+990345900
1400+989667053+987960870+988260520+989483873+991735651+994552156+995183762
1387+993002386+991902552+994353872+998857177+1003020973+1004267486+1001461469
1373+999131569+1001410786+1004463504+1005250766+1004617734+1003105640
1362+1002544856+1003482489+1003965822+1004366334+1005255717+1006030644
1350+1005849394+1004546745+1002754049+1001081264+999344286+996632083+994916838
1337+996520144+999015602+1000365243+1001157959+1002068488+1003317518+1004924181
1323+1006221292+1007326245+1009015813+1011327084+1013920300+1016480455
1312+1019928818+1024328323+1027801608+1030662838+1034733660+1039541062
1300+1043155990+1045464492+1047615912+1049440158+1050211561+1050397845
1288+1051916988+1055615660+1059468479+1061623171+1062855838+1064361722
1277+1065194045+1064552370+1063454214+1062261070+1061656148+1063001089
1265+1063365687+1059842559+1057049800+1058089721+1059435082+1059809833
1254+1060843628+1062108350+1062084854+1061075561+1060778764+1061271412
1242+1061046024+1060381693+1060794372+1062083680+1063253329+1063702845
1231+1062984475+1061572236+1060880969+1061372442+1061383854+1060347960
1219+1060413160+1061839748+1062753130+1063332710+1064354590+1065426313
1207+1066137384+1066149299+1066112378+1066527071+1067030878+1068223771
1196+1070001530+1071596026+1072453103+1071519330+1070010928+1069790827
1184+1069729404+1068862090+1067910863+1067454298+1067850363+1068934590
1173+1069972832+1069974679+1068117958+1065749542+1065109210+1065910066
1161+1066566677+1066349010+1065314207+1063983027+1062616101+1061273342
1150+1059573117+1057363966+1056283935+1056028339+1053916527+1050952252
1138+1049488156+1048422054+1045765736+1041146801+1036571333+1034573724
1126+1033775218+1031458911+1028275542+1025619309+1023514628+1020878869
1115+1016954977+1013213174+1009423038+1003060160+996383871+993885727+994443994
1101+995057642+995273799+994172958+990871693+987156826+984924515+982867245
1088+979855896+977372101+975770138+974224395+972558155+970820757+968815680
1074+966108176+962867747+960030516+958382316+957118770+955110169+952943058
1061+951044885+948576614+945032927+941211995+938113126+936087826+934560796
1047+932013480+928590374+926397419+926085266+926204841+926006137+926206939
1034+925809112+923149018+919693439+917215350+915348393+913917777+913371258
1020+913510552+913677369+913560228+912699207+910700508+908642902+907066867
1007+905649342+905597820+906830991+907675733+908229804+908392593+907827949
993+907860087+908772882+909325023+909024786+908124662+906910959+905737786
980+904898414+903773742+901757337+900204546+899789601+898497776+895498929
966+892490014+890590246+889090488+887192231+885903175+886394480+887513110
953+887756287+887834157+888554626+889439981+890280863+890919853+891794216
939+894460519+898710577+902682718+906057155+909540760+912715906+915186359
926+918101712+922044317+925677202+928351141+930674077+932453514+933425718
912+933846034+933720837+933209058+932540028+932094371+932250196+932429096
899+932017508+931290578+930101881+928490267+927452025+926206939+923719536
885+921942112+922244531+923176290+923313234+923242496+924381853+926561634
872+928198925+928559663+928688132+930242937+933033850+935118727+936338136
858+937948406+940170899+943520330+947832986+951575796+955873516+961709846
845+966001608+968555553+972665394+977663779+981187915+984168217+987553897
831+988439336+986447518+985860386+986624992+987971275+991867309+996401409
818+1000680836+1006233627+1009867519+1008988625+1007217999+1008770622
806+1013093683+1016106291+1016739995+1017865254+1020237278+1022475798
795+1025512069+1030859025+1034719983+1033826740+1033577773+1037690383
783+1042347246+1044507392+1045136564+1045815664+1046408334+1047307619
772+1048797141+1048608758+1048194233+1051821161+1057883382+1061245399
760+1059941407+1056926701+1055339842+1052924016+1047786421+1044405104
748+1045787218+1048117957+1049099895+1051348400+1053235665+1050666783
737+1046286242+1044642239+1044242314+1041336442+1038261068+1038205854
725+1038684152+1039214644+1040311709+1039933938+1040135914+1042052967
714+1041632903+1038421340+1035942916+1034428053+1031889548+1028303066
702+1024912350+1023944929+1026952754+1031276738+1032743604+1031369545
691+1029694830+1027791538+1025723108+1026989927+1032980236+1036663384
679+1033845872+1033166772+1037832865+1040935763+1038974740+1032154290
667+1030388614+1040219993+1048652728+1051111349+1051725669+1051374833
656+1046065302+1036736639+1030415214+1032786483+1045831439+1058387021
644+1054152571+1043520839+1036539866+1025314960+1016875512+1016520817
633+1014685074+1014632293+1024566969+1044476429+1064874844+1073741823
621+1064957162+1039242671+1011181917+1002933453+1017019086+1029176589
609+1023787342+1024213196+1039647882+1042065302+1033584402+1035424759
##END=
