##TITLE=Sample description
##JCAMP-DX=4.24
##DATA TYPE=INFRARED SPECTRUM
##DATE=24/8/2023
##SAMPLING PROCEDURE=Instrument type and / or accessory
##ORIGIN=Default
##XUNITS=1/CM
##YUNITS=ABSORBANCE
##RESOLUTION=4
##FIRSTX=4397.6552
##LASTX=599.8556
##DELTAX=-1.9287962
##MAXY=1.2852981
##MINY=0.34225443
##XFACTOR=1
##YFACTOR=1.1970271e-009
##NPOINTS=1970
##FIRSTY=0.48618564
##XYDATA=(X++(Y..Y))
4398+406160915+405921431+405416969+405214831+405307397+405542400+405870442
4384+406037799+405586866+404459009+403466293+402834732+401897312+401202737
4371+401455591+401838655+401753159+401996800+403400391+405208482+405980810
4357+405304534+403772052+402360794+401520422+400708732+399544675+398800530
4344+398983871+399233438+398901413+398403573+398234548+398457874+398963755
4330+399680563+400244578+399971832+399034885+398494472+398475202+398558806
4317+398946999+399365567+399197662+398915255+399323914+399883323+399766208
4303+399347317+399010685+398856922+399071011+399322121+399260501+399047184
4290+398923895+398733831+398437657+398386643+398374046+398095349+397765440
4276+397763572+398305430+398526539+397725928+396828667+396630587+396982555
4263+397235010+396658870+395729567+395794099+396943791+397820213+397595169
4249+396599989+395518366+395070594+395564998+396329010+396397103+395865479
4236+395211361+394332151+393448010+393084017+393481521+394173308+394194968
4222+393737014+393441263+393082598+392877173+393346953+394193997+394661114
4209+394162154+393299948+393371726+394235924+394717381+394577261+394355404
4195+394091073+393670066+393323451+393061883+393076324+393456052+393467181
4182+392750647+391765873+391063555+391008657+391425034+391883137+392212001
4168+392240035+392123866+392260426+392722787+393461305+393639791+392896866
4155+392499461+392390189+391835111+391589976+391645496+391375837+391101548
4141+390670656+389871190+389726390+390393453+390594297+390159746+389987036
4128+390429106+391093456+391129507+390385237+389832849+390092400+390666797
4114+390638439+389857721+389185976+389129162+389299805+389412215+389566327
4101+389616470+389220135+388515327+388045148+387880928+387710235+387536952
4087+387366682+387185631+387012075+386587432+386151038+386252867+386503430
4074+386220327+385812813+385993540+386390647+386395228+385872989+384752353
4060+383603633+383404432+383985452+384442610+384668102+385016958+385157650
4047+384494445+383612620+383095287+382376686+382017124+382666561+383204360
4033+383166517+383042903+382698828+381933645+381278805+381074576+380857001
4020+380859914+381499094+381912657+381501434+380940755+380728309+380318231
4006+379708480+379665558+379776723+379430506+379117028+379217512+379488192
3993+379405111+379083841+379155195+379211711+378827128+378637737+378747931
3979+378493634+377768361+377203175+377301667+377720434+377789772+377656299
3966+377953992+378292890+377924240+377340830+377235939+377299651+376909764
3952+376061774+375145791+374777515+375185950+375141409+374682135+375515959
3939+377009402+377805283+377512868+375957332+374607544+374951520+375539412
3925+374879468+374121381+374334524+374298672+373635069+373876071+375054444
3912+375979092+376558220+376437395+374241633+370859308+369424920+369877771
3898+371409406+373457056+374008274+372180116+371437390+373224195+373578055
3885+372030386+371385306+370623235+370985959+372772888+372719284+371242821
3871+370146309+369955001+371062791+370812104+369516466+370663842+373121345
3858+374665354+373089278+365859404+363320089+368895263+374055977+375629364
3844+373879756+371162902+369118065+367765439+368595727+370895583+372250973
3831+373076954+373935550+374096907+374192163+372867496+368882939+368193517
3817+369734489+371006126+374800844+378995108+379670238+376027018+373392971
3804+373589906+372799851+373262162+375502216+376977285+378861710+381156462
3790+382441319+382528881+381540223+380533590+380748002+380733189+380403478
3777+381623205+383092548+382950486+380941775+379404588+380067843+381672376
3763+383450890+383786874+382044063+381825343+383775845+383585234+378619861
3750+376141370+379959093+382585497+381898117+384021378+388070518+389116140
3736+385836690+384524147+389363268+395818498+400433770+402987873+405781759
3723+410682922+417459996+426303666+436786127+447208239+457312814+471024510
3709+489695926+507801883+522781729+535432914+547804804+560626085+572223631
3696+581498242+587684736+589408799+585873831+581734714+581720074+582562637
3682+581068272+577283388+572260180+563397315+555035077+553781765+551191487
3669+547049580+547422188+548968189+548900071+547180389+544248524+540035662
3655+537682701+538463022+535744325+525776782+521858948+526739646+531660877
3642+533541194+533119539+532897906+533529393+534062536+534447243+532360730
3628+527945455+529026630+533492147+536239425+534335606+530526173+531182855
3615+533231376+532998390+532361128+531561986+531230558+533295959+535498492
3601+535393178+534020410+532847117+531534549+531616460+534378129+535836493
3588+532458874+530287511+532639327+535244892+536815839+538096787+538525065
3574+538162764+538242036+538179445+535477429+532251034+534563413+539391927
3561+541429144+541490241+543297112+545861548+546417049+546570613+547387830
3547+546844928+546758137+549939917+553474487+554637373+554818474+556285900
3534+558294934+558521945+557317629+557500572+559436957+560574001+561125867
3520+563250174+566308017+567881902+567090528+565674290+565756301+567788240
3507+570242581+571139469+571209280+573072119+575923567+576854414+575759844
3493+574511611+573994053+574427659+575745753+577723815+579445638+579746045
3480+579734543+580900118+582342050+582505175+581385509+580568939+580788430
3466+581144805+581277456+581694331+582305800+582683984+583141590+583260548
3453+582657643+583127499+584660354+585119254+584624104+584146829+583881129
3439+583823169+584290535+585302695+585648613+585741529+586980949+588243772
3426+587967415+586478279+585567151+586508255+587823262+588438864+589485781
3412+590375299+589987205+589663196+590103275+590170297+589660358+589751182
3399+590776986+591648280+591276270+589669968+588492641+588907524+590004783
3385+590967796+591670737+592233707+593053314+593823725+593960410+594041872
3372+594783602+595586280+595842021+595604853+594963010+594374695+594324005
3358+594888219+595587873+595427388+594719717+595216859+596774462+597556525
3345+597460472+597339921+597686238+598931284+600410561+600946891+600621339
3331+600201128+599479067+598295815+597801013+598340579+598819796+598806750
3318+598719113+598492252+598134632+598043907+598034397+598158732+598526360
3304+598732607+598743910+598147628+596974135+596789002+597934311+599010457
3291+599485889+599831060+600279902+600910642+601853240+602909866+603398693
3277+603205891+603278142+603895437+604334370+604406123+604461245+604864376
3264+605521208+605907210+605938481+605727454+606072028+607968627+609991803
3250+610673681+611277183+612681421+614382131+616037380+616780952+615755845
3237+613965605+613199426+613701797+613996477+613053630+612238653+612980433
3223+614117875+614442382+614397418+614211985+613701598+613126827+613080419
3210+613854117+614483810+613904508+612750086+611835372+611107386+610610990
3196+610217917+609411306+607881986+606273942+605585990+605592164+605772119
3183+605591417+604490773+603650551+603892449+604001598+603450728+602873368
3169+602308008+601098912+599655786+598786633+597623249+595843714+594713044
3156+594564858+594582086+593953289+592389412+590378535+588554436+587049316
3142+586116776+585701594+584762730+583190388+581962620+580963356+579256471
3129+577289264+576627005+577006435+576763839+575781853+574832931+573747623
3115+572215316+570782795+569780245+568923192+568220700+567821104+567547038
3102+567135840+566473582+565454799+564421725+564100255+563857211+562513871
3088+560966576+560513402+560525751+560302226+560368501+560844979+560820829
3075+559868172+558665899+557954892+557368469+555918570+553983480+552631775
3061+551737925+550728403+549371221+547951448+546880281+546128294+545629309
3047+545080879+544156804+543098236+541968113+540620442+539284571+537985349
3034+536520163+535100290+533838264+532416848+530829119+529483738+528502051
3020+527704801+526871899+525601507+523848563+522076946+520439822+518825554
3007+517670833+517361962+516876123+515520882+514489053+514066702+513162793
2993+511862824+510782047+509999387+509585251+509246453+508710073+508222691
2980+507742777+506947519+505840401+504718445+503621785+502398598+501215644
2966+499970797+498450141+497164711+496327626+495177188+493491316+492288794
2953+491979125+491611248+490783823+490077148+489496900+488483046+487095141
2939+485822409+484911430+484497891+484252358+483438377+482153047+480978060
2926+479783306+478268177+476568064+474793559+473060084+471719981+470828869
2912+470180553+469702282+469047194+468159966+467675721+467514687+467017645
2899+466282786+465787536+465578701+465167801+464319612+463587791+463107131
2885+462373268+461377590+460339835+459283756+458277322+457539625+457057172
2872+456161032+454820580+454025770+453870015+453473655+452420813+451105109
2858+450089064+449348679+448459260+447416526+446464417+445288933+443870753
2845+443044672+442895241+442820650+442727933+442516160+441939049+441277736
2831+440798021+440193623+439380688+438622526+437924266+437305229+436720200
2818+436071585+435780739+435880426+435604817+434808065+434024060+433414085
2804+432775229+432158332+431964435+432100621+431847220+431070435+430334133
2791+429869855+429446806+428904501+428301646+427734942+427276141+426962489
2777+426697984+426311035+425785361+425294642+424904109+424521841+424166462
2764+423893840+423627493+423352282+423242387+423236611+422922262+422299440
2750+421719441+421210497+420823001+420676159+420541466+420159099+419559132
2737+419080464+418975648+419001142+418806547+418356112+417975089+417935553
2723+417953130+417692782+417370467+417270456+417204080+416924288+416541821
2710+416177131+415830516+415519080+415237869+415112064+415210482+415291820
2696+415207519+414979264+414668899+414497160+414535451+414570108+414438204
2683+414222098+414086833+414015429+413997727+414049313+413914546+413448874
2669+412975408+412715285+412476548+412269431+412350146+412601257+412676570
2656+412496541+412286136+412284070+412403202+412403575+412361773+412473063
2642+412666811+412775660+412744390+412675375+412714165+412889215+413069569
2629+413058465+412920760+412857472+413057643+413787622+414692875+415064885
2615+415053382+415138381+415456564+416078987+416756060+417105912+417296448
2602+417666939+418203344+418748637+419219488+419624811+420027793+420458908
2588+420832611+421036119+421186696+421516530+421945057+422225645+422405401
2575+422631814+422796283+422760979+422651084+422595664+422501802+422389567
2561+422385185+422476806+422687285+422975741+423132990+423062482+422857530
2548+422648147+422435626+422200848+422105991+422290228+422650537+422887954
2534+422802906+422629424+422622752+422668213+422720597+422753759+422629075
2521+422584560+422820085+423021651+423047842+423099030+423206286+423289940
2507+423441762+423669469+423656622+423451322+423527308+423773190+423793406
2494+423698499+423736691+423766517+423559972+423453961+423682117+423803564
2480+423749637+423812079+423854155+423762484+423569483+423172775+422697492
2467+422354263+422167586+422083782+421820622+421362120+421147458+421192223
2453+421119325+420767033+420307535+419990298+419809894+419653741+419423245
2440+419049492+418593728+418100918+417643561+417261169+416748815+416104706
2426+415709591+415659996+415548184+415067673+414431382+413978556+413697221
2413+413384216+413019277+412756365+412496690+411958393+411258141+410676623
2399+410190062+409755959+409436158+409120639+408690494+408228432+407713040
2386+406866295+405424961+403521564+401516638+399326105+396712871+393890105
2372+391157566+388645588+386195753+383548013+381227717+379856791+379022694
2359+378334816+378446006+380010132+382756663+385909040+388078934+387881775
2345+385531553+383163355+382181917+382282003+382830533+383277458+383271955
2332+382838325+382630735+383049875+383609085+384021478+384602697+385543877
2318+386734523+387858745+388605330+389062388+389540036+390195697+390935012
2305+391523551+391843452+392027490+392263289+392500532+392660769+392824939
2291+392954254+393006438+393141728+393418507+393699843+393874694+393875740
2278+393740749+393702706+393813448+393868320+393923592+394140718+394355579
2264+394403854+394475258+394746585+395059465+395351058+395726654+396029575
2251+396115295+396254071+396679211+397150286+397528222+397967055+398399714
2237+398819452+399355135+399927789+400538213+401258606+401960476+402573887
2224+403219266+403933584+404678924+405538615+406552519+407575186+408576715
2210+409699045+410941353+412231288+413620762+415167834+416768807+418315082
2197+419945384+421801053+423808842+425889281+428136031+430634589+433194892
2183+435661333+438232491+441061531+443973179+446812377+449643110+452494558
2170+455313241+458141584+461005081+463774966+466272330+468446480+470546687
2156+472744142+474702834+476067735+476924987+477588490+478029465+477810820
2143+476887143+475560982+473724882+471151584+467999431+464417606+460294871
2129+455684405+450970616+446391818+441683905+436586852+431381846+426468832
2116+421880225+417444784+412967068+408429524+404166918+400357187+396715660
2102+393029642+389446747+386168168+383204385+380412118+377658665+374936557
2089+372256674+369645159+367257143+365208398+363356389+361428842+359372977
2075+357330257+355400071+353603383+351867468+350139072+348483525+347013584
2062+345704801+344321328+342776348+341228405+339688006+338110710+336663450
2048+335371871+334075188+332792647+331543567+330312064+329215628+328263021
2035+327370614+326516574+325649588+324749987+323910038+323162159+322464148
2021+321762477+320827398+319661996+318807956+318299088+317536544+316485992
2008+315590200+314898364+314112641+313127344+312123475+311230894+310338986
1994+309233761+308004772+307093992+306553953+306112256+305665754+305114386
1981+304478643+303906561+303313490+302616799+302013297+301441165+300418672
1967+299114421+298485375+298535716+298402916+297828469+296994545+296121136
1954+295510862+295154810+294756882+294200859+293447129+292313322+291364673
1940+291473373+291929859+291889152+291554313+291263691+291057420+290848535
1927+290443312+289547121+288590307+288276481+288111364+288081015+288755199
1913+289312941+289001779+288464801+288616573+289296210+289870657+290145719
1900+290144051+289763575+289111375+288709065+288495101+288039412+287966564
1886+288510761+288872489+288907469+288929403+289102263+289329423+289400827
1873+289044850+287685975+285920358+286188623+288234081+289811054+290456458
1859+290904030+291546919+292205095+292582283+292570657+292192746+291552172
1846+290669451+290423818+292083598+294193788+295456711+296335498+297121893
1832+297004803+296059441+296269945+297645078+298994642+300553290+301894588
1819+302437441+302484870+302214464+301332938+300213173+299904949+300211854
1805+300119511+299124205+297559407+296689234+296890626+296909224+295730453
1792+294751007+296305448+298540870+299424039+299314941+299135484+299316236
1778+300090456+300507853+299325696+297183439+297294379+299569811+301643478
1765+302632360+302391058+302242125+303039724+303798209+304413189+304016207
1751+301301195+298430925+298666276+300246759+301177606+301390052+301317228
1738+301303983+300096307+297403801+297726217+300750424+303614096+305396518
1724+305977663+306011772+305227244+302387075+300471678+303904419+308674301
1711+312038925+313541206+313457329+313642960+315076850+315953422+316248052
1697+318994584+325016558+331406534+335466230+337971511+339903340+340920753
1684+343892279+351730062+359615398+365687440+370480725+375450878+380324505
1670+385539221+393678481+402173668+408568972+414749465+422313631+429404132
1657+434372617+437312100+443099993+452799247+459474616+466459206+477667912
1643+488580791+496806892+502277997+505332852+510156486+519622107+527891429
1630+533583767+538127261+542115005+545347426+549098201+552847482+554508109
1616+555892080+560017006+563975920+565862810+566714534+567854566+568991709
1603+569983703+571415377+573199393+574713874+576115323+578151744+580945082
1589+584418903+588603084+593365223+598587507+603996270+608660066+612461879
1576+619318797+629518529+637822508+645607783+656016749+667317524+677516259
1562+684791596+688359627+696014841+712063264+726814059+739642958+751103471
1549+762467534+772059730+778508637+782603687+787532785+801473632+816062446
1535+825226166+833644970+844367039+853462293+859606859+864635744+868961539
1522+873840245+881563478+889408307+897542040+906959261+913878621+915387874
1508+911579935+912126174+923378897+932004097+935813529+936433861+937176587
1495+940651603+943038623+940170295+935255937+936589616+940622524+942198401
1481+941429185+939965642+937263726+931767874+924169525+920234911+922743727
1468+924537801+921815568+919075809+919846021+919266220+912043417+907131349
1454+915075765+925202051+933209208+939454359+945081866+950575726+956496220
1441+963149780+968559090+971869787+977162380+984311688+989850263+995375692
1427+1001824002+1006623237+1010580059+1013747349+1012944174+1013098236
1416+1019354540+1025211497+1026800022+1026121033+1025700075+1024664461
1404+1022931236+1022556985+1021380355+1017487866+1013523874+1012271458
1393+1014703491+1016949993+1014325855+1008609615+1007333696+1010916566
1381+1015053642+1017589346+1017220872+1014853969+1014692736+1016858870
1369+1017538258+1016782984+1015479380+1012450816+1010555262+1012186808
1358+1013342226+1012515647+1011381143+1009851873+1007767202+1006879576
1346+1007108130+1006651221+1004396952+1000167458+997374220+998933665+1001531213
1333+1002410773+1002231814+1001990512+1002397826+1003576647+1004695118
1321+1005308180+1006375064+1009243192+1013012391+1016594166+1020827543
1310+1025376415+1028875133+1031402870+1033853626+1036463922+1039222105
1298+1042595741+1046622076+1050941597+1054692073+1056260979+1056205010
1287+1056796662+1058294362+1059846637+1060655788+1060234233+1059425879
1275+1059116957+1059052624+1057688769+1054485129+1051849439+1050795103
1263+1050049190+1049733597+1049995513+1050312003+1051227812+1052789946
1252+1053971655+1054367317+1054525164+1055332422+1057218316+1059162668
1240+1059862273+1059938955+1060694528+1061732232+1061812301+1061073758
1229+1061039201+1062155381+1063014425+1063084535+1063825170+1065795215
1217+1067226491+1066970849+1066469524+1067304169+1068859532+1069636416
1205+1070008476+1071564236+1073612558+1073741823+1072056300+1071274535
1194+1072375279+1073289794+1072573260+1071338770+1070732579+1070345481
1182+1069698160+1068771795+1067158074+1064888966+1063082643+1062705902
1171+1063298848+1063094992+1061019483+1058332206+1056405082+1054573165
1159+1052548744+1051046562+1049309751+1045707461+1040739325+1036784395
1148+1034490590+1032498834+1029426351+1025221655+1021087268+1016947901
1136+1012122176+1006612183+1000342534+993864647+987674469+981777676+976135231
1123+970019346+963180254+956399620+950093721+944610218+940167308+936259582
1109+932284038+928133019+924963140+922881257+919672937+915483279+913053337
1096+912956637+913572687+914322981+915410181+916702233+918167369+918835603
1082+918842972+920331810+923224736+926361552+930030864+933055246+933970756
1069+934980676+938056246+941703947+944554648+946560645+948466855+951307696
1055+954200522+955722522+956619211+957876905+958639250+958367176+958644727
1042+960649130+962992730+963746211+963109447+963047702+964593305+966665926
1028+968343980+969900338+971039025+971593729+972268735+972414034+971472332
1015+971324444+972646472+973307934+972520095+971833039+971994869+972194244
1001+972028231+972210576+972493704+971604983+969759621+967674551+965517878
988+963976060+963506404+963296373+961854342+959258387+956825856+954632932
974+952418299+950217011+947668061+944919040+942979468+942321093+942024819
961+941421317+941523196+942867033+944165857+945756075+948257521+948655773
947+946628265+945811944+946409172+947236448+948778664+950514878+951444629
934+952111270+953635959+955953865+957875113+958489968+958739435+959785505
920+960522754+960091439+959480966+959516419+959875732+959682133+959164774
907+958999558+958562368+957186961+955067036+952559017+949910081+947586499
893+946621194+947320400+947828298+946354996+944077523+943101264+943644017
880+945141419+947136661+948517943+948914103+950470063+955122705+961740513
866+968538077+974649680+978649425+979929924+980560116+982122947+983094227
853+982867067+982881109+982765587+981852467+980884971+980461922+980563203
839+980433142+980513011+983026408+987268947+987729939+982126632+976644224
826+975828003+976281824+975288337+975257066+977798546+981465867+985020056
812+987693291+987894956+986344772+986407712+988888344+991445460+992673975
799+994164705+996893908+997658443+996031976+997581661+1003912656+1011106679
785+1016677122+1020206414+1022733554+1025045484+1026048831+1026882680
773+1028418622+1027891504+1026449672+1028048753+1031421593+1033696078
762+1034921207+1035573109+1035545424+1035902346+1037768920+1040149766
750+1041814575+1041972421+1040530390+1039137456+1038852635+1039885260
739+1040713930+1038253514+1033399705+1029990715+1029635486+1030626285
727+1030691614+1030098171+1029019336+1026063471+1022270371+1021201894
716+1023578955+1025884113+1025911201+1025208410+1024073906+1021317415
704+1018065974+1015714805+1014085450+1013286656+1014226864+1015668796
692+1013426676+1007657755+1004364088+1005068671+1004388786+1001031084
681+1000652052+1004800282+1009071901+1011935947+1014048702+1012417553
669+1007735832+1010761209+1020411465+1025369045+1024115334+1019499042
658+1016994309+1018209480+1019362208+1017853055+1015136698+1014368080
646+1015233996+1014613763+1011475054+1006954067+1004347755+1007691913
635+1015052347+1018979692+1017396146+1014410504+1011057682+1006827491
623+1005138881+1003721448+997173650+991363400+989585857+990662899+998549754
609+1006825201+1009870098+1015541423+1019986126+1015719884+1013343919
##END=
