##TITLE=Sample description
##JCAMP-DX=4.24
##DATA TYPE=INFRARED SPECTRUM
##DATE=24/8/2023
##SAMPLING PROCEDURE=Instrument type and / or accessory
##ORIGIN=Default
##XUNITS=1/CM
##YUNITS=ABSORBANCE
##RESOLUTION=4
##FIRSTX=4397.6552
##LASTX=599.8556
##DELTAX=-1.9287962
##MAXY=1.4326069
##MINY=0.52778792
##XFACTOR=1
##YFACTOR=1.3342192e-009
##NPOINTS=1970
##FIRSTY=0.66591358
##XYDATA=(X++(Y..Y))
4398+499103589+498410028+497637395+497544027+497091213+496138812+495902711
4384+495986206+496070238+497244757+498802086+498301382+495824085+494280784
4371+494711350+495272364+494906217+494454074+494465421+494149309+493710836
4357+494216498+494700628+494559817+494666006+494556689+494255007+494822275
4344+495425818+495276027+495460083+495953595+495402543+494116831+493380205
4330+492370800+490252235+489270617+490486013+491727274+492135503+492737751
4317+493518158+493656378+493291527+492624771+491182477+489692561+489400573
4303+490041866+490687849+490991675+491405087+492326484+492922924+492343996
4290+491056006+489633994+488318797+487667676+488584427+491000253+492673287
4276+492125184+490675787+489647977+488895402+488275642+488310622+488672033
4263+488760353+489121228+489645520+489648021+489137623+488336711+487743488
4249+487725172+488016400+487966812+487320650+486552797+485794861+485148655
4236+485068733+485152720+484775673+484200945+484043469+484862966+486597694
4222+488484224+489883363+490050979+488738909+487244615+486468989+485811078
4209+485129579+484925464+484682886+483870180+483417455+483921555+484574015
4195+484600686+483935672+483149591+482942752+483473342+484333983+484464341
4182+483468115+482669616+482950525+483745897+484286406+483800533+482314861
4168+481284817+481243941+481400791+481736246+482007640+481606603+481044383
4155+480709732+480741897+481242467+481599902+481959302+482722554+482793988
4141+481638947+480642140+480559628+480475462+479833857+479016326+478592506
4128+478780270+479084901+479333778+479512652+479010653+478072012+477510015
4114+477346062+477252247+476909242+476522456+477002476+478323212+479070784
4101+478603094+477759920+477428709+477577830+477309430+476273042+475618526
4087+476181550+476998902+477226738+477388770+477475482+476879980+476034037
4074+475634966+475430539+474849199+474106720+473913997+474292429+474418141
4060+474110607+474314632+474779329+474021259+472421624+471979309+473245454
4047+474602689+474522678+473496833+472673182+472175070+472199998+472998720
4033+473551648+473318674+473091061+472877118+472137320+471111208+470876625
4020+472091708+473462435+473653013+473066937+472336431+471618255+471137654
4006+471368216+471900102+471584661+470820426+470804477+471408422+472118468
3993+472878280+473187333+472618859+471459574+470196511+470073122+471664135
3979+473643363+474702624+474195308+472887706+471965951+470904234+469798915
3966+469994139+471099950+471102720+469928022+469133320+468636234+468190568
3952+468886363+470637487+471570097+471994587+472910981+472175784+469762237
3939+468620643+469486868+471289456+471382646+468737510+467256841+468312081
3925+468695382+467548561+467804095+469198901+468392539+466083082+465536364
3912+466383692+467763353+470212951+472437215+472205671+470408399+468273170
3898+466717852+467275962+468335311+466197134+462733753+463644562+466120116
3885+466328788+466424792+465124025+462901145+463783721+465609227+466617291
3871+466457448+464884930+465427940+466350008+464547330+463265237+463993063
3858+465204839+464746576+459196526+455447277+458108808+461647599+464184266
3844+465391397+465154939+463255453+459943338+458346294+458903868+459051425
3831+459247632+460488492+461386972+462089467+462024333+458931476+457893704
3817+459109546+458667052+459538459+462229475+463734580+461744943+460029692
3804+460935990+459428293+457883697+459144927+459735336+460289738+461406896
3790+462032151+462615814+462950689+462459232+462203475+461632901+460415897
3777+460738353+462430239+463725288+463010820+461451436+461246294+461082028
3763+461339573+462248863+462073519+462039164+463492537+464551440+463366914
3750+463358248+467176339+469208282+467750308+470173504+475628042+479698361
3736+479973641+475815582+473281818+476394823+481454220+484013047+483130605
3723+480318702+476617164+474164885+474871357+478334113+481382608+480758649
3709+480081484+482477251+486722021+491522266+496815665+503079736+509423059
3696+515144924+520172201+523451393+523885309+524471429+526494125+527774432
3682+528344916+528981116+529402881+526302653+521588942+522113948+522394634
3669+520619788+522132801+525352307+527805391+529840863+532178509+534515083
3655+538234133+544578304+550243166+549333026+546131076+547513239+549687781
3642+550390410+550479713+550799667+550858503+551284825+553247434+552531939
3628+545318192+541644352+542618152+543446851+542029083+539205698+538107170
3615+537503448+536085993+535747276+535673832+533593016+531790205+532050474
3601+532706643+533213959+534087287+533410791+531575279+532713344+536365025
3588+535258053+527713095+522470534+520901635+519912200+518465796+517478103
3574+517587822+519386300+523221769+526457001+524348264+520055737+518077357
3561+516967973+515994977+516536022+518233939+518550185+517824459+519583892
3547+522473796+521184956+516977220+514723070+515306465+517188036+517751373
3534+516452705+515784564+517000942+519406448+521817984+521881376+519232845
3520+517467113+517656977+517587956+516790618+516810498+517929934+518524587
3507+519041373+520847312+521601495+519371021+516655971+515525813+515462510
3493+515742347+516125336+515827183+515179680+516040232+518632474+520407900
3480+519653762+518375108+518090983+517594746+516252656+515092343+514909940
3466+515239499+515563160+516496128+517847064+517947669+516251003+514271775
3453+513939491+515413056+516752243+516726377+516024373+514844850+513829638
3439+514489783+515903709+516472228+516319667+515386788+513967055+513434632
3426+514299607+515723718+516467939+515915994+514665530+513963258+514233891
3412+514519312+514039471+513054369+512347004+512520338+513361144+514395521
3399+514950236+514306486+512873842+511444861+510318679+509610019+509638521
3385+510813754+512290492+512992272+513177758+512455249+510362862+508928029
3372+509742923+510825325+510426164+509977237+510472759+510944157+510746074
3358+510134221+509483815+508909623+508235317+507244094+506585781+506741425
3345+507105829+507801221+508859097+509373158+508983156+508031738+507600815
3331+508115055+508424465+507828517+506850875+506280391+506187916+505913619
3318+505116862+504285661+504212307+504560807+504627103+504934816+505220416
3304+504632687+503826504+503433285+503585712+504104375+503784823+502394932
3291+501158852+500771486+501176632+501657010+501523122+500558749+498954245
3277+498165752+498934007+499983038+500346146+500187733+499913481+499468797
3264+498765855+498086367+497541346+496976580+496408865+495932330+495601878
3250+495729243+495780216+494869138+493579941+493083750+493334370+493466515
3237+493761987+494424902+494683295+494329389+493329723+492010729+491363183
3223+491920042+492951649+493201018+492150156+490553693+489734465+490098289
3210+491189938+491874876+491621576+491163625+491105772+491270753+490615745
3196+489625774+490035611+491034071+490075907+487942108+487823901+489068602
3183+489043763+487908513+488029043+490067776+490999583+489308188+487993974
3169+489820820+492583046+491921292+488203941+487095048+490466490+492072201
3156+488703930+486044677+489308232+494529483+493553271+487661913+486630976
3142+493535268+497723303+492229184+486336620+489239345+496405470+496161462
3129+488942711+486567316+494063089+500897064+495596115+486268091+487002215
3115+497304709+501387135+492249690+484178786+488520455+498517022+498037359
3102+487529947+482962095+490402785+499165284+494957548+484007864+482735823
3088+493758190+501857282+493939610+481907972+480367575+487788340+491498232
3075+484662470+477249343+478933144+487266863+489719455+481713820+474602108
3061+476408672+483996875+486411717+480271884+474524018+474380794+477389664
3047+477960282+475138417+472958514+473120680+474340543+474461430+472856568
3034+471375364+471665386+472928627+473138862+472233637+472364352+479517388
3020+509466973+568080477+615135170+605615317+566649352+534552877+514711365
3007+501673003+491793883+485041303+481863611+479956129+476602065+473257828
2993+472533800+475761080+480022559+478782191+473471771+471396316+475554151
2980+481979093+481779490+474803944+470373330+472881050+479667224+482511292
2966+477279007+471232006+471553434+480119144+488294763+484035920+474000173
2953+470042074+474795858+483637965+484521702+476060395+469887235+472118512
2939+480519645+484363736+477780694+470521290+470134370+476852149+484532916
2926+482055932+472393033+467514564+471219810+479312782+480867430+472939796
2912+466017769+466176673+471714751+476075405+473413829+467637507+465311565
2899+468412195+473961843+474683370+469390819+465117502+465702595+469340695
2885+471322202+468858844+465399304+464773156+467092040+469803025+469174956
2872+465518762+463024177+463682982+466181900+467682985+466362025+463782068
2858+462602054+463521799+464838916+464015310+461344397+459308165+458972397
2845+460021293+461200860+461052722+460038761+459916846+460988973+462061903
2831+462354561+461996903+461615165+461662117+462090852+462339908+461840545
2818+461029447+460627204+460637926+460672503+460532317+460365103+460320295
2804+460411474+460527224+460648290+460636273+460316275+460129627+460152143
2791+460006104+459966121+460178322+460259673+460091387+459948386+460063555
2777+460364120+460736164+461061255+461054911+460749208+460544826+460573685
2764+460675497+460647084+460473303+460452128+460700871+461038069+461294318
2750+461217524+460811796+460730713+461390858+462159114+462175375+461602433
2737+461355253+461629327+461820397+461888703+462228849+462547865+462417507
2723+462192753+462285496+462506050+462580343+462675185+463004342+463198852
2710+463076713+463118841+463407255+463504331+463402564+463550926+463936237
2696+464259542+464635963+465022481+465198540+465264613+465368167+465491869
2683+465493477+465349225+465250585+465412573+465838627+466236715+466412238
2669+466434262+466463703+466689082+467179913+467777916+468283311+468691898
2656+468903026+468797953+468833201+469349764+469941692+470219072+470227560
2642+470269508+470557699+470898426+471033252+471216906+471868965+472772180
2629+473475211+473902918+474181951+474581067+475234466+475853376+476158007
2615+476329376+476647007+477095934+477554868+477866289+478081170+478446780
2602+478922869+479355401+479758671+480262145+480900757+481538833+482107485
2588+482474034+482441512+482234091+482403315+483090979+483909046+484500438
2575+484852869+485197662+485546028+485769799+486016488+486349397+486675471
2561+486955799+487194179+487533789+488054820+488689858+489297511+489807909
2548+490406627+490985466+491252079+491572435+492230078+492725644+492842109
2534+493032330+493448020+493819304+494172048+494565401+494784883+494910149
2521+495087861+495279690+495593702+496004344+496429326+496877449+497168588
2507+497257846+497334507+497429036+497487604+497645079+498072607+498664401
2494+499081520+499110558+498975375+499028135+499247215+499435515+499556626
2480+499615774+499564265+499578338+499965481+500493168+500659756+500550752
2467+500508312+500560044+500646667+500678653+500472260+500120812+499891814
2453+499783882+499730720+499686314+499579991+499569805+499693149+499719105
2440+499697929+499666256+499358140+498805481+498352354+498095748+497727457
2426+497146430+496760716+496758393+496910061+496890404+496551330+496052547
2413+495552781+495176181+494983414+494841262+494602435+494247547+493744698
2399+493128691+492863195+493513199+495688724+500410789+508904485+522138072
2386+539971720+561024294+583360928+604885660+624198368+641870878+659686746
2372+677913077+695754766+713251931+730183972+744453142+753252229+756479822
2359+754427596+745504049+730893437+713472352+695762226+685050208+688219144
2345+699755037+701929892+692332306+682599224+675729734+672332648+675304573
2332+681236718+681468530+677075845+676596942+680834877+682787927+677446995
2318+665860755+654343491+650873185+654894497+656575260+650293855+637898170
2305+623082059+610524030+602052849+594917773+586807869+577465996+567030330
2291+556467209+546979208+538679664+531325686+525012429+519703931+515348860
2278+512047779+509389598+506649620+503844730+501553500+499890071+498549813
2264+497390885+496341051+495441454+494785464+494146897+493437432+492836882
2251+492370264+492095297+492015867+491964001+491916110+491854192+491757786
2237+491838289+492077025+492182500+492321346+492815975+493449941+493948947
2224+494435311+495013613+495523877+495863130+496326889+497243283+498293072
2210+499029252+499597681+500082839+500321486+500608605+501304087+502284364
2197+503395178+504498219+505277866+505677339+506137792+507009780+507981793
2183+508712522+509409210+510229332+511006745+511722062+512512252+513251693
2170+513868594+514520876+515221182+516059263+516955732+517474261+517673506
2156+517983632+518372517+518540848+518509085+518499525+518437428+518144323
2143+517795555+517518533+517180352+516687377+515904558+514846280+513753380
2129+512716635+511744622+510877638+509873996+508312960+506351824+504681694
2116+503460804+502019984+500083241+498213776+496663372+495232425+493788479
2102+492268319+490719388+489185424+487681615+486351139+485345175+484378746
2089+482959683+481146329+479369339+477877010+476625831+475508539+474391382
2075+473164416+472025323+471125369+470378200+469795832+469117058+467895141
2062+466570518+465770097+465235530+464648695+464126637+463785597+463473193
2048+463171422+463158377+463550792+464208167+464648427+464729376+464892882
2035+465306785+465946112+466703690+467451530+468168991+468849016+469535473
2021+470280096+471054427+471297587+470583208+469540611+468719417+468049488
2008+467291374+466195034+464729600+463155652+461773355+460636854+459833976
1994+459420967+458563274+456592400+454207221+452003418+450154057+448638632
1981+447189280+445787728+444526051+443374941+442275429+441452806+441019604
1967+440246837+438733154+437289252+436376700+435638868+434920066+434231911
1954+433463790+432729576+432094404+431536607+431416523+431744652+431565376
1940+430663278+429903690+429538303+429410625+429261682+428981622+428827274
1927+429084864+429840521+430530418+430589120+430284713+430002195+429970924
1913+430162351+430521662+430888881+430873067+430698749+430835630+431132979
1900+431435242+431866791+432088060+431849100+431617958+431405936+431160810
1886+431248371+431393204+431668618+432362536+432682936+432275243+432095967
1873+433045107+434667659+435196508+434600202+434986005+436236023+437055653
1859+437046137+436843497+437020629+437559618+438744903+440730252+442386444
1846+442828089+442455867+441882523+441322582+440873789+440920696+441457452
1832+441194770+439121772+437212324+436958800+436473464+435061682+433996435
1819+433574223+432475248+430478776+428696782+426763836+424526572+422712726
1805+421963636+422473141+421697916+418417161+415963408+414824896+413126354
1792+410698288+408821943+408268748+408322178+407574115+406091257+404801569
1778+403698707+402461734+400509265+398079234+398166884+399923949+399994132
1765+399141220+398561934+398181582+398308232+398112873+397797968+398885462
1751+400211693+399387730+398080842+398117117+397952628+396666202+395578126
1738+396021335+397087788+397460949+397815390+398131234+397766339+397921089
1724+398893727+399705360+400038225+400024242+400256993+400951000+401458226
1711+401935923+402309262+402206021+402387486+403354629+403195948+401641255
1697+401709293+403106779+405216008+407803202+410195663+411553121+411181346
1684+410877206+413709213+416182265+416892936+416993541+417654714+418820387
1670+419874555+421678930+424452458+426780946+428576297+430986270+433920535
1657+436374467+436814682+434626470+435960072+438980915+440679100+442811738
1643+446186889+449051998+450655699+450598248+450041032+452712257+456652844
1630+459440623+461260813+463024981+464903961+467439423+470108683+471240896
1616+471963316+475229641+479175231+481927718+483955596+486319466+489061231
1603+491801790+494400778+497096797+499933986+502797979+505999125+509515623
1589+512999599+516582706+520634039+524842133+528521601+531554193+534064548
1576+537268285+541986643+546310665+550087433+554871952+560639921+566337663
1562+571134333+574391724+578362957+586545321+595488838+604182405+612193892
1549+619394371+626506395+633555877+637203314+637547660+645703309+657598692
1535+666524429+674047944+681273217+687944311+694442160+700566090+705503215
1522+710490822+717247735+725702475+734968179+744039240+753296277+761972376
1508+766003562+765066841+770824669+779522033+786058078+789922005+794524747
1495+802104640+809622973+815450492+820071908+825670697+832515706+839415039
1481+845464051+850167934+854119957+857202897+858621022+861127758+867063656
1468+872854632+876213387+879766741+885492404+889981763+890008210+890832978
1454+898690028+907433585+914282436+919364260+924771845+931081215+936991202
1441+942161212+945711171+947549319+951476951+957745132+963136545+967841322
1427+972967552+977776419+981900257+984923780+986068770+986818396+990590920
1414+996631801+1001395101+1002888367+1003160967+1004107605+1005635896
1402+1007408373+1007647914+1005743828+1004435868+1005581036+1008840616
1391+1010549835+1007145960+1001095250+1000137891+1004496356+1008516462
1379+1010120431+1010337813+1010270088+1011696701+1013712204+1013900281
1368+1013064434+1012110827+1010348714+1010358899+1013747497+1016413451
1356+1015398283+1012143707+1010204685+1010803940+1012928000+1014499357
1344+1013862398+1010791967+1006290009+1003797837+1004269949+1005359812
1333+1006231397+1006413577+1006604334+1007386305+1007974122+1009067648
1321+1011305359+1013334175+1014275094+1015043126+1016613679+1018796083
1310+1022445665+1030016802+1039029295+1043197540+1042931373+1042670925
1298+1043511686+1045018265+1046914936+1048798026+1050838368+1053146753
1287+1055416272+1058052115+1060776056+1062480897+1063500443+1064159828
1275+1064139725+1063947806+1063931813+1063278146+1061161680+1058677995
1263+1057545782+1056904177+1055603544+1055540733+1057556325+1059100699
1252+1058981330+1059209078+1061145776+1063407611+1064641680+1065736099
1240+1067020739+1066985268+1065789350+1065254783+1065566160+1065883344
1229+1065551149+1064828238+1064980307+1065732078+1066467052+1066962305
1217+1066265662+1065897997+1067644742+1069289900+1069268903+1069772109
1205+1071748210+1073209669+1073196356+1072218357+1070864115+1069750397
1194+1069549812+1070753414+1072083353+1072471211+1072649191+1072173683
1182+1070943188+1070689173+1071848726+1073227985+1073741823+1072958334
1171+1071191664+1069669538+1069129074+1068336025+1066457581+1064887118
1159+1065121477+1066486261+1066951048+1065817316+1063529034+1060236843
1148+1056444931+1053436686+1051720051+1049996625+1047675284+1045537196
1136+1043280812+1040923911+1039097825+1036596896+1032971528+1029526999
1124+1026385894+1023183676+1019489599+1014830211+1009470784+1003447683
1113+997540824+993209788+990290087+987623508+984438355+980548607+976460507
1099+972446834+968511697+965313142+962655140+960001427+958332414+957454306
1086+955805038+953546063+951607398+949602170+946637080+943349893+941265324
1072+940404727+939907240+939290920+938249842+937297754+937033642+936732094
1059+935508925+933519869+931501507+929758424+928023830+925959364+923698959
1045+921820604+920038924+918467567+918794490+920674721+921213398+919944394
1032+919262403+919666433+920220031+921520754+922968542+922227940+919755066
1018+918102404+918093290+919349964+921411481+922981944+923012948+922284229
1005+922033609+922237232+922537619+923152956+923596477+922934858+922522072
991+923968342+925146926+924361114+923168860+922212751+921417557+921113328
978+920479943+918952903+916956967+914288422+911126679+908595640+906494184
964+904519780+903841007+904312315+904269786+903527933+903031696+902336572
951+900866446+900162476+901622506+904087338+905818180+907008469+908588313
937+910634641+912972957+915638465+918558166+921566500+924573761+927315661
924+929481893+931044762+932887913+935412698+937123705+937842864+938585342
910+938906726+938597136+938584627+938801563+937652643+935567716+934250375
897+933363689+932871116+932773727+931432977+929104489+928116036+928519798
883+928932674+929327501+930157540+931212110+931543947+931151443+930842568
870+931251512+933878957+939010637+944505068+948853169+953086012+958458751
856+964031451+968367937+971200703+972853097+973920444+975345538+976854530
843+977842983+979415858+981709590+984207749+987029703+988627417+987876897
829+987010315+988107414+990772385+994799193+999698926+1003621643+1005059604
816+1005212745+1007545790+1011563037+1014032694+1015497370+1017498309
804+1019731642+1021399136+1021929682+1022250440+1023854319+1027180641
793+1031953054+1035407858+1034645902+1032904338+1035075842+1040292492
781+1044967337+1047177261+1046824427+1046854091+1048828762+1050316668
770+1052075297+1055729614+1058430771+1058069449+1057458937+1058968196
758+1059850057+1059938601+1060532405+1058022363+1053078402+1050877056
746+1052555808+1055529207+1056624787+1054336327+1050076501+1047538583
735+1047254010+1046079089+1045086438+1046235448+1045704544+1042307906
723+1039985851+1037726965+1033443730+1032200100+1036382730+1040952592
712+1042865881+1042222132+1040083418+1038385367+1035992549+1032039989
700+1029343747+1029879207+1031718338+1032223063+1032378885+1032714475
689+1032337160+1032676859+1034105885+1034481413+1033651016+1034790556
677+1037986609+1039947699+1041696589+1043588525+1039615148+1031275174
665+1032386122+1039456466+1044868787+1048919629+1051043957+1048465296
654+1045895123+1047639992+1046244919+1034131706+1020630658+1018620068
642+1023779893+1023938127+1017054073+996744201+961852710+946067132+968262060
629+994687151+1002351567+1010508646+1009712469+986377645+970446788+975561134
615+983104752+987912726+997179591+1005405826+1007755668+1002652668+992916996
602+986052777+982578942
##END=
