##TITLE=Sample description
##JCAMP-DX=4.24
##DATA TYPE=INFRARED SPECTRUM
##DATE=24/8/2023
##SAMPLING PROCEDURE=Instrument type and / or accessory
##ORIGIN=Default
##XUNITS=1/CM
##YUNITS=ABSORBANCE
##RESOLUTION=4
##FIRSTX=4397.6552
##LASTX=599.8556
##DELTAX=-1.9287962
##MAXY=1.4401366
##MINY=0.53582627
##XFACTOR=1
##YFACTOR=1.3412317e-009
##NPOINTS=1970
##FIRSTY=0.67493552
##XYDATA=(X++(Y..Y))
4398+503220680+503031232+501964888+501474224+501714734+501760819+501818902
4384+501730555+500837129+499156266+497916072+498492195+499771541+500179013
4371+500491028+501089460+500662434+499453749+499014190+499194573+499020056
4357+498576543+498824830+499412464+498938597+498035928+497809193+497967667
4344+498380339+499247546+499722745+498678222+497195029+496663302+496389506
4330+495672907+494827298+494364498+494567368+495108961+495845291+497300131
4317+498616006+498210222+496821376+496185481+496652636+497156189+496808399
4303+496274717+496286093+496781335+497462426+497134324+495446884+494539637
4290+494994127+495003060+494357921+493737046+493313442+493339351+493475915
4276+493713049+494386985+494219312+492560136+491335718+491665332+492444902
4263+492697456+492561469+492363976+492365532+492582089+492617330+492649860
4249+492627551+491938595+491033169+490785815+491080587+491030770+490697957
4236+490880428+491269014+491330919+491276346+491256748+490701245+489712583
4222+490219024+492730120+494309348+492968764+490759373+489832928+489872435
4209+490044641+490013088+489753202+489565620+489710673+489433632+488067717
4195+486798149+486342503+485917521+485370551+485348553+486354591+487613005
4182+487977326+488095181+488240856+487848627+487703396+487761924+487253572
4168+486768240+486376811+485727139+485287847+485130440+484934770+485007207
4155+485646214+486152788+485850594+485141595+484543163+484502900+485195278
4141+485412458+484536719+483867182+484067874+484430151+484478858+484606401
4128+485047070+485320422+484964411+484085384+483439312+483197068+482830569
4114+482722446+483133207+483046371+482065709+481122243+480755388+480925728
4101+481428880+481689122+481624195+481455189+481086424+480783741+480998921
4087+481542603+481690011+481240142+480464749+479342011+478324952+478302643
4074+479378763+480815872+481591176+481247475+480380935+479813344+479527060
4060+478999910+478395568+478004849+477709677+477725942+477978407+477891127
4047+477574712+477914636+478837748+478752378+477315981+476315898+476784654
4033+477575334+477689190+477620975+477291717+476344251+475810257+476361761
4020+477233856+477566535+476992723+475868074+475293551+475273019+475028598
4006+475011444+475154186+474548333+473720056+473629353+473979187+474426522
3993+475461624+476287768+475551837+474427944+474317821+474760268+475120812
3979+475884250+477333668+477847131+476968814+476050323+474783688+473205082
3966+473119535+474805686+475923358+475300883+474440121+473915593+473608244
3952+474447453+476064589+476256971+475773727+476062856+475170051+473584957
3939+473057452+473003012+474081310+475391008+474193344+472390715+472451909
3925+473326315+474102908+475316171+476175023+474728404+471647808+469610445
3912+469033344+470034183+473772584+478596482+479679002+476226885+472272815
3898+470405792+471007379+472001596+470707230+468952330+470516804+472547722
3885+472172869+471784372+470432545+468399582+468813721+469664529+469930904
3871+469333805+467302575+467701026+468846784+467304353+466277161+467669252
3858+470179591+471236336+466158417+461282702+462863796+465694328+467672185
3844+468341321+468385539+467898919+465035812+462653016+463201809+464012532
3831+464697489+465936749+466669880+467362925+467377679+464299216+463065155
3817+463707005+462196882+462267897+464699089+466442257+465357382+464406805
3804+465419021+463751090+462118711+463306243+463401479+463537732+465004615
3790+466380129+467324307+467455850+466806178+466755205+466039895+463799841
3777+463110439+464400939+465761832+465618068+465166156+466335245+467025979
3763+467033579+467415587+467341594+467924605+470462631+472977948+471665895
3750+469246213+472014928+474675298+473459191+475427538+481514205+487491639
3736+488743698+483254707+479297838+481598642+486362768+488918970+487835073
3723+484851933+481122731+478605548+479175094+482195074+484528142+484028056
3709+484776163+488639396+493955559+499300074+504102419+509270595+514938636
3696+520682269+526270717+530248651+530029649+528423668+529958100+532401335
3682+533539583+533451947+532941862+529325494+524792190+526337599+527868876
3669+526282049+526767781+528562499+529927525+532295079+536281767+539659980
3655+542888385+548709300+555250280+557218582+554378362+553407477+554599586
3642+555502567+555159311+554707665+554716375+555548118+557550106+556402170
3628+549095841+545816463+547500615+549694051+549412922+545884146+543711774
3615+542981399+541470920+540726679+539904935+537340556+535862340+536321408
3601+536817805+536932817+537238077+536637156+534999622+535232356+537276562
3588+535781281+530140927+526777024+526067403+525663085+525081141+524819521
3574+524696510+525368713+528451043+531645851+528129340+521995033+520409317
3561+520735331+520075171+519714361+520664582+521077076+520477933+521917441
3547+525007636+524678068+520782837+518717211+520429271+522881305+522800024
3534+521343673+520929845+521939839+524311436+526671434+525682772+521853624
3520+519920830+520767016+521280612+520571346+521016637+522704255+522836953
3507+522593865+524183404+525100205+523572884+521513123+520047485+519451008
3493+519976602+520704578+520629252+520190804+520448913+521450863+521308787
3480+519627391+519101974+520088059+520616008+520391896+520268041+520698490
3466+521396557+521790119+522028586+522304248+521921662+520517973+518947100
3453+518460391+519699606+521223595+520863718+519386036+518573713+518696813
3439+519029092+518411995+517350807+517153892+517484750+517565631+517230952
3426+516707446+516583458+516952845+516886362+516333748+516659806+517672465
3412+517884667+517324587+516723711+516326637+516489822+517186511+517901599
3399+518328403+518467857+518756718+518594956+516693492+514415041+513898201
3385+514880641+515607328+515100709+514707547+515477429+516121146+515797310
3372+515016184+514211327+513644492+513817986+514912194+515689720+515138128
3358+514174708+513631871+513314523+512907095+512523665+512864566+513585475
3345+513335277+512302352+511881103+512129747+512006603+511623261+511376085
3331+510901863+510501856+510423375+510104161+509688778+509875116+510346405
3318+510258102+509736107+509357298+508768954+507655815+506894065+506964325
3304+507383530+507804290+508040445+507768693+507244876+507278873+507310337
3291+506239372+504817329+504624903+505717510+506328874+505472156+504153525
3277+503678637+504156814+504521313+504281469+503957233+503665838+503104069
3264+502432533+501845788+501481467+501523997+501377699+500403836+499184041
3250+498952018+499798072+500478674+500115864+499131601+498408470+498116942
3237+498296658+498693554+498536324+497928204+497581659+497683205+497530864
3223+496579221+495632467+495428486+495362403+494989994+494205357+493382547
3210+493600970+493749312+492705144+492025431+492552092+493156168+492558536
3196+491646622+492231500+493589371+493305265+491752123+491449485+492428015
3183+493333262+493399612+493512979+494808411+494967907+492150397+489938651
3169+492262075+495926572+495189086+491323231+490794125+494637183+496233654
3156+492923257+489838083+492002722+496694055+496190147+491363271+491359938
3142+498768614+503108380+497390744+490996551+493703894+501297929+501310461
3129+493439430+490721910+498952507+506148136+499867887+489286624+489449586
3115+500164703+505044196+495844846+487272593+491515079+501512442+500771135
3102+489755513+484917172+492703678+501937824+497865277+486735577+485001875
3088+495790274+504502914+497287421+485154571+483313724+490807280+494572878
3075+487900533+481490119+484248613+492533338+494552613+486943690+480484925
3061+482185608+488814402+489895766+482934026+477169951+477195593+480341472
3047+480869911+477654838+475138765+475127789+476155336+476207686+474919586
3034+474024204+474807330+476187910+475869363+474192589+474314221+482277911
3020+513006552+572110814+619047830+608428392+569014752+537533515+518296673
3007+505478911+495711703+488812669+484764608+482045266+478969424+476085476
2993+475414250+479002310+483433490+481700854+476288790+474560687+478766421
2980+484796694+484237547+477786870+474017938+475931624+481766315+484789939
2966+480261835+474332131+474406035+482982599+491452596+487363251+477289673
2953+473398308+478448007+487765613+488928658+479970352+472701263+474073400
2939+482702182+487751836+482023979+474702896+473888795+480257569+487851827
2926+485303890+475301372+470210433+474024116+482325417+484160043+476312787
2912+468949930+468498551+473994430+478851213+476367271+470638659+468912067
2899+472603761+477919746+477968764+472543056+468450066+468945753+472836006
2885+475594589+473281608+468963307+467496779+469688616+472603984+472320099
2872+469214349+466784047+466703254+468506194+469956324+468927577+466638994
2858+465738901+466663702+467488513+466405594+464319880+463142970+463181055
2845+463826460+464209091+463927740+463461117+463303043+463687229+464406850
2831+464917335+464915513+464627007+464597898+464850852+464889782+464475243
2818+463830105+463545954+463892454+464300282+464190204+463769888+463520401
2804+463477160+463624702+463936406+463940894+463583595+463468805+463671186
2791+463612214+463058267+462530317+462525739+462780560+463005249+463284645
2777+463416099+463401656+463531555+463636390+463619769+463603904+463528666
2764+463509202+463821928+464239355+464214646+463954626+464064171+464266863
2750+463905164+463290422+463351750+464256064+465147269+465142602+464502707
2737+464295705+464720420+465017592+464966308+465073942+465412754+465565496
2723+465576161+465657976+465663264+465655798+465886843+466291338+466505229
2710+466270273+465873200+465723614+465881821+466219611+466589265+466888881
2696+467053043+467208140+467389678+467410076+467404166+467595659+467949892
2683+468297636+468446067+468448200+468558278+468848473+469028945+468953930
2669+469021212+469445794+469741500+469475791+469030278+469069652+469640620
2656+470306957+470843217+471335126+471770552+472166647+472720639+473340092
2642+473795204+474083488+474268181+474514158+474913187+475433049+476155025
2629+476923974+477391574+477544671+477624530+477825666+478183143+478620080
2615+479081058+479460533+479597276+479652115+479964441+480461416+480836847
2602+481085446+481481008+482039267+482501623+482856878+483270217+483788967
2588+484180886+484301408+484512588+485068268+485736383+486196428+486523686
2575+487009506+487579364+488101581+488621309+489063978+489337152+489552421
2561+489811818+489988691+490169385+490641740+491236128+491580717+491823939
2548+492286606+492809045+493253937+493726247+494161450+494658559+495274945
2534+495659753+495825782+496070647+496395283+496851329+497309552+497379945
2521+497240536+497408609+497948914+498522637+498867404+499043965+499246390
2507+499514943+499665817+499597691+499568982+499783317+500001652+500056403
2494+500206477+500590707+500993158+501196383+501194428+501206427+501346680
2480+501486267+501761130+502348274+502799920+502746236+502533812+502476529
2467+502545500+502707662+502852049+502787655+502439510+502086877+502145360
2453+502387382+502354274+502152426+501988619+501894495+501830901+501657051
2440+501346947+501044620+500840284+500549200+500040626+499689815+499686838
2426+499659462+499488145+499386288+499363802+499201995+498797500+498365674
2413+498095788+497850078+497392477+496776447+496296848+496050338+495802406
2399+495422086+495244192+495814627+497937048+502801298+511507139+524729752
2386+542355147+563255343+585434217+606568880+625435313+642916100+660825157
2372+679817001+699105305+716899395+731913349+744476158+753854646+758649836
2359+757918261+749207354+733230024+714777952+697372758+687020895+689427111
2345+699424430+701709591+694055828+685154450+677935757+674686909+677832789
2332+683747117+684599925+680225095+678451352+681278640+682094340+676289646
2318+665725848+655734929+652739702+656497656+658194251+651837298+638700277
2305+622904353+609791108+601581575+595192536+587594101+578528339+568422320
2291+558109920+548671659+540289876+532804053+526418258+521215418+517061412
2278+513724306+510771653+507967919+505541127+503682548+502232463+500927298
2264+499665151+498560056+497638587+496781735+496101089+495631933+495101361
2251+494530038+494114433+493781486+493607592+493771843+494000932+494018175
2237+494032885+494275173+494686512+495123848+495513989+495769387+495835158
2224+495961902+496416881+497049799+497704626+498541968+499530408+500273138
2210+500717407+501314106+502145938+502816274+503225258+503631130+504331953
2197+505391408+506464595+507346245+508105817+508772998+509550569+510490658
2183+511220899+511688411+512306796+513171070+513949618+514515876+515126351
2170+516026444+517088432+518012789+518634152+518879240+518910392+519073666
2156+519518646+520114723+520531794+520477133+520109079+519807374+519618636
2143+519544288+519609126+519520557+518987585+518038386+517058346+516261266
2129+515365084+514338026+513288170+511941409+510281833+508609103+507020720
2116+505633918+504408345+502965638+501227180+499482279+497888164+496332222
2102+494769348+493251092+491647733+490026020+488681437+487566076+486373389
2089+485013296+483618539+482191119+480692461+479294283+478088975+476909042
2075+475755951+474787732+473855021+472950928+472400403+471896628+470803532
2062+469425263+468389628+467712803+467159033+466607352+466139663+465943237
2048+466029452+466245964+466717520+467418342+467690361+467553218+467634944
2035+468036550+468779591+469753721+470606040+471264955+471886541+472528213
2021+473295918+474332175+474892744+474163436+472899822+472018617+471462403
2008+470770069+469567427+468042016+466608508+465239038+463706872+462320070
1994+461635690+460960999+459223519+456946224+454849134+453108677+451764671
1981+450569362+449358544+448113328+446862336+445628231+444597795+444007362
1967+443334493+442120563+440899968+439907351+438983572+438215022+437453361
1954+436563846+435807740+435259347+434881650+434984529+435439775+435184065
1940+434099590+433241050+432902193+432823223+432634841+432230346+431960104
1927+432263231+433285046+434213313+434270063+433892188+433517735+433361527
1913+433511335+433844059+434160918+434125588+433902009+434056750+434518884
1900+434935956+435418132+435784764+435685662+435545809+435431375+435053456
1886+434819256+434802368+435098474+435918307+436384485+436037762+435976124
1873+437097217+438775592+439262745+438464021+438508372+439606402+440594975
1859+440732517+440363174+440248474+440615150+441807348+443917859+445724933
1846+446356517+446128183+445442159+444695164+444230408+444329820+444823729
1832+444572642+442643891+440861216+440742649+440346331+438854651+437751066
1819+437395856+436314447+434239355+432287007+430231202+428069140+426261489
1805+425303002+425759626+425233853+422082108+419540838+418256160+416417889
1792+414148905+412553989+412014085+411994042+411263045+409862333+408585788
1778+407326618+406021320+404371298+402348824+402392108+403836860+403598616
1765+402537917+401983125+401760657+401997835+401937263+401791454+402976808
1751+404266864+403326286+401930374+401959483+401869314+400624143+399503138
1738+399914121+401037081+401357407+401367094+401476951+400997752+401042947
1724+402053341+403063734+403798064+404342501+404574479+404647139+404735264
1711+405032569+405423954+405574695+406077003+407352349+407593437+406291072
1697+406257386+407252048+408923400+411368102+413823513+415305817+415179918
1684+415030954+417682881+420036124+420758856+420870978+421367109+422605880
1670+424264923+426209183+428480879+430522152+432248610+434443202+437029579
1657+439340205+440350731+439484902+441113681+443933280+445510597+447258920
1643+450132826+452779686+454741722+455559867+455221676+456930003+460303683
1630+463098307+465036346+466853640+468735684+471004980+473354801+474427277
1616+475132899+478300910+482228582+485032272+487122296+489412567+492010321
1603+494768148+497414786+499960989+502603094+505378165+508504313+512011758
1589+515656834+519362527+523231183+527200584+531024488+534338796+536822205
1576+539741884+544378244+548929146+553034756+557695648+562758190+567920278
1562+572853099+576780016+581735146+589863397+597891169+605919741+613912672
1549+621302905+628546929+635845081+640077969+640985172+648733504+660194728
1535+669067753+676370305+683183704+689772590+696536082+702537424+706896566
1522+712420842+720742897+729925804+738707638+746450726+754558046+763048175
1508+768128137+768056144+772601580+780104779+786388983+790811053+795774227
1495+802750187+809486438+814979606+819947223+826244582+832762453+838147097
1481+843214706+848449321+853343879+856794040+858328206+861468975+868095813
1468+874455477+878381060+882311709+888375668+893379193+894484333+896655416
1454+904270338+911390641+916629966+921362229+926440058+931041577+935226692
1441+939785281+943695577+946319862+950378410+956382196+962107431+967319382
1427+972625456+977717240+982359111+985930328+987322285+988676912+993190262
1414+998228628+1001248075+1002751044+1003612384+1003511683+1003938665
1402+1006762752+1008887795+1007780789+1005663034+1004856533+1006663117
1391+1008783361+1007410158+1002989955+1000754433+1002338639+1005651036
1379+1008920325+1010506486+1010528973+1011765034+1014395540+1015534098
1368+1015878866+1017031734+1016180526+1013706361+1014976551+1018374540
1356+1018754060+1017051643+1016286294+1014498197+1011805296+1010579457
1344+1010273530+1009198255+1006176319+1003031995+1001468943+1001323713
1333+1002943559+1005624816+1008496899+1009789665+1008902638+1008422062
1321+1009267848+1011090964+1013865723+1016088446+1017478714+1019298008
1310+1022397092+1028597126+1037150982+1042960564+1043785108+1042637217
1298+1042497408+1043230761+1044677557+1047765975+1051665872+1054546577
1287+1056214152+1057926523+1059152362+1059176182+1059981083+1061700743
1275+1062267622+1061912545+1061746516+1061577732+1061320956+1060722702
1263+1059471443+1059106411+1060426997+1061748027+1061661813+1060424330
1252+1059489663+1059446023+1059262129+1059572411+1062378545+1065389637
1240+1065148860+1063523681+1062784906+1063052526+1065097309+1068006634
1229+1069002539+1067976236+1066550594+1064791383+1063176780+1062859477
1217+1063666156+1064814314+1065823285+1066964688+1068364288+1069312021
1205+1070101102+1071664864+1073259913+1073619435+1073001893+1072147219
1194+1071608692+1072162328+1073184454+1072909280+1072266141+1073103661
1182+1073741823+1072637306+1071587005+1071344539+1070738908+1070847609
1171+1072229522+1071780053+1069484449+1069037558+1070277707+1070593055
1159+1069491559+1067290701+1064543851+1061910856+1059879315+1059262929
1148+1058886609+1057427192+1056016482+1054592972+1052339408+1049879286
1136+1047697982+1044892025+1040355122+1035292225+1031580754+1028638989
1124+1025258421+1022129028+1019536919+1016017430+1011237261+1005948074
1113+1000374647+995399030+991848611+988820276+985489836+981751435+977567921
1099+973775658+971326913+970117072+968076643+963759986+959658508+957820816
1086+957200163+956496141+955113695+953224807+951334231+949032671+945856261
1072+942792374+941335534+941003388+939512152+937281163+936774545+936785210
1059+935089549+932974727+931710047+930370530+928659848+927322908+926351355
1045+925554809+925006683+924103035+922513586+921253261+920885118+920724511
1032+920000313+918627110+918102093+919371839+921108119+922452525+923111307
1018+922527896+921598028+921371117+921501238+922119579+923656144+925147736
1005+925737636+925674708+925056456+924114856+923811774+924544060+925850158
991+926868551+926826777+926390907+926093424+925048990+922912304+920475824
978+918514854+916671384+914705793+913017775+911219457+908937007+906737838
964+905505066+904709585+903299586+901926738+901016513+900245209+900363775
951+902080679+904083334+905203939+906509059+908152637+909170229+910113340
937+911834421+913911202+915791023+918101027+921176024+924128277+926165417
924+927565107+929444484+932129385+934892234+937217347+938845815+939529572
910+939582101+939621564+939332702+938016116+936431200+935759885+935600256
897+935623276+936103853+936260194+935469069+934336998+933700970+933283587
883+932446066+932133563+933083695+934075956+934558399+935784683+937713122
870+939715066+942467427+945155439+947009485+949809842+954596588+960180325
856+964300912+965947778+967490921+970965791+974362980+976378611+978401353
843+979980314+980597234+981690552+983216718+984428337+986247098+988391517
829+989320584+990510605+993528185+997132377+1000779675+1004632999+1008219947
816+1010580257+1011391913+1012100735+1013828749+1016922856+1021244312
804+1025871962+1029238577+1028677208+1025607721+1026108651+1030628400
793+1034113848+1035654857+1037704351+1040230245+1041729481+1041921818
781+1042829999+1046766870+1051824701+1054693674+1056499814+1058988644
770+1060959124+1062135190+1063424135+1063805521+1062783840+1062044621
758+1061766070+1059855051+1056310232+1054994356+1058015137+1062907295
746+1066306439+1065470696+1061157239+1057743785+1056380003+1055206781
735+1054501248+1055784059+1058011226+1058373414+1056793208+1054474317
723+1051493088+1048701531+1045418376+1041251126+1039270336+1039498670
712+1040374676+1043380791+1047589459+1048966839+1045541475+1039963426
700+1036166186+1035231786+1037892600+1043202230+1045408154+1042783425
689+1041651533+1042316181+1039454497+1038161197+1043080020+1045382290
677+1039869480+1034078829+1033618606+1033788901+1028446740+1025795347
665+1034024345+1041617936+1043089796+1039307755+1033187002+1034128513
654+1045257413+1054468006+1053528718+1046668035+1041198687+1043082597
642+1051520464+1055403029+1044628139+1030098228+1031147640+1043102329
631+1047456227+1049850666+1061204079+1064764630+1048098299+1030548052
619+1024309799+1017217228+1004756365+1000359715+1006050020+1015974679
608+1030837892+1037725238+1026680775+1018320590+1026725037
##END=
