##TITLE=Sample description
##JCAMP-DX=4.24
##DATA TYPE=INFRARED SPECTRUM
##DATE=24/8/2023
##SAMPLING PROCEDURE=Instrument type and / or accessory
##ORIGIN=Default
##XUNITS=1/CM
##YUNITS=ABSORBANCE
##RESOLUTION=4
##FIRSTX=4397.6552
##LASTX=599.8556
##DELTAX=-1.9287962
##MAXY=1.3539382
##MINY=0.30715293
##XFACTOR=1
##YFACTOR=1.2609532e-009
##NPOINTS=1970
##FIRSTY=0.56968081
##XYDATA=(X++(Y..Y))
4398+451785836+452129249+451396855+450105736+449588465+450341705+451689501
4384+452142579+451201868+450414878+450317645+449962745+449189511+448412731
4371+448049985+448129870+448092385+447972888+448610412+449343184+448414007
4357+446959902+447246356+447925997+447347087+447017571+447222154+446639793
4344+445945688+445950556+446222498+446359438+446236490+446303140+447072026
4330+447813022+447230426+445851952+445206251+445447231+445836542+445483203
4317+444623039+444604463+445356804+445832572+445561670+444653623+443624849
4303+442908716+442691796+442987656+443607548+443842194+443218000+442456252
4290+442335904+442957215+443517027+443059742+442306077+442305084+442605246
4276+442625713+442593901+442385017+441393870+439980322+439648632+440949017
4263+442352496+442777023+442824907+442789739+442160251+440961685+440174033
4249+439986089+439748040+439865127+440571286+440880239+440411751+439798760
4236+439452417+439535894+439931966+439796586+439042590+438851385+439397017
4222+439475531+438803642+438395423+438596129+439005247+439412048+439358870
4209+438710427+438280794+438420429+438463444+437855416+436790292+435855490
4195+435479509+435839939+436633546+437219405+437549393+437635329+437048147
4182+436303889+436337214+436661294+436276236+435288020+434671862+434691809
4168+434532747+434023655+433544862+433438175+434278437+435282064+435388987
4155+435368000+435396220+434675407+433669984+433343399+433725479+434031360
4141+433663745+433100718+433220499+433744434+433659490+433260489+433343541
4128+433421063+432905211+432089717+431726262+432057905+432349369+432214981
4114+431933681+431728295+431757460+431933161+431900781+431523948+431365028
4101+431855828+432318738+431997305+431057493+430104729+429664602+429737208
4087+429588735+429076239+429033838+429638982+430101798+429666446+428702857
4074+428294684+428445947+428476105+428255356+427724898+426827297+426359991
4060+427095646+428180670+428426803+428018630+427347734+426565991+426250183
4047+426183675+426001451+426558097+427713269+428231343+427840897+427155253
4033+427041333+427484674+427295691+426181406+425349463+425383875+425609303
4020+425650664+425863046+426392039+426865727+427174633+427171844+426249758
4006+424971874+424547252+424632952+424469399+424224496+424143334+424269496
3993+424470250+424404971+424047850+423661941+423574304+423834948+423880137
3979+423469696+423089555+423039496+423222193+423476030+423444171+422725154
3966+421881724+421839560+422263851+422552809+422753421+422531018+421838378
3952+421478893+421310047+420851627+421059471+421338645+420336106+419765326
3939+420642223+421507633+421145927+419430185+418198153+418747188+419454435
3925+419382254+419608628+420181723+419950103+418948745+418559954+419473910
3912+420901827+422086259+422360092+420728773+417825102+415626360+414610444
3898+415772423+418967133+421382936+420431543+418601598+419258313+419110833
3885+417235840+416919371+416596142+416771512+418576971+419020548+417763179
3871+415593272+414025248+415684927+416821570+415955073+416738234+418668768
3858+419856273+418346343+411343601+408757249+413828323+418442962+420313747
3844+419734979+417673367+414830720+412112959+411916696+413326982+414476340
3831+415807119+417054798+417586674+418320203+417573439+413996413+414020001
3817+415895229+415645221+416840194+419387407+420374536+418344783+416862222
3804+417417780+415813311+414800609+416546225+418042589+419550723+421050395
3790+421696806+421734007+421016645+420127127+420034053+419243140+418099360
3777+419194641+421271191+422012944+420744940+419213124+418717645+418706206
3763+419605555+419589389+417136716+416184661+417861878+417974474+413356951
3750+409828707+412820773+415882372+415028827+415544679+418207276+418440551
3736+413610316+409382531+411595973+416138526+418641068+417868543+416101325
3723+416101986+417465145+419212509+420749997+421359160+419175923+414805525
3709+414417490+417726356+421129099+422379992+421895669+423086766+425999986
3696+428845516+430678675+430186836+426918716+425566383+428272231+431486464
3682+432953331+432781128+431769608+427493655+422882136+423351333+422720900
3669+421103715+423062044+425575695+426869414+427842504+428826608+429534327
3655+431734250+435706969+436788779+429900619+422655053+421873357+422379236
3642+420606535+416622187+412328272+408531490+405203149+402304110+396254487
3628+387292566+384971774+386066253+385412775+381297326+375511372+372798457
3615+371428468+368910350+366219888+363293078+360620601+359437067+358104020
3601+355081465+351718925+349154176+346695972+344825092+343988941+341894878
3588+337233703+334515044+335024727+335184333+333760102+331814891+330307726
3574+329321731+328590638+327247947+323104136+317257299+315731132+317159191
3561+317408916+316480921+315787785+314918900+313345440+312058315+311413346
3547+310303316+308704755+308061819+308581169+309034626+308376540+306862970
3534+305598132+304628469+303339098+302058804+301189376+300241527+299438016
3520+299372548+299251231+298693640+298392013+298099722+297195314+296088026
3507+295276574+294105070+292639384+292339081+292658576+292113889+291104000
3493+290402142+289810375+289187197+288776638+288526157+288008792+287274933
3480+286693683+286177831+285628914+284880543+284037680+283891074+284257342
3466+284025839+283050338+282071836+281495337+281094680+280754127+280592394
3453+280512296+280449901+280246193+279456343+278252341+277258759+276628066
3439+276398974+276817238+277545662+277527605+276685924+275922048+275422481
3426+275035201+274822087+274637027+274473829+274498125+274577963+274612659
3412+274497369+273895652+273106747+273032936+273718911+274299924+274449745
3399+274600038+274907503+275101804+275103388+275076680+275214447+275527301
3385+275679272+275835545+276706935+278081792+279187970+280002920+280937604
3372+282137966+283460094+284471354+285065745+286053299+287735527+289245977
3358+290385314+291991650+294215492+296454979+298361477+299688190+300509333
3345+301200271+301965281+302951158+303837981+304336083+304795354+305247794
3331+305485962+305501324+305248810+304993011+305110523+305376154+305214493
3318+304568035+304187090+304568224+305106482+305252805+305443206+305790614
3304+305575726+305017261+305186036+306054779+306925484+307445732+307397257
3291+307131839+307508128+308681002+309843714+310546588+311214176+311992799
3277+312869743+314004400+314934783+315421871+316165941+317433922+318405287
3264+318613580+318829011+319517609+320269691+320992796+321933034+322960366
3250+323671914+324083182+324372259+324543942+324934719+325500724+325745297
3237+325805092+325955362+326330777+327054024+327710243+328032763+328439092
3223+328989285+329231990+329065034+328706235+328441904+328471117+328686311
3210+328991247+329071061+328655444+328381635+328642894+329041707+329583841
3196+330346416+330870210+331003297+331135463+331487219+331965303+332501244
3183+333172353+333883334+334263948+334395712+334877790+335871041+336741249
3169+336857815+336538581+336413458+336526692+336836071+337447290+338222983
3156+338776603+338831979+338597995+338582018+338899527+339137600+339038169
3142+338873056+338940416+339028644+338771971+338375167+338420616+338908816
3129+339180805+339073337+339049608+339267922+339634852+339972994+340027496
3115+339859878+339637806+339458135+339461042+339545371+339646409+340026669
3102+340600284+341012735+341191862+341112497+340912169+340837814+340919023
3088+341163264+341498807+341799890+342069846+342369606+342768962+343174086
3075+343366662+343386184+343421494+343402918+343117977+342637671+342473292
3061+342768490+342913134+342847453+343097533+343377321+343117433+342666529
3047+342597634+342825639+343107767+343193017+342949887+342831027+343016797
3034+343089261+342923345+342765559+342839607+343000370+342999118+343130905
3020+343571292+343969584+344184023+344109479+343584125+343066926+343131496
3007+343470017+343433335+343222679+343572308+344494016+345454769+346320817
2993+346995944+347292962+347538905+347912594+348415117+349539280+351058570
2980+351975031+352353258+352781142+353142139+353202526+352872986+352282945
2966+351831899+351576620+351237934+350625723+349980659+349830130+350182287
2953+350547492+350715889+350907142+351296028+351795738+352143098+352212229
2939+352247847+352363397+352368384+352230168+352104360+352095757+352104502
2926+352027736+351894933+351490684+350715866+350145110+350104647+350065626
2912+349801531+349899214+350562169+351325146+351802734+351870400+351828755
2899+352012681+352353234+352750393+352935973+352805509+352840488+353273548
2885+353819771+354177578+354228440+354170629+354367814+354624700+354450606
2872+354139762+354168384+354269848+354196273+354308065+354777309+355185765
2858+355314457+355312897+355044619+354327304+353537974+353234173+353641210
2845+354507022+355339958+356059755+356689101+357040597+357209444+357372689
2831+357682210+358255258+358764304+358997012+359275925+359699957+360025573
2818+360281797+360723011+361331558+361815527+362148021+362509325+362828536
2804+363057250+363354433+363798034+364308569+364729504+364946092+365038103
2791+365188443+365433725+365696212+365893137+366079001+366415300+366810591
2777+367063128+367254475+367712257+368460250+369009616+369199829+369364634
2764+369626791+369867794+370031772+370223757+370548310+370921999+371237617
2750+371541891+371953372+372516612+373149220+373742358+374249253+374619727
2737+374879024+375170890+375516477+375874426+376339298+376923809+377507753
2723+378104223+378823476+379592811+380178740+380556187+380971497+381596495
2710+382259355+382658452+382837225+383007868+383196166+383331073+383519749
2696+384008445+384517656+384545427+384270177+384156990+384337843+384566651
2683+384639470+384739681+385001365+385227053+385280822+385336057+385488170
2669+385599017+385711920+385901329+385989251+386011845+386254078+386704084
2656+387158296+387511754+387814563+388203993+388563714+388702993+388811666
2642+389199772+389765895+390118408+390261067+390548608+391078381+391714510
2629+392301881+392752549+393204942+393800585+394371364+394693529+394907400
2615+395433085+396343566+397188887+397709419+398105396+398630749+399343526
2602+400007190+400445237+400931545+401675851+402490021+403168953+403565024
2588+403719312+404014983+404572101+405090884+405504492+406050833+406825108
2575+407586951+408098029+408413553+408520240+408421872+408537210+409102695
2561+409781816+410311329+410760106+411092174+411253741+411480635+411871507
2548+412326712+412827958+413186119+413388196+413806153+414395746+414779149
2534+414964256+415187038+415544112+416023330+416594346+417169663+417557935
2521+417736519+417980619+418414789+418882332+419302085+419768399+420316536
2507+420755575+420934018+421002039+421151599+421364548+421595838+421839134
2494+422014504+422143219+422352434+422655337+422913570+422921086+422712249
2480+422633924+422780601+422868381+422770438+422516837+422218378+422110461
2467+422121806+422070660+422043859+422013559+421834313+421588370+421388325
2453+421082349+420561959+420015713+419682321+419634626+419688891+419581117
2440+419257746+418840073+418393234+417889436+417388426+416911666+416366412
2426+415837797+415437661+415092877+414824244+414627036+414238008+413541255
2413+412725667+411990248+411420272+410991868+410595277+410058910+409339515
2399+408574316+407869575+407313355+406881264+406397414+405803425+405136547
2386+404309850+403058721+401212893+398866955+396093487+392877577+389317781
2372+385569095+381785620+378282524+375198684+372441241+370441551+369493443
2359+369202830+369659808+371259243+374261164+378245252+380891517+380150048
2345+376849548+373958167+372667993+372261830+372363743+372784489+373141326
2332+373341938+373805132+374698927+375709195+376438280+377051933+378104389
2318+379549938+380915648+381972996+382840912+383696892+384626447+385633855
2305+386557406+387322936+388015789+388612212+389045721+389372140+389704516
2291+390030156+390357473+390855623+391493525+392008976+392342888+392610031
2278+392797975+392988069+393325172+393646864+393889168+394260163+394802486
2264+395416328+396127119+396946536+397634591+398141179+398701370+399301031
2251+399839336+400385961+401005758+401678262+402404227+403190839+404008223
2237+404910693+405833299+406544233+407165921+408099163+409206452+410002187
2224+410590881+411352346+412263040+413120509+413901165+414749700+415743400
2210+416814858+418002315+419380080+420683915+421786854+423028057+424475686
2197+425821118+426954074+428113075+429566045+431328584+433101143+434535064
2183+435826041+437441051+439328854+441032778+442463721+444002013+445834273
2170+447995908+450414311+452707828+454705059+456500686+458164337+459803596
2156+461492961+463218346+464874150+466284246+467455301+468563015+469487134
2143+470040376+470351268+470412766+470194617+469913410+469459718+468479726
2129+467052376+465584799+464293349+462924188+461023197+458607158+456031205
2116+453367852+450507621+447507803+444599925+441818776+438928481+435906589
2102+432906393+429961596+427056696+424135724+421153443+418153105+415199375
2089+412337679+409520888+406740448+404172863+401819314+399486705+397187091
2075+394952117+392680439+390433648+388363527+386321721+384059213+381773637
2062+379718264+377755161+375883478+374181255+372459605+370643369+368803923
2048+366950320+365137203+363425338+361767312+360122593+358522189+356968535
2035+355503015+354095990+352600997+351042616+349524059+348041853+346572078
2021+345182544+343806245+342216122+340615836+339330389+338225724+337091965
2008+335867283+334626411+333427160+332136702+330762128+329543496+328488512
1994+327250878+325722182+324380058+323415217+322509698+321602880+320728938
1981+319812335+318844940+317852541+316870375+315912174+314894604+313658340
1967+312383765+311532843+311009570+310398871+309585575+308642785+307708125
1954+306850136+305997819+305129951+304247311+303245032+301946657+300688981
1940+300189696+300098868+299765878+299211572+298554927+297851368+297181866
1927+296478661+295452606+294362807+293844001+293388866+292739477+292528183
1913+292390227+291722119+290868881+290503771+290576425+290586209+290370897
1900+290008694+289492298+288825940+288296971+287901207+287230499+286750123
1886+286871511+286943763+286777185+286601886+286390260+286134130+285888565
1873+285447021+284122600+282113906+281602071+282775135+283735463+283886134
1859+283666756+283452507+283255937+282958092+282607966+282132813+281331288
1846+280014643+278727187+278940963+279877963+280107527+279831592+279580780
1832+278716480+276919861+275889669+276041309+276227835+276658200+277134062
1819+277024752+276506441+275870926+274958412+273845830+273270560+273284102
1805+273166236+272425523+271041897+269941202+269739220+269474511+268146639
1792+266756726+267343743+268618531+268872297+268216622+267272673+266411801
1778+266095520+265769550+264149364+261474311+260887082+262505614+263958867
1765+264517451+263934264+263084689+263151504+263494704+263882173+263688391
1751+261637958+259142199+259073681+260247809+260750851+260342797+259778234
1738+259666748+258650738+256064126+255942951+258231835+260294298+261450038
1724+261509598+260998212+259825479+256502338+253025429+254301186+257334872
1711+259150944+259243095+257658338+255940256+255482475+254055668+251169037
1697+250779158+252987070+255790743+257294008+257008973+255873559+253405949
1684+250120221+251259157+254119837+255502044+254869980+253462459+252507804
1670+251285368+251362393+253050718+253424715+252275191+252174389+252916969
1657+252578780+249392105+243696791+243587882+244787393+244019263+245291097
1643+248582402+250708207+251077736+249724315+249025696+253032898+257919596
1630+261144701+263514180+266143310+269263263+273577528+278024833+281202738
1616+285058323+290921587+296237469+300250579+303870975+307915851+312062356
1603+316086552+320254494+324410996+328131934+331653726+335509051+339677914
1589+344055119+348470658+352712104+356826372+360829721+364162955+366521018
1576+370361359+376433057+381230203+385104909+390294747+396026884+400976026
1562+404337597+405044466+406898234+415364724+424264155+432145543+438951738
1549+445148676+450069953+453119073+454736777+457324027+467448542+478650093
1535+486215436+493499763+501883720+508821230+514330728+519606195+524389066
1522+530101539+538250189+547068033+556531294+565617677+572401041+576215407
1508+578185978+586106505+599439202+608941083+615455815+620913174+628107121
1495+636990906+644028722+648990509+655046868+664605236+674740245+683472153
1481+691324470+698493884+704505715+709147770+713963588+722756474+733711420
1468+742837083+750523578+759317173+768209088+774323069+778419114+787627593
1454+801530030+813939317+824461132+833911820+844422574+855956619+866515210
1441+875184533+881925166+888870192+898658384+909408228+919108593+928368786
1427+937304520+944486933+950706750+956013415+959021079+963423856+971273526
1414+978346369+983542517+988194310+991738578+993620188+995168359+997206999
1400+997799191+995645970+993434135+994217580+998427308+1001970158+1000894210
1387+996782518+995775489+999326280+1004271238+1007122252+1005803338+1002598370
1373+1002945801+1006995286+1010405970+1011931736+1011489009+1007706125
1362+1004513353+1006891766+1010408523+1010982658+1010232964+1010088414
1350+1009700425+1009163916+1009328698+1009106059+1006796848+1002564809
1339+999828377+1000125986+1001880914+1004551925+1006747594+1007498328
1327+1008322803+1010377041+1012606839+1013674468+1014470297+1017127695
1315+1021852188+1026922505+1030652070+1032869955+1034862554+1037064085
1304+1039616449+1043292221+1047204813+1050084945+1052022995+1053494684
1292+1055525098+1058594024+1061496089+1062946317+1063184272+1063450777
1281+1064196218+1065003392+1066139562+1067341342+1067200101+1065588494
1269+1063524140+1062027398+1061378766+1060692790+1059811309+1059566925
1258+1060364362+1061521520+1061984288+1062350438+1063369947+1063942286
1246+1063582281+1063124712+1062972883+1063199965+1063571787+1063752451
1234+1063590979+1063093798+1062875791+1063344894+1064099599+1064274590
1223+1064235735+1065322839+1066663970+1067386910+1067994607+1068139819
1211+1068130081+1068256291+1068015027+1068551158+1070516151+1071628214
1200+1071177452+1071526774+1072964712+1073741823+1073650215+1073382669
1188+1072961971+1072486156+1071821546+1070510479+1069859105+1070487506
1177+1070524093+1069828947+1069717108+1069371567+1067949511+1066648560
1165+1066265299+1066739317+1066942576+1065100389+1062458685+1061376591
1153+1060821269+1058089942+1053769981+1050711171+1048395154+1045202382
1142+1042603788+1041330158+1039501773+1036479172+1032982268+1028932783
1130+1024564796+1020551048+1016954688+1013241763+1008871413+1004053515
1119+998539243+991445601+983547055+976532543+970773036+965899739+961237925
1105+955931638+950146228+944417920+938752574+933047616+927317984+921617943
1092+915381298+908175344+901004748+895076395+890570476+886681991+881912876
1078+875532531+868664082+862935490+858574688+854492682+849800994+844908789
1065+841010850+838405071+836387892+834188347+830928358+826676748+823080484
1051+821022180+819818415+818812520+817480937+815681482+814174151+813451306
1038+813323678+813268373+812570675+811237958+810439671+810912839+811489716
1024+810982325+810299091+810757038+811957306+813031458+814458903+816313286
1011+817556001+818548094+819863794+820728069+821430778+822767654+824092524
997+824835506+825130185+824931842+824338326+823817132+823589955+823308796
984+822442251+820656314+817979914+814848215+811523277+807985438+804619943
970+801612278+798501850+795414111+793074270+791695513+790981554+790694723
957+790866642+791608017+793015278+795247628+798404191+802079396+805484219
943+808839031+813020397+817590130+821735477+825744688+830049334+834651210
930+839216594+843301720+846848824+850131219+853311228+856001147+857745959
916+858858873+859957227+860643013+859805681+857865078+855989613+854026321
903+851710966+849096489+846218532+843649151+841652014+839517606+836666026
889+833706670+831070733+828366255+826134945+825143231+825076865+825030446
876+824543381+824757701+826491830+828628790+830662419+833443946+836667255
862+839360482+842455690+847132536+853003693+859128025+863939873+866890152
849+869806681+873791028+877868591+881661969+886913328+894106236+900663557
835+905532033+909249213+910416108+909298752+909500687+912327593+915620103
822+918757854+922908968+927402124+931382501+935230333+937818907+938449860
808+939772556+942974781+945914567+948117421+951068645+955853076+961820569
795+966466973+969776028+974766648+982252532+990085941+997343797+1004456724
781+1010521781+1015297136+1020429565+1026510031+1031142349+1032247983
770+1031767536+1032560056+1035959585+1040915983+1044248578+1044764761
758+1044257559+1045088084+1046637484+1046297428+1044404189+1043132072
746+1043230203+1043386098+1042802509+1041706991+1040112779+1038719841
735+1036710603+1034010285+1033855241+1036241028+1036931635+1034595765
723+1032640509+1034204468+1037936585+1038717667+1035002283+1031366123
712+1030105067+1029361896+1029120159+1029476004+1027658964+1022993652
700+1018266134+1016044656+1016959510+1018397354+1018248739+1017789657
689+1019149128+1023962110+1028416222+1026834111+1022389737+1020741071
677+1021719644+1023172331+1025387853+1027254715+1025187147+1022882380
665+1026422394+1030318820+1029757541+1026272171+1024502022+1025263913
654+1029522328+1034453768+1033553851+1031343812+1034334365+1038630218
642+1035797451+1026827966+1019252649+1019927468+1040163074+1063147874
631+1056383418+1039283672+1032408227+1022450809+1008703795+1004474592
619+1009869178+1013854092+1010625112+1000695678+988699810+987202406+1002001451
606+1019336505+1027107140+1029469387+1032765017
##END=
