##TITLE=Sample description
##JCAMP-DX=4.24
##DATA TYPE=INFRARED SPECTRUM
##DATE=24/8/2023
##SAMPLING PROCEDURE=Instrument type and / or accessory
##ORIGIN=Default
##XUNITS=1/CM
##YUNITS=ABSORBANCE
##RESOLUTION=4
##FIRSTX=4397.6552
##LASTX=599.8556
##DELTAX=-1.9287962
##MAXY=1.5793703
##MINY=0.58295089
##XFACTOR=1
##YFACTOR=1.4709032e-009
##NPOINTS=1970
##FIRSTY=0.82493365
##XYDATA=(X++(Y..Y))
4398+560834772+561027172+561295431+560165300+557331563+555317150+555394669
4384+556781673+558162436+558159113+556620920+555435597+555702518+556774257
4371+558421820+559696819+558917369+556868107+555987473+556609736+557069787
4357+556603860+555705031+554873347+554240265+553901780+553951826+554372125
4344+554948192+555502175+556332359+556977923+557064438+557325890+557428979
4330+556966415+556532703+556675017+557296794+557073880+556041611+555716215
4317+555601658+554928215+554677178+555150440+555404151+555347501+555611424
4303+555899377+555524949+554962092+554952528+555087873+555043663+555224961
4290+555568308+555276465+554011272+552724076+552099624+551815156+551873873
4276+552377568+552465137+551568658+551198404+552272169+553354362+553569982
4263+553106405+552532040+552561824+553057130+553357888+552837741+551707934
4249+550974882+551349067+552412579+552462584+551286298+550793423+551212709
4236+551067679+550173429+549164784+548680945+549351633+550405906+551215181
4222+551913383+551372813+549854436+548677663+547147250+546105620+547274613
4209+548730261+549040380+549976368+551198607+550547897+549200200+549061938
4195+549155342+548981541+549549139+550602075+551116427+550915031+550147940
4182+548908317+548019902+547848532+547637005+547602926+547876412+547303262
4168+546031059+545574532+546517085+547986430+548704165+548276814+547307476
4155+546362816+545466824+544993197+545653349+547075485+548154396+548376662
4141+547687415+546382186+545241600+544494203+544251028+545410052+547207588
4128+547476333+546395234+545727869+546104202+546389642+545422006+544287944
4114+544229024+544816316+545625145+546316823+546372947+545910464+545241478
4101+544361897+543654050+543775902+544466324+544984241+545194026+545216233
4087+544991941+544515680+544064543+543393896+541861822+540489934+540958536
4074+542793191+544265454+544445171+543507683+542417021+542168456+542947338
4060+543998005+544401528+543971058+543054845+542055682+541291995+540760502
4047+540408686+540673865+541524635+541892417+541410321+540840453+541066528
4033+542149451+542507751+541427097+540464850+540192053+540015334+540059342
4020+540356979+540461001+540626373+541584932+542402959+541524959+539849435
4006+539117154+539310405+539583932+539607070+539504184+539323535+539203872
3993+539582878+540341662+540911570+541379443+541481681+540529038+539221458
3979+538731866+539070391+539357573+539470226+540244286+540950836+540416831
3966+539529591+539031732+538691060+538777616+539083925+539047252+538804847
3952+538361855+537666165+537204371+537353858+537370148+536927319+537249594
3939+537920484+537919228+537880043+537388384+535834792+535623022+537327965
3925+537992493+536907422+535956643+535173263+534765809+535512598+536829862
3912+537874410+538229225+537381535+534685169+531504438+530357004+531013265
3898+533133361+536129998+537879354+536773820+535722180+536893320+536416371
3885+534081101+533238557+532494727+533107062+535516204+535960939+534146666
3871+531770468+530611282+532585659+533765836+531903504+531161942+532817164
3858+534764512+533661693+525917280+522858440+528105615+532598545+533904990
3844+532771009+531038754+529799090+529063526+529990073+531783355+532836655
3831+533911109+534821811+534328288+533836953+532425109+528335945+527891535
3817+529904732+530536194+532439089+534951200+535583877+533777182+533035661
3804+533566425+531106913+530048142+532526942+533916053+534502535+535388275
3790+536077198+536654359+536258293+535239882+535219580+534261183+532574272
3777+533879664+536213961+536199089+533784719+532098984+532714115+533644471
3763+534530333+534582607+532813193+532426325+534352561+534510963+529321492
3750+525404468+528711629+530895467+528096214+528587144+532263870+533226441
3736+529090676+524742331+525526035+529561183+533061960+533610432+532026773
3723+530987372+531203397+532569977+534836886+536500050+534514894+529717883
3709+529325342+532436699+535073740+535382116+533667609+533471400+535120583
3696+536456893+537008647+535997612+532117462+530193253+532950807+535850677
3682+536527929+535662410+534261102+530032216+525212634+524971485+523870368
3669+522025420+523716423+525734199+526349006+526585050+526203125+524006888
3655+522312765+522638768+520003875+511312168+507369006+511193518+515388891
3642+516782338+515811419+513503340+509964552+506344112+503804487+498640059
3628+490886568+490220217+493309934+494605438+491747509+485943960+482761244
3615+481263249+479050722+477194914+474826213+472525225+472450826+472066753
3601+469102858+465817620+464327932+463406249+462137003+461526046+460282006
3588+455985448+452453184+452500352+453163381+452555463+451411959+450637696
3574+449413228+447552760+445526555+442358062+438938937+438376201+438949108
3561+438333815+437082521+436441820+436064475+435047199+434078063+433558524
3547+432423854+430961763+430111723+429704391+429686075+429792000+429475682
3534+428723260+427369607+425324843+423692030+423039091+422398674+421821674
3520+422033080+422258750+421515284+420111463+418937689+418211364+417448812
3507+416561208+415458672+414087027+413290963+413432224+413851267+413831411
3493+413353367+412896112+412300796+411385677+410927813+410759767+409838366
3480+408662080+408036737+407834773+407562705+406562610+405221316+404617936
3466+404856087+404995403+404326823+403270766+402429844+401936280+401803488
3453+401811755+401605617+400951138+400291149+400318744+400609898+400726198
3439+400790629+400611195+400147253+399533581+398872821+398443364+398382013
3426+398586084+398663644+398100949+397061061+396385551+396321728+396617907
3412+397135460+397497853+397701600+397874590+397717485+397619339+397950651
3399+398171944+398063830+397720483+397048580+396550073+396824856+397402706
3385+397754482+398381608+399595256+400730736+401398101+401928500+402619043
3372+403407773+404035426+404681476+405547076+406062117+406361457+407566190
3358+409722877+411783648+413200962+414266785+415027067+415172259+415196087
3345+415697755+416339996+416946658+417740412+418430672+418886388+419484864
3331+420049464+420280604+420575527+421175057+421625059+421732646+422255710
3318+423353140+423619859+422726622+422354585+423133022+423911337+423920577
3304+423438926+422980009+423109276+423997245+424444208+423933301+423909960
3291+424674092+425461809+426272177+426909960+427343065+428058408+429064986
3277+429895900+430417181+431048197+432127554+433646661+434936370+435019117
3264+434195538+433655657+433628507+433786382+434385669+435376890+436007014
3250+436174169+436258497+436323576+436894497+438034637+438729639+439096975
3237+439349511+438826487+438255161+438607706+439350281+439689778+439724303
3223+440018294+440442402+440307138+439549044+439047173+439420952+440247975
3210+441024913+441885975+442802148+443089614+442683295+442386509+442586892
3196+443134878+443647366+443825057+444123505+445059574+445925499+446115144
3183+446302520+446947314+447776485+448394007+448772325+449399451+450469406
3169+451369694+451655904+451773784+451955366+452191531+452469231+452353458
3156+452189667+452552545+453019689+453525855+454449727+455219654+455248425
3142+455245629+455741219+456303671+456532218+456329078+455962390+455827572
3129+455968469+456039343+455828140+455690566+455973737+456611115+457094183
3115+456932418+456644708+456964674+457765519+458477216+458283397+457275157
3102+456793466+457099816+457621908+458448364+459273239+459606618+459953895
3088+460735209+461172690+460617086+459867339+459928650+460447175+460573768
3075+460374032+460284599+460321191+460170002+459765223+459460615+459540039
3061+460259556+461187724+461324568+461031591+461086012+461064860+460733143
3047+460513997+460613156+460944994+461207418+461426077+461980992+462469409
3034+462377747+462141258+461904972+461313262+460828330+461112717+461734494
3020+461908578+461880496+462342493+462944049+462989151+462700914+462419688
3007+462097453+461911617+462294838+463356527+464658150+465775355+466772573
2993+467767764+468523346+469190549+470264516+471447611+472266084+472908365
2980+473440587+473582781+473431956+473381465+473460362+473350060+472995893
2966+472871044+472907352+472441586+471912687+471942714+472119554+472377845
2953+472854956+473083422+472999014+473129456+473583186+473911945+473821093
2939+473534883+473313103+473159442+473118717+473233234+473327610+473162198
2926+473021747+473342725+473573785+473048330+471998514+470912592+470465102
2912+471107505+472115826+472680264+473091932+473627274+474066457+474425040
2899+474685276+474672957+474371348+473917780+473786528+474344117+475216363
2885+475872017+476220308+476306823+476257548+476284779+476272784+476071185
2872+475794943+475533897+475393649+475357787+475422339+475812165+476438238
2858+476925885+476985332+476626181+476108060+475404671+474533033+473895736
2845+473878676+474672552+475820756+476380250+476287980+476326436+476762498
2831+477433875+478233667+478959263+479464456+479612688+479499184+479502345
2818+479830050+480605934+481447910+481678605+481557078+481678443+482036013
2804+482536466+483166995+483699623+483941177+484098445+484452287+484864482
2791+485163497+485435809+485698151+485889377+486015726+486218703+486542802
2777+486822974+487048360+487303287+487682577+488179505+488543640+488612244
2764+488473617+488566251+489121288+489722439+490176939+490600156+490974907
2750+491159163+491123017+491261888+491576828+491627887+491564145+491804403
2737+492492272+493276827+493608382+493663736+493990226+494541818+495053130
2723+495604155+496114130+496377283+496653201+497072771+497281988+497369557
2710+497788479+498243546+498374150+498530689+498834323+499258027+499864162
2696+500347717+500603575+500894243+501291728+501531378+501444255+501351823
2683+501466583+501728804+502093101+502263579+502263903+502552869+502986540
2669+503125127+503135623+503475566+504121940+504612019+504756846+504788980
2656+504834771+504844699+505082647+505746243+506480429+507028050+507353324
2642+507500096+507673735+507897581+508216129+508536135+508458656+508298835
2629+508774609+509749013+510516914+510774758+510826303+510923557+510987177
2615+511225693+512017542+513006656+513526356+513712030+514035724+514481714
2602+514915264+515365186+515865517+516484457+517096468+517363957+517303497
2588+517316627+517624597+517942213+518116500+518532098+519102574+519393606
2575+519599825+520013924+520558749+520989868+521070021+520947968+520957774
2561+520975199+520841434+520913361+521382733+521853037+522000012+522122714
2548+522551199+523039779+523329393+523548781+523963448+524506409+524804411
2534+524933354+525210406+525527778+525662596+525747329+526057488+526460889
2521+526707185+526960369+527333297+527681305+527933354+528102698+528377359
2507+528869788+529334905+529590197+529676550+529714925+529841517+530149691
2494+530486433+530469616+530139196+529901815+530007497+530424555+530814989
2480+531099538+531465739+531629531+531340120+530983279+530763363+530441088
2467+530182555+530285765+530426257+530287832+530184864+530415883+530685358
2453+530543772+529951860+529266179+528861319+528826834+529027826+529296612
2440+529451205+529236031+528699229+528243432+527882620+527473546+527149163
2426+526875069+526658639+526532371+526156889+525542974+525273459+525447949
2413+525415976+524903043+524411181+524204395+524107262+524014182+523757877
2399+523193723+522558817+522276011+522304660+522080125+521493319+520945212
2386+520318086+519175798+517434425+515263717+512847038+509987488+506405665
2372+502605629+499234483+496217260+493387656+491124678+489568413+488188298
2359+487103592+487245421+489323414+493363627+497984891+500766800+500240778
2345+497216180+494366153+492879626+492272073+492529836+493269858+493660778
2332+493748833+494226431+495074486+495812278+496512588+497582098+499069840
2318+500614476+501856125+502826315+503714932+504548277+505412945+506310113
2305+507117929+507826383+508351838+508613735+508695145+508757671+508944642
2291+509295445+509791197+510249466+510424887+510450133+510648977+511000347
2278+511217710+511237323+511290042+511514456+511801355+511933134+511822953
2264+511663660+511714434+512082054+512638225+513187183+513743233+514321205
2251+514839568+515265703+515580887+515824467+515935864+515827344+515868839
2237+516444137+517249197+517795157+518044897+518244713+518442706+518539474
2224+518801897+519427037+520005942+520285587+520570825+521077356+521631987
2210+522083610+522617940+523407236+524221130+524787027+525206921+525704618
2197+526340213+527044534+527632191+527942918+528227993+528786515+529391434
2183+529906029+530499116+531144882+531776790+532338594+532763999+533251768
2170+533964437+534696921+535392935+536177491+536867953+537392517+537952659
2156+538487596+538800065+539051588+539472131+539836914+539975987+540122071
2143+540316335+540380928+540385953+540438592+540446575+540392639+540145857
2129+539512207+538773320+538192714+537560969+536704202+535630154+534461323
2116+533488054+532666015+531631882+530460863+529456837+528552740+527498386
2102+526319020+525138884+523794631+522254088+520826319+519689583+518759673
2089+517829439+516727268+515525452+514472881+513585357+512553088+511311074
2075+510165057+509136232+508064250+506985015+505868094+504829341+504032264
2062+503186154+502039206+500718578+499543548+498761261+498198323+497569698
2048+496803661+495831162+494744106+493771647+492958766+492292577+491638179
2035+490764636+489768107+488952349+488288307+487488839+486609947+485907044
2021+485305893+484541315+483590455+482746899+482146275+481667623+481159917
2008+480419855+479489216+478683102+478094432+477570436+476997813+476404807
1994+475769130+474898667+473964057+473352086+472878946+472324193+471877027
1981+471528615+471019328+470385273+469819336+469370266+468961678+468302985
1967+467381869+466787687+466606066+466263975+465606741+464891397+464298878
1954+463911361+463630662+463235041+462620801+461838393+460907551+460172352
1940+460172838+460320705+459893436+459259462+458875714+458631809+458366468
1927+457966713+457124575+456083026+455517373+454999941+454398061+454467151
1913+454686702+454160315+453253503+452917369+453088617+453088253+452875996
1900+452649151+452181359+451412040+450915680+450701762+450067504+449520775
1886+449717106+449994604+450063249+450036991+449884262+449720713+449583544
1873+449181318+447839700+445777754+445252988+446568023+447747957+448017553
1859+447773324+447568442+447609492+447705206+447637047+447191624+446235536
1846+444756142+443545897+444024792+445095355+445362318+445210358+445140052
1832+444287986+442213113+441031640+441449994+441904615+442374352+442911680
1819+443042325+442843886+442444294+441577315+440449007+440152545+440717185
1805+441095341+440592538+439065935+437720953+437620579+437597359+436312554
1792+434855730+435580029+437185084+437687400+436994061+435953443+435253782
1778+435214070+435022561+433299991+430306474+429718411+431820556+433690101
1765+434348551+433650065+432737498+432930264+433353886+433861957+434052574
1751+432328829+429641297+429218810+430356924+431056747+430805346+430289130
1738+430519825+430107306+427482138+426796943+429048534+431265438+432523945
1724+432729029+432417047+431410833+428094433+424532669+425969110+429314483
1711+431279054+431329950+429685102+427972055+427558563+425911811+422456945
1697+421703592+423853877+427003446+428974095+428917323+427843477+425377481
1684+422000459+423303662+426510409+428120813+427396838+425729743+424738563
1670+423568923+423891279+426188093+427041375+425973729+425969312+427008025
1657+426891887+423606406+417470776+417695878+419670417+419448110+421277863
1643+425349561+427948714+428259116+426439778+425203761+429409914+434822785
1630+438255647+440538359+442923837+445550261+449560122+454083323+456703304
1616+459074882+464390134+469978468+473838639+476848325+480316077+483919133
1603+487298424+490891836+494487437+497394560+500116617+503487277+507169838
1589+510888708+514558910+517835112+520889696+524033836+526546472+527537976
1576+529379602+534427325+538900561+541766838+545758585+550990119+555640195
1562+558881183+558951489+558151778+565530517+574884037+582886214+589392827
1549+595169712+599661224+601729613+601397288+601847290+612206376+625371035
1535+634018492+641168724+649374689+656645718+662159653+666838865+670802247
1522+675572391+683135345+691401039+700115317+709107013+716256637+719822534
1508+719296714+723421741+737279537+748683293+756015349+760966305+766743757
1495+774540201+781028985+784838827+789019369+797644498+807375324+814984473
1481+821292931+827135138+831454997+833483471+834902082+840650925+849654858
1468+856133917+859421587+863329493+868866485+872510510+871687579+872300522
1454+880778960+890312927+897402335+901989398+906694950+912433095+917754993
1441+922252259+925077405+925786630+928217411+933278183+937819051+942190049
1427+946925587+950695231+954474114+957468807+956429891+955695624+960105767
1414+964611056+966641232+968255000+970057926+970516721+970892527+972141267
1400+970435595+965530592+962768175+963406809+966113954+968334991+966584339
1387+961716535+959400270+960933641+964005245+967005043+968743457+968136836
1373+966891580+967833971+969294725+969586244+969219678+968089506+967542614
1360+969045431+970137026+968752453+966787924+966398584+966427274+965745442
1346+964522069+963508196+962427056+959819921+957969584+959874951+963001260
1333+964518097+964639341+964885961+966447940+968471957+968684538+967953350
1319+969216193+972661333+975965941+977869282+979888923+983342329+987608293
1306+991517578+994056716+996112665+999092283+1002651129+1006583998+1010378766
1292+1012610339+1013803888+1015483626+1017715766+1020313257+1023374812
1281+1025909736+1026640194+1026541887+1026516519+1025189570+1022741769
1269+1020983418+1020998492+1022580814+1022924850+1020723102+1018995628
1258+1019626482+1021381268+1022562255+1022195932+1020827568+1020233509
1246+1020453303+1020347863+1020568468+1021653417+1022735610+1022749144
1234+1021193649+1019320375+1018634006+1018993521+1019634506+1020488071
1223+1021882288+1022972991+1022827353+1022638437+1023856786+1025753643
1211+1026537915+1026200282+1026680717+1028635440+1030409676+1031104556
1200+1031272076+1030743338+1029599389+1028871767+1028605777+1028552207
1188+1029706935+1031767422+1032021336+1030051376+1028488424+1028262552
1177+1028458438+1029010516+1029304547+1028192043+1027358333+1028007423
1165+1029071624+1031034452+1032940629+1032232621+1029452130+1026225244
1153+1023401070+1021867051+1021323645+1020107322+1018076740+1016756842
1142+1017055169+1018329763+1017932318+1014092651+1009011294+1005770468
1130+1003897925+1001588305+998909932+996030971+993650681+992026864+989236972
1117+985045408+980834960+977143687+974401206+972142402+969441984+966871157
1103+965010851+964063192+964255350+963583487+960476304+957451058+956965112
1090+957198360+955594561+953233073+951179070+949191199+948597544+949318601
1076+949068902+947704267+946447178+944785595+942687989+941502463+940564530
1063+938911132+937794819+936917426+934742098+932206525+930156169+928118780
1049+926201823+924130476+921729195+919711986+918262983+917293361+917120492
1036+917091397+915952067+914689549+914835754+915334910+915089344+914686469
1022+914068420+912666099+911093989+910291644+910108401+909391072+907943366
1009+906879813+906416317+906164835+906012551+905836846+905492972+904798579
995+904203547+904071443+904202574+904884811+905510153+904575948+902970042
982+902037701+900705241+899283064+898615172+896996867+894711318+893506503
968+891928315+888812703+886296825+885534678+885269013+884784039+883706871
955+881959866+880786578+881003535+881757578+881668752+880873377+880875970
941+882419877+884601283+886054662+887387123+890015816+893006051+895011995
928+896946457+900054288+903674161+906473373+908545368+909996640+910222432
914+909756018+909251837+908799201+908855365+909361653+910147951+911527823
901+912289483+911118627+909587769+908639380+907562941+907020588+907505237
887+908603234+909656657+910403162+910709269+908855365+905941556+906094001
874+908815167+910213760+909537764+909199077+910944056+914015174+916902968
860+919963063+924593162+930098627+933810162+934765439+934824683+935880293
847+938403466+942214119+947256493+952955089+956969813+957735526+958063920
833+960911759+963581866+962746617+961123529+962572451+967281163+973049619
820+976247005+975814063+975318878+976694292+978753239+981251531+984412204
806+988314357+992478528+993810258+992271458+992572054+994311359+994382355
793+994475151+995150418+995163223+997351518+1003228250+1008453057+1011521824
779+1015125893+1017766176+1016924929+1014108617+1011760745+1010752302
768+1011028990+1013343958+1016302828+1015595387+1011546543+1008746764
756+1008101808+1008971663+1011863834+1013893200+1013512288+1014692060
745+1017748427+1016958725+1010547339+1005489323+1007042145+1011509262
733+1013547705+1012468105+1010992033+1009781465+1006545258+1003174760
721+1003453393+1005662517+1004562412+999760174+997944686+1002035836+1005577176
708+1003157012+997683802+994701024+994262165+991240647+986801814+986945183
694+988936215+989652004+993141394+998047289+998530155+995411302+994467533
681+995551185+993936121+992342615+994640564+998451460+999322937+994106235
667+990825373+998092431+1004276243+1002902530+1002193063+1007756232+1010750519
654+1007831199+1006893184+1011225848+1016541668+1013574126+996613198+976244493
640+969308584+974046553+975337194+979589137+999396201+1018681093+1014588808
627+992117472+978484656+988702481+1005308755+999749963+975532351+962083993
613+966980649+982266295+1007501346+1035446945+1059300665+1073741823+1065624603
600+1044201340
##END=
