##TITLE=Sample description
##JCAMP-DX=4.24
##DATA TYPE=INFRARED SPECTRUM
##DATE=24/8/2023
##SAMPLING PROCEDURE=Instrument type and / or accessory
##ORIGIN=Default
##XUNITS=1/CM
##YUNITS=ABSORBANCE
##RESOLUTION=4
##FIRSTX=4397.6552
##LASTX=599.8556
##DELTAX=-1.9287962
##MAXY=1.2981284
##MINY=0.32195234
##XFACTOR=1
##YFACTOR=1.2089763e-009
##NPOINTS=1970
##FIRSTY=0.49327001
##XYDATA=(X++(Y..Y))
4398+408006368+407201024+406695878+406185605+405958915+406790611+407627163
4384+407417951+406807324+406170223+405293366+404408918+404110371+404823077
4371+405725619+405450811+404349829+403774355+404167068+404646798+404282533
4357+403675184+403425397+403166711+402985379+403183473+403669317+403939688
4344+403621864+403454091+403901381+404194973+404128834+404270996+404341078
4330+403642251+402562000+401573179+400577432+400144390+400568015+401097418
4317+401374247+401766516+402403298+402689692+402076230+400940392+400283051
4303+400411655+400702930+400866316+400968962+401103186+401365619+401537091
4290+401521832+401406293+401071879+400391712+399605621+399241379+399363796
4276+399815621+400536931+400539716+399417460+398662823+398642610+398428098
4263+398082369+397732327+397124535+396735864+397214412+398022147+398304473
4249+397915335+396871567+395923815+396004177+396773506+397597092+397966165
4236+397259720+395979156+395205489+395119260+395443912+395460625+394850861
4222+394634303+395183377+395731637+395921498+395971737+395954925+395672820
4209+394931346+394040291+394154573+395093401+395224051+394940443+395382383
4195+395730700+395403115+395261619+395446624+395417043+395139104+394564073
4182+394182132+394327499+393973216+393146155+393094881+393617751+393955221
4168+394625947+395751234+396212896+395727077+394809694+394055944+394109708
4155+394339701+393958105+393515006+393353247+393251143+393124807+392845241
4141+392187975+391374940+391265268+391823487+391875476+391475244+391619082
4128+392032551+391997843+391634415+391332812+391140190+390870041+390550368
4114+390191427+389887506+389889010+389852773+389592287+389628179+390111262
4101+390460121+390333219+390173358+390106825+389920538+389722444+389348663
4087+388558997+387555065+387097594+387659437+388152159+387541014+386693887
4074+386747823+387191687+387028448+386566442+386304699+386159875+386193129
4060+386104435+385750621+385655912+385660818+385456881+385361384+385331112
4047+385096165+384755835+384663345+384936255+385013511+384592129+384020499
4033+383362962+382887989+382917669+382807035+382375546+382112546+381635478
4020+380981959+380991498+381491862+381947435+382232867+381883614+381000915
4006+380970003+381987443+382172078+380927727+379850804+379862390+380296048
3993+380298119+379951059+379742389+379762209+379833055+379640803+379124392
3979+378855352+379299241+379941248+379896038+378969856+377744362+377202289
3966+377676473+378421669+378783396+378740578+378535384+378551580+378789608
3952+378847612+378459139+377713154+377281468+376939240+376174224+376204742
3939+377215749+377754370+377116233+375622538+374812239+375465339+375934026
3925+375430729+375365898+375991956+375900353+375052634+374990539+375999967
3912+377089955+378117305+378756971+377228690+373744141+371845531+371840256
3898+372620135+374263018+375234928+373953674+373056308+374739839+375496005
3885+374345943+374246945+373776335+373283121+374054200+373571067+372257792
3871+371381577+371006243+372413980+372860062+371561282+372244431+374403848
3858+375664642+374014068+367597667+365425087+370005516+374368153+376541251
3844+376829962+375855193+373526967+370764294+370780638+372266272+372696380
3831+373420377+374981960+375962375+376393198+375026356+371182989+370750638
3817+372141391+372630365+375207861+378390585+379248509+377195855+375953599
3804+376486354+374938599+374035022+375644453+376944589+378189360+379548880
3790+380219630+380248003+379816293+379522849+380097559+380201290+379589874
3777+380361003+381850483+382428176+381674821+380870438+381157571+381886744
3763+383032665+383671837+382889813+382919419+384516130+384583969+380553452
3750+377888175+380705055+383186610+383120102+384884093+387680390+388010983
3736+385611935+385148844+388905489+393986010+398204070+400659741+402643964
3723+406095210+411110061+418377656+428062492+438845771+450645257+466053385
3709+485128035+503613627+519023432+530934586+540393916+548618878+554537454
3696+557772733+559396684+558789336+553913343+548231957+546358047+545086703
3682+541985376+537427134+531834048+522317183+512861206+510100998+506389710
3669+501891862+502233080+503934730+504857017+506294361+509005415+511293016
3655+512849176+513936083+510060817+497862628+489178815+489330615+491367714
3642+491640106+489969713+487900075+486205919+485247690+485001034+481421825
3628+474259267+472844602+474962211+476176415+473994023+469171524+467173274
3615+466406435+464019737+461847551+460068744+458552518+458027011+456784163
3601+454264351+452346759+450926918+448406465+445989644+445347390+444299530
3588+440791514+438753872+440205464+442054427+442191190+440937299+439825692
3574+439512577+439667434+439339626+436411448+431929031+431773533+434539707
3561+436123723+436533026+437110201+437663219+437391911+436654900+436513897
3547+436517249+436162720+436467652+437899029+439516225+439942192+439369553
3534+439531706+440401093+440828687+441062180+441208754+440743789+440719336
3520+442062562+443731919+444291741+443509667+442456680+441933737+442440657
3507+444094435+445068687+444587650+444534108+445081555+445428245+445572945
3493+444859105+443403471+442810371+443629125+444825333+445399206+444846435
3480+443877261+443741780+444219514+444551512+444681224+444730723+444783772
3466+445029591+445345072+445140372+444392464+443883867+443990507+444201075
3453+444066333+443724869+443059345+442541627+443115499+443855815+444011904
3439+444275964+444398676+443841764+443077537+442746180+442854989+443010092
3426+443572872+444647502+445158810+444927585+444624084+444279267+443991592
3412+443934845+443749126+443290077+442957290+442963699+443248910+443538854
3399+443608172+443769980+444040844+444183819+444569507+445045022+444804380
3385+444330541+444778300+445494605+445445352+445378154+445603414+445499584
3372+445666964+446373014+446523680+446018189+446054870+447173329+448419037
3358+448823212+448693943+448670722+449053156+449764826+450437746+450815397
3345+450515840+449799929+450136660+451692180+452813055+453046203+453004297
3331+452878084+453213632+454099979+454558041+454161704+453517331+453237938
3318+453254158+453415424+453715376+454139321+454792865+455275332+455263204
3304+454934904+454637417+454810170+455066539+455271339+455566262+455534610
3291+456046757+457641767+459142414+459946673+460209747+460295680+460503339
3277+461036587+462173140+463423827+464363173+465479611+466304923+466083508
3264+465827484+466464808+468068791+470533287+472779721+473738493+473497949
3250+472991670+473248975+474188963+475079155+475930300+476865998+477818015
3237+478796260+479083690+478697016+478582192+478391049+478036175+478263949
3223+478562669+478388190+478501189+478689522+477964688+477229204+477213428
3210+477018686+476391568+475829725+475591548+475477316+475151382+474795670
3196+474646187+474293187+473820629+473915979+474156473+473953793+473662420
3183+473416749+472855104+472026095+471446060+471168343+471228343+471680687
3169+471788313+471030446+469874912+468818622+467544319+466250148+465980813
3156+466673404+467238057+466824070+465847304+465289504+464773265+463835497
3142+463102922+462729067+462183987+461309620+460252689+459148379+458168310
3129+457489030+457140368+456757737+456256684+456104637+456086593+455422942
3115+454190694+453323180+453161766+453272301+453541587+453822311+453593009
3102+452963376+452457540+452069831+451711260+451566707+451522878+451209811
3088+450662463+450438190+450686966+450761215+450638651+451030846+451590569
3075+451370190+450599998+450151500+450040670+449739337+449207815+448621913
3061+447918624+447174217+446640722+446384058+446171567+445595624+444766221
3047+444456211+444740485+444755818+444049570+442885507+441660605+440600568
3034+439694845+438737849+437564517+436401784+435511444+434852970+434578162
3020+434587332+434229697+433388264+432261916+430995502+430138539+429756697
3007+429285077+428678024+428214933+427718021+426901880+426015730+425341775
2993+424946030+425184354+425877488+426118425+425848400+425595432+425290057
2980+424726341+424034638+423341751+422622833+422120694+422085493+422059264
2966+421492196+420469825+419295113+418094714+417024077+416247574+415707473
2953+415331548+414920026+414238873+413673086+413585132+413502995+413120093
2939+412809319+412440444+411677647+411048877+410721908+410145497+409502059
2926+409333447+409300267+408527709+407139101+406219475+405858734+405289077
2912+404616010+404402385+404310117+403699465+402930974+402717966+403043160
2899+403435331+403482562+403147064+402746290+402477867+402283001+402165195
2885+402056805+401608874+400915494+400608073+400651804+400409757+399720198
2872+398788691+397946666+397596057+397583731+397462030+397261914+397125151
2858+396823967+396213956+395472827+394612463+393552105+392648256+392364599
2845+392568092+392766457+392728717+392531386+392423440+392486473+392400540
2831+392065411+391881713+392082297+392368222+392348551+392084022+391746749
2818+391277470+390864248+390761207+390800032+390682891+390349784+389970235
2804+389628943+389309887+389016763+388754725+388700419+388882194+388984693
2791+388875711+388636869+388295282+387983547+387956455+388144492+388140523
2777+387891993+387688130+387581614+387504235+387470143+387544588+387689610
2764+387617629+387319822+387137578+387178375+387336609+387408614+387252623
2750+387047232+387034488+387173494+387213355+386987627+386608151+386387304
2737+386461799+386601199+386545488+386420607+386534617+386789853+386812803
2723+386540558+386302850+386348873+386596516+386897700+387138983+387266872
2710+387260191+387102968+386884315+386715580+386779031+387120421+387492181
2696+387737580+387794548+387557925+387146107+386940987+386988070+387037890
2683+387181432+387494005+387751163+387786142+387722839+387782272+387883784
2669+387902494+387821664+387667276+387642576+387766224+387884771+388094056
2656+388444124+388661717+388640221+388672489+388891759+389122664+389276091
2642+389372130+389435976+389583043+389871976+390201263+390562299+390926960
2629+391182219+391488260+392009626+392560770+392961421+393333526+393826124
2615+394280588+394601961+394999506+395503123+395995894+396602306+397400698
2602+398057940+398363981+398696570+399276753+399857873+400313273+400642042
2588+400915371+401328224+401816040+402146978+402401326+402849774+403474699
2575+403969565+404162705+404107191+404034249+404163839+404371202+404562714
2561+404848738+405170260+405415240+405625512+405939934+406340042+406665385
2548+406910562+407097983+407154581+407050308+406945567+407047646+407336135
2534+407756038+408237149+408510897+408524554+408653847+409080727+409473292
2521+409532848+409394039+409363522+409526415+409707722+409811970+409954551
2507+410098290+410117641+410229260+410582162+410900553+411029896+411144005
2494+411367391+411553357+411527868+411468682+411540144+411496093+411239133
2480+410998121+410832393+410704307+410683453+410746091+410763888+410738917
2467+410694299+410488785+410116458+409767475+409568272+409529126+409479849
2453+409306825+409084252+408779099+408420601+408166475+407923886+407453227
2440+406842846+406440445+406319410+406297618+406166131+405748027+405184040
2426+404744022+404381358+403968801+403644494+403513943+403247935+402545114
2413+401748003+401316243+401062734+400644261+400190413+399834553+399507066
2399+399219908+398879455+398331984+397637396+396964008+396488468+396196824
2386+395700774+394643030+393140460+391521292+389779954+387662691+385147956
2372+382368324+379498001+376889519+374622994+372685090+371376351+370572806
2359+370088614+370322033+371567272+373968711+377103316+379321697+379229405
2345+377113743+374734367+373289900+372805140+372875814+373196719+373674749
2332+373986780+374210413+374611532+374832551+374814975+375277820+376456428
2318+377675192+378515565+379149388+379680811+380107000+380607265+381280505
2305+381882874+382178956+382327502+382614561+382982500+383247744+383490234
2291+383833868+384180459+384323804+384254288+384191108+384281922+384503533
2278+384669902+384735473+384950897+385221761+385290808+385353890+385546167
2264+385725329+385903284+386194509+386508611+386744594+387097150+387607497
2251+388013054+388370343+388898168+389466026+389898303+390206365+390518618
2237+390992408+391542665+392104433+392836269+393581489+394023997+394330506
2224+394849998+395569212+396323332+397092883+397900199+398788370+399827676
2210+400983457+402177742+403337097+404423708+405627386+406981014+408223369
2197+409524664+411157908+412891185+414566138+416311075+418213531+420278239
2183+422410342+424519471+426687565+428989858+431295158+433424402+435445971
2170+437644928+440023639+442355069+444750198+447196008+449217676+450764567
2156+452255452+453755606+454958519+455693411+456173314+456534499+456463110
2143+455745030+454526981+452895981+450792472+448280696+445426765+442047673
2129+438191093+434275104+430373758+426306019+422189421+418145938+414021156
2116+409844953+405947354+402308490+398622987+394918602+391329459+387834064
2102+384466360+381305255+378348432+375483901+372637736+369918325+367338069
2089+364728306+362137351+359734112+357549724+355578517+353651139+351551279
2075+349392405+347412742+345646261+343944783+342150249+340308902+338598280
2062+337037657+335529689+333972222+332325051+330726959+329295261+327983145
2048+326683082+325303619+323837286+322383994+321148295+320096072+318928213
2035+317695841+316610389+315609810+314595304+313517543+312388779+311395817
2021+310644163+309858589+308792438+307746822+307046417+306438107+305570150
2008+304566366+303694416+302845883+301835000+300777921+299839536+299013634
1994+298105594+296976830+295985421+295366315+294820766+294248102+293700211
1981+293071343+292347322+291660746+291055197+290465129+289791051+288859938
1967+287777148+287052610+286802379+286564375+286011949+285310335+284746521
1954+284276453+283695777+283036662+282403701+281658530+280604114+279627742
1940+279414487+279675170+279779443+279540773+279025792+278496045+278114572
1927+277680545+276911339+276168928+276017670+275962329+275788836+276061746
1913+276401583+276159610+275670709+275650718+276002929+276204327+276173464
1900+276027136+275680397+275105292+274659802+274431091+274043826+273853324
1886+274169668+274397566+274326719+274163456+274015477+273898164+273745673
1873+273334792+272140186+270495283+270302636+271546002+272611930+273069007
1859+273169508+273242598+273496995+273684613+273657201+273530545+273274570
1846+272670451+272305125+273479000+275225268+276306825+277011914+277680002
1832+277696149+276995817+277149984+278334360+279391956+280367662+281235965
1819+281597396+281506114+281131741+280276454+279061585+278337811+278137399
1805+277742985+276759785+275227782+274040843+273724276+273317931+271902848
1792+270520969+271163642+272565907+273011053+272545225+271962971+271818221
1778+272302093+272573894+271489576+269383775+269043938+270608036+272085609
1765+272857749+272757198+272637074+273304398+273996028+274536769+274468314
1751+272734297+270568496+270551881+271665509+272203810+271936077+271499387
1738+271549502+270831471+268419211+267994033+269937927+271852338+272999048
1724+273143058+272736590+271726348+268917158+266301627+267994846+271117003
1711+273138818+273665237+272868102+272079792+272314148+271754129+270002832
1697+270363475+273258498+276801889+279118529+280018927+280181622+279284256
1684+278594279+281906543+286301301+289369422+291054433+292606353+294380156
1670+296313870+300314756+305216163+308677565+311615087+315787445+320102851
1657+322945196+323824542+325872857+331824047+336358846+340918888+348784884
1643+356848678+363150157+367697134+370729610+375635455+384655506+392936203
1630+399475858+405323218+410939132+416685670+423375670+429533607+434005078
1616+438938359+445718385+451914629+456552396+460508861+464521481+468048725
1603+470951662+473606265+476116661+478283917+480267720+482445921+484686735
1589+487056966+489746573+492661441+495726284+498916995+501797499+503929504
1576+507486477+513600929+519219455+524993676+532821512+541304864+549424764
1562+555976720+560156079+567759296+581337737+594224574+606406839+617707342
1549+628580991+637968882+645526446+651896430+659848013+676042307+690988033
1535+701452724+712763581+725633261+736229193+745151577+753958398+761749652
1522+769336698+778973415+789987722+801821769+812571424+820071600+823869413
1508+824820000+831898104+846231898+855899478+861167173+863848695+866959438
1495+872531522+877133248+878684774+880223679+885620643+891217181+894225080
1481+895480599+896958567+898797916+898704342+896110084+896378482+901984683
1468+906951440+907841040+908229045+911390471+913143937+909960030+909799405
1454+917914275+925563836+931608329+937835140+944954313+952284004+959192067
1441+964828341+968344838+971475105+977557166+984995912+991312847+996976238
1427+1002139906+1005156187+1006756522+1008710547+1009621643+1011153646
1416+1016429919+1021659948+1024437510+1026144435+1027185688+1026247673
1404+1024659466+1024800765+1024266038+1020934029+1017163825+1015300613
1393+1016201356+1017722907+1016012728+1010761697+1008025647+1010718016
1381+1016046154+1020229802+1021363250+1020430855+1020122226+1021668329
1369+1022512769+1021931797+1021623464+1020194207+1017757615+1017511107
1358+1018100460+1017334311+1016176508+1015253580+1013603154+1012332254
1346+1012388063+1011880157+1009482514+1006251869+1004510728+1004655577
1335+1005425867+1006301368+1006466824+1006049732+1007059629+1009790551
1323+1011706121+1011800485+1012433815+1014871984+1017286587+1019379150
1312+1022506064+1026419834+1030186981+1033217067+1035855598+1038800983
1300+1041692333+1044396731+1047124794+1049911822+1052739080+1054805021
1288+1056080950+1057742419+1059762805+1061293328+1062203932+1062729390
1277+1062642224+1061719986+1060845471+1060947131+1061121561+1059638860
1265+1056783895+1054427665+1052679918+1051299864+1051662232+1053150158
1254+1053976554+1054695670+1056184089+1057699527+1058551658+1059388900
1242+1060263218+1060209775+1060214902+1061747299+1063773995+1064909316
1231+1064826390+1063457182+1062115484+1062275025+1062888832+1063049654
1219+1064217021+1067036489+1069529383+1070164094+1069906344+1069784076
1207+1069786146+1070008497+1070411490+1070840415+1071484493+1072143066
1196+1072705895+1073517796+1073741823+1072922625+1072184677+1071998513
1184+1072170379+1072147602+1071342800+1070286756+1069628578+1069006982
1173+1068001324+1066746989+1065177616+1063165020+1060646095+1058216603
1161+1057135219+1056506128+1054161929+1050649574+1047829908+1045640910
1150+1043534739+1041241222+1037749475+1033330461+1028798249+1023656964
1138+1018164355+1013038255+1008136182+1002958216+997009467+990804743+984926397
1124+978412551+970811799+963288056+956783972+951186251+945795993+939987260
1111+933726727+927615085+921770855+916119692+911971936+909671023+907265492
1097+903779168+900230822+897922909+896899799+896093222+895117245+894413117
1084+894325459+895000893+896114126+897046817+897925177+898855106+899375240
1070+900030854+901268723+902569599+904537232+907500365+909832831+911042598
1057+912288847+913853093+915535762+916589340+916391246+916389471+917289031
1043+917923643+918289265+919126704+920061860+920473628+920817261+921864233
1030+923212636+924133297+925298198+926990235+927891964+927838126+928346328
1016+930156787+932054214+932880413+932923602+932396960+931817862+932177074
1003+933382009+934686435+935566471+935639240+934876444+933689258+931995348
989+929514681+926917071+924862371+923348807+922142985+920449371+917835984
976+915031208+912487829+910170450+908116046+906210829+904386467+902729731
962+901552405+900804005+899914108+899355618+900248867+901613342+901707903
949+901846342+903327761+904706731+905981970+908744643+912465545+915151997
935+916520614+918087029+920285492+922057003+923336580+925297015+927405750
922+928251275+928722008+929692463+930561653+931015427+930548736+928854728
908+926824186+925361206+924356929+923109398+921404543+919542022+917716773
895+916225986+915515351+915662171+916176389+916087153+914605043+912318330
881+910591980+910281280+911755304+914113899+915592459+916425165+918713260
868+923355808+929463408+935767228+941590258+947039777+951053433+951860699
854+950493956+948846785+947363197+946524574+946320958+946427449+947137690
841+948148573+949216745+951358610+955245560+959471608+961277531+959277950
827+955000038+952653274+954673759+956971713+956903973+958215991+961626784
814+964132891+965829660+967888600+968833024+969055178+971166279+974008722
800+975527906+975487380+974618782+974261935+974729020+978528312+986919371
787+995236478+1000850566+1005525358+1009760181+1012919438+1016121488+1020756148
773+1026066538+1030874938+1034274096+1035264174+1034507885+1034265813
762+1035265949+1036321598+1036754467+1036828715+1037679762+1039488249
750+1041233038+1043063415+1044513872+1044150223+1041877313+1039320525
739+1038476084+1039300114+1040085490+1038722198+1035376680+1034189001
727+1035771982+1035998277+1034307917+1031935320+1028719564+1026149858
716+1027080872+1031308300+1033273369+1030800591+1028381058+1027036796
704+1024427156+1021175607+1019303817+1018361759+1017098944+1016631268
692+1017581608+1018574940+1018058060+1016405663+1016309130+1017260555
681+1016184002+1014409928+1014792904+1017443366+1021442823+1023643456
669+1021001868+1019006823+1023262452+1026367870+1023418344+1018111010
658+1018492705+1025771911+1031808220+1031083385+1028591182+1027892576
646+1025941804+1023221531+1021080060+1017290136+1014252951+1016766354
635+1022766772+1027642715+1030176233+1029315918+1026352685+1023384326
623+1018028874+1009323861+999182984+990316952+985355421+984642518+988581333
609+996004500+1005358521+1015733286+1024476359+1030367327+1029442623
##END=
