##TITLE=Sample description
##JCAMP-DX=4.24
##DATA TYPE=INFRARED SPECTRUM
##DATE=24/8/2023
##SAMPLING PROCEDURE=Instrument type and / or accessory
##ORIGIN=Default
##XUNITS=1/CM
##YUNITS=ABSORBANCE
##RESOLUTION=4
##FIRSTX=4397.6552
##LASTX=599.8556
##DELTAX=-1.9287962
##MAXY=1.4657093
##MINY=0.49477136
##XFACTOR=1
##YFACTOR=1.3650482e-009
##NPOINTS=1970
##FIRSTY=0.73843998
##XYDATA=(X++(Y..Y))
4398+540962571+540061809+539412163+539472726+539712883+539926491+540351656
4384+541164085+541756093+541670204+541110202+540515705+540065215+539646469
4371+539459365+539270776+539386881+540480249+541108499+539989543+537864244
4357+536141927+535562275+535554416+536030494+536893967+537345811+537587583
4344+537611861+537449296+537621511+537487896+536858336+536527662+536447450
4330+536117343+535850944+536231309+536607569+536102279+535551490+536020058
4317+536601892+536300954+535866794+535942334+536383219+536845892+536500284
4303+535145232+534149411+534555233+535585636+536093677+535956133+535601705
4290+535151520+534635401+534310360+533928642+533245068+532763227+533048839
4276+534359614+535540661+534821501+533055126+532143666+532406441+533408200
4263+533802756+532766764+531735661+531420183+531091998+531574669+533910128
4249+536136774+535903473+534082866+532292519+530623255+529399940+529675378
4236+530887035+531043923+530116743+529569753+529725899+529973347+529976753
4222+530019851+530037098+530078885+530462569+530481301+530130017+530296031
4209+530616531+530074301+528738461+527903720+527798793+527707709+528002010
4195+528577076+528211470+527130721+526959904+527856475+528888232+529902872
4182+530422484+529876586+528994032+528437523+527803771+526878556+526042462
4168+525422028+525150956+525329196+525532805+525567432+525756151+526356718
4155+526968812+526671672+525543896+525011272+525786848+526676606+526153501
4141+524781988+524362849+524807881+524772382+523646221+522135373+522293702
4128+524131774+525330724+525662883+525911904+525461588+524136621+522963739
4114+522512463+522411859+522570450+522649178+521913774+521136146+521476470
4101+522120221+522287327+522872611+523547058+523119536+522505564+522680005
4087+523025001+523046615+522817986+522086294+520836780+520273896+520808267
4074+520980656+520446547+520686224+521975167+522929375+522903613+522326931
4060+521647680+521459223+521704488+521198587+520012256+519439854+519322352
4047+519008358+518946965+519553863+520385897+520569944+519877550+519195069
4033+519175507+519199828+518516822+517695093+517669200+518074846+518283302
4020+518526123+518760341+518528655+517895384+517367126+517139807+517079593
4006+517320230+517608637+517298223+516875853+517310624+518179555+518429187
3993+518037207+517775131+518148902+518734361+518794225+518191781+517393238
3979+517104569+517054617+516509417+516032422+516222539+516654647+516840397
3966+516779877+516631635+516527014+516955454+517548030+517253598+516531075
3952+516265505+516135471+515935137+515934831+515369284+514403374+514839280
3939+516028231+516292185+515151309+512672760+511050261+512093764+513542652
3925+513260970+512715683+513255424+513349260+512329642+511540530+511640654
3912+512318857+513705391+515272916+514636500+511434163+509502385+509533824
3898+510467641+512327284+513230361+511351243+509843976+510899486+510331712
3885+508331905+508739211+508867760+509183894+511541098+512631279+511862209
3871+510468907+509288646+510596933+511353514+509583733+509099839+510511830
3858+511610307+509537623+502095252+500060644+505631408+510958347+513509117
3844+512986099+510955246+508611098+505687692+504267186+505230259+506778309
3831+508473641+510135177+511182653+512388633+511341681+505489584+503701595
3817+506084649+507182297+509351567+512423259+513538722+511464641+509856682
3804+509643336+506463747+504746408+506772109+508582716+510829666+513242674
3790+514243691+514246093+513601949+512842791+512775635+512264799+511393161
3777+511755143+512483517+512340121+510829535+509244282+508971115+509273145
3763+510358391+510874161+509100843+508003895+508808594+508295882+504153090
3750+501651705+504828280+506957073+505357061+506429121+509496141+509968115
3736+506147134+502195944+502837686+506336639+509439639+510065226+508873175
3723+508391988+509175292+510514231+511922249+512555520+509579934+503452444
3709+502658704+506972836+511122789+512181574+510476374+509728307+510649156
3696+511721740+511744052+509575786+505632456+504196187+506463791+509313142
3682+510689939+510060815+507452058+501711744+498827854+501777416+501419277
3669+498780740+500400532+502671891+502962131+502316328+501313782+498759431
3655+496904111+497954557+496683385+488557747+483946344+486801546+489669673
3642+489843590+488247901+485990166+483424505+480991892+478917505+473951020
3628+466205310+464782097+466752081+467059656+463968009+458706742+455702381
3615+453920593+451260005+448544487+445358175+442635627+442106496+441443838
3601+438811327+436415174+435618246+434528895+433014074+432575024+430985753
3588+425804131+422297886+422782392+423139134+421991796+420539983+419415263
3574+418342330+417267214+415893517+412719256+408144357+406272095+407001385
3561+407771066+407263287+405718206+404033266+402509886+401688332+401620695
3547+400985240+399685992+398736849+397947170+397043569+396319038+396190271
3534+396284805+395196371+392774543+390946339+390559861+390328568+389873056
3520+389869432+389786643+388884353+387697542+386621508+385182664+383828311
3507+383501042+383404849+382891175+382545917+381981723+380866523+379985628
3493+379419382+378437359+377129946+376201456+375777164+375299078+374671221
3480+374676854+374951593+374359279+373084090+371760084+370724048+370182429
3466+370101343+370309406+370038772+368995138+368305364+368398719+368531810
3453+368445703+368301565+367893866+367091437+366319311+365840308+365596941
3439+365369185+364937384+364574922+364261277+363759109+363315867+362952553
3426+362620177+362509180+362607426+362608584+362457066+362651921+363145640
3412+363202906+362814856+362562321+362591991+362792849+363158390+363678809
3399+364026731+363894317+363787884+364042538+364159931+364321840+365230855
3385+366504057+367427045+368075861+368442384+368615035+369149624+370081825
3372+371147728+372270265+373446378+374755974+376098276+377232776+378238815
3358+379674996+381560751+383107404+384293385+385591367+386670326+387269058
3345+387897265+388794840+389903971+391375128+392632938+393001775+393082467
3331+393361966+393367686+392999897+393040724+394003709+394978876+394671345
3318+393647447+393661202+394973418+396067310+395952079+395355704+395010795
3304+394815875+394764831+394843122+395024899+395373083+395604026+395755412
3291+396282534+397162556+398316837+399569189+400556670+401604059+402647300
3277+403019761+403001466+403370696+404331323+405295792+405625506+405572016
3264+405951638+406851004+407640028+408495859+409562417+410055481+409946537
3250+409901213+409923744+409948022+410473747+411222512+411348485+411192645
3237+411387739+411986385+412862826+413621110+414028765+414384808+415250202
3223+416388720+416541198+415661918+414687755+413848604+413818082+414863856
3210+415698728+415585112+415245792+415634410+416576916+417274811+417803898
3196+418421101+418747976+418680733+418633967+418855610+419283788+419698779
3183+419938936+419963825+419994259+420694294+422142745+423621543+424540470
3169+424506368+423912875+423889864+424499600+424929742+425172650+425562053
3156+426050052+426446310+426424696+426075246+425842207+425901635+426418889
3142+427150581+427400169+427269699+427159270+426943522+426955661+427520990
3129+428071036+428258883+428287090+428145048+427863716+427929955+428492184
3115+429275837+430063202+430421560+430318249+429948102+429230120+428601128
3102+428363853+428500480+429123491+429670655+429606599+429331423+429483158
3088+430050758+430416320+430658092+431095047+431231761+431117752+431271365
3075+431376205+431310358+431554969+431910095+431986596+432142043+432446125
3061+432494025+432288626+431881626+431358739+431339483+431971750+432484550
3047+432696936+432988705+433037391+432598865+432167543+432023929+431988255
3034+431985504+431990045+431974108+432206230+432762564+433122363+433079658
3020+433128738+433401512+433577700+433489453+433057477+432741299+433098958
3007+433751268+434204247+434585747+435136099+435738849+436179253+436528484
2993+436976486+437703549+438680201+439666634+440519758+441223374+441879351
2980+442340278+442302202+442163915+442542577+443088300+443076773+442733349
2966+442685885+442754570+442584102+442392675+442194437+441822019+441635920
2953+441894459+442382807+442961192+443551366+443880818+443750347+443581801
2939+443867063+444136869+444131803+444579019+444980212+443968278+442370887
2926+441855292+442240853+442637548+442682348+442244084+441413404+440564952
2912+440342304+441152681+442457867+443402906+443679479+443643368+443824272
2899+443967755+443964305+444543083+445239668+445024401+444607008+444806120
2885+445106665+445183035+445329793+445571783+445564011+445167971+444956196
2872+445384330+445916561+446116721+446322251+446614457+446629958+446347795
2858+446026422+445902588+445909968+445658589+445305952+445204125+445208448
2845+445414328+445919661+446267059+446469184+447146688+447955885+448175126
2831+448366247+449090123+449914167+450514340+450955268+451252277+451385367
2818+451420692+451596050+452178059+452989964+453611096+453925134+454133241
2804+454429420+454716123+455066796+455600249+455816259+455597193+455655354
2791+456159771+456730427+457273443+457730003+458119363+458430344+458617055
2777+458967116+459241506+459269015+459757363+460464821+460481850+460317758
2764+460815886+461440731+461602553+461719574+462152206+462767444+463256316
2750+463380106+463295570+463505336+464194237+464971035+465415238+465402793
2737+465187744+465110500+465403710+466163959+467014900+467559619+467806893
2723+468027270+468485533+469074004+469523708+469663785+469742382+470243917
2710+470987093+471496618+471731666+471873227+472218398+472790190+473090080
2696+473198762+473775356+474576781+474962211+475074168+475230226+475463615
2683+475827518+476348745+476950622+477469186+477787066+477940417+477973777
2669+478075952+478417892+478750837+478706255+478282182+478005303+478369992
2656+479138362+479736658+480053971+480284041+480414512+480541271+480889935
2642+481253401+481369724+481472424+481785763+482122856+482455975+483038857
2629+483719811+484125283+484335791+484573153+484795408+485048183+485522166
2615+486128321+486549382+486821457+487414426+488467623+489507152+490053749
2602+490071477+490069687+490589866+491393736+491997665+492468940+493002743
2588+493578028+493930359+493921714+493992189+494433510+495050800+495685207
2575+496251584+496686180+496859136+496773684+496762768+497004453+497512843
2561+498154018+498652627+499079582+499425190+499499071+499481255+499542997
2548+499725560+500117671+500632436+501106855+501567519+502045038+502468238
2534+502942438+503435109+503687841+503825385+504132131+504629256+505154588
2521+505526568+505769170+506032251+506429514+506881315+507143566+507426427
2507+508143055+508982512+509391739+509432216+509560460+510012697+510523750
2494+510771679+510867742+511018168+511198241+511379538+511489311+511487347
2480+511598517+511823217+511938317+512025472+512255368+512557529+512695859
2467+512554778+512273052+512024730+511732525+511305177+511000134+510921712
2453+510819798+510657452+510554097+510463187+510388477+510306387+509993266
2440+509600544+509485443+509496709+509330477+508920333+508382818+507924381
2426+507620779+507389836+507112476+506694167+506242672+505913658+505583813
2413+505246284+505015602+504720733+504255441+503683999+503052474+502501860
2399+502158828+501890552+501474207+500820762+500035581+499484006+499186954
2386+498631319+497540221+495880127+493677409+490972414+487579741+483786400
2372+480335959+476982846+473230943+469614357+466608991+464369726+463206057
2359+463136543+463961329+465755125+468949996+473073182+475836862+475238304
2345+471919512+469001782+467869421+467553244+467600009+467851693+468006747
2332+468064123+468473263+469516067+470766934+471724287+472590161+473771907
2318+475274939+476717495+477608389+478138655+478906633+479910750+480915435
2305+481818381+482443487+482828829+483174131+483459394+483635057+483905212
2291+484465912+485043686+485323665+485522864+485838823+486115353+486205128
2278+486163078+486211328+486453406+486759933+486971009+487116457+487397921
2264+487730254+488005605+488527662+489150148+489428817+489721328+490403810
2251+491199078+491969108+492707568+493252550+493638023+493950052+494162220
2237+494434863+495027832+495873533+496662033+497281725+497746799+498208337
2224+498924572+499790403+500586893+501211214+501655809+502220221+503029681
2210+503912016+504819853+505641014+506301009+506972399+507629250+508168118
2197+508877629+509887510+510879881+511763221+512771749+513987553+515158121
2183+516015131+516743199+517602174+518455604+519289472+520226651+521215791
2170+522388324+523653164+524600779+525347448+526117303+526846506+527620466
2156+528528390+529558531+530615614+531505155+532103189+532403515+532568481
2143+532718470+532811607+532805058+532629569+532370330+532182266+531909404
2129+531366431+530568412+529472948+528055237+526578230+525340855+524197490
2116+522819340+521317661+519923922+518435431+516689666+515024856+513636837
2102+512180046+510435111+508612976+506936507+505369943+503844161+502437454
2089+500969791+499094341+497069252+495542815+494402071+492902052+490960581
2075+489035484+487390498+486107668+484878196+483334119+481789824+480614584
2062+479418385+477764928+475962573+474551849+473517559+472428295+471083374
2048+469647105+468251140+466916785+465717704+464595866+463264612+461621721
2035+460015422+458764686+457813840+456982417+456043229+454875936+453627951
2021+452450266+451265682+449980319+448841932+447976538+447074510+446082051
2008+445181114+444251882+443210213+442205397+441225470+440197730+439210467
1994+438201896+437003165+435898138+435167669+434532650+433842702+433142492
1981+432333426+431464932+430686300+429983034+429306097+428627763+427759182
1967+426618350+425655365+425171078+424837260+424355942+423629141+422692442
1954+421883900+421338526+420778567+420071982+419232962+418107762+417006753
1940+416711447+416792969+416451860+415889281+415443943+415014107+414424413
1927+413682328+412714278+411623180+410937991+410397464+409827769+409879511
1913+410117660+409628220+408704010+408270330+408270548+408171604+407940879
1900+407623566+407054220+406187298+405442331+404943766+404317918+404004884
1886+404309927+404613048+404687584+404585408+404323332+404032611+403800969
1873+403408335+402092276+399963221+399362960+400660636+401781906+401956784
1859+401665495+401455205+401473719+401436080+401153918+400635528+399716558
1846+398139645+396785248+397260147+398343167+398635547+398595899+398576206
1832+397674658+395608349+394395514+394684138+395116595+395668432+396218260
1819+396251969+395941119+395497746+394652481+393541778+393117356+393356290
1805+393349041+392583116+391038690+389832710+389734158+389544565+388071400
1792+386497413+387236135+388849552+389311046+388666858+387659029+386761454
1778+386422004+385997450+384191864+381421809+381030790+382917549+384488567
1765+385025034+384334255+383510780+383818835+384182040+384328011+384085016
1751+382126342+379557363+379377638+380461400+380813776+380216964+379457458
1738+379377420+378630707+376112074+375861045+378248203+380452973+381615026
1724+381611533+381095021+379905896+376368125+372782846+374337709+377549740
1711+379391567+379415277+377504634+375479938+375168826+373918046+370749155
1697+369897123+371893786+375037482+377049995+376997204+375777688+372912444
1684+369139057+370513540+373806307+375345144+374638516+373114263+372063075
1670+370689509+370932373+373135222+373805696+372676610+372757695+373757184
1657+373386033+369741589+363452691+363611718+365279934+364749363+366478688
1643+370352504+372567142+372570591+370735619+369650547+373836611+379160537
1630+382456361+384429881+386672072+389626524+393919043+398427353+401316482
1616+404370665+409815062+415036201+418846048+422309457+426247373+430170880
1603+433840606+437619887+441505231+444978945+448094172+451579545+455575666
1589+459631521+463377879+466936434+470571316+474047956+476661517+478121539
1576+481009664+486775697+491371773+494166543+498248902+503873810+509049406
1562+512608660+512935492+512947063+520402795+529104067+536715290+543497491
1549+549978318+554989778+557263233+556912168+556858285+565590909+577126773
1535+584963088+591773191+599535757+606351580+611648128+616107359+619471256
1522+623237089+630001519+638009262+646429638+654909311+661997909+666407493
1508+667254155+670843712+681969171+691393708+697420158+701307335+706525199
1495+713973988+719560646+722170364+725559980+733457950+742099401+748813398
1481+754435075+759520722+763437547+765810558+767810409+773432610+782198157
1468+789309853+794542738+801657142+809912596+814996671+816018341+820165193
1454+830733226+841293923+850432368+858278769+866266558+874848101+882623591
1441+888885132+893767126+899581103+908547596+917460293+924782891+932344074
1427+940088300+946171427+951207907+954932957+956446905+960383467+968389595
1414+975810351+980673482+983275908+984899979+986578805+989012772+992381691
1400+994698025+994852424+993376028+991553718+993849093+998412071+998353211
1387+993608325+991755537+994214218+998116460+1002298419+1004296960+1003223153
1373+1003130846+1005480016+1007623611+1008966218+1009038178+1006570764
1362+1004721644+1006388594+1008277100+1008129949+1006590326+1004723827
1350+1002886148+1001472280+1000598109+1000229228+999842445+998618519+998117683
1337+999143545+999642110+998887058+998611707+1000849881+1004877440+1007979480
1323+1008833041+1008978270+1010559375+1014253160+1019098650+1023858121
1312+1028389486+1031889923+1034057098+1036368890+1039288935+1042477168
1300+1045815260+1048933892+1051189706+1052983983+1055555145+1058285596
1288+1060116027+1061803936+1063544767+1064590715+1065830186+1067548661
1277+1067992820+1067927410+1069357958+1070913737+1070360853+1068064081
1265+1065837172+1064560325+1063582668+1062618897+1062477860+1063177458
1254+1063426173+1062931450+1063100608+1064001676+1064430902+1064447145
1242+1064365579+1064096167+1063761694+1063415257+1062790151+1062109416
1231+1062470524+1063765537+1064246811+1062892152+1061285198+1061486842
1219+1062631997+1063842474+1065713950+1066945649+1067064941+1068735559
1207+1071785812+1072640508+1071218081+1070575684+1071717695+1072533616
1196+1071092326+1069239364+1069328615+1070345832+1070897232+1071358420
1184+1072161068+1073257230+1073741823+1072868351+1072083606+1072093387
1173+1071150488+1068701238+1066840067+1066550918+1066388922+1066546115
1161+1067330773+1066808628+1065344720+1064889820+1064857770+1064053637
1150+1062427209+1059637460+1056060085+1053235492+1051773680+1051007886
1138+1050109088+1049404599+1048279443+1044656918+1039610745+1035889276
1126+1033691099+1031418692+1028092827+1024455369+1020799659+1016347764
1115+1011864256+1008489136+1005492766+1001758634+997214082+992827684+989184201
1101+985804540+982816728+980013182+976357472+972535748+969607844+967104625
1088+965210007+964078388+961666603+957554333+954386709+951929251+947669568
1074+942879096+939916522+938300835+936427612+933128120+928752988+924403706
1061+920958198+918515761+915710817+912597687+910111497+907473266+904619941
1047+902380370+900599106+898624843+896427801+895058820+894718758+894002218
1034+892405132+890567976+889116382+888275746+886885980+884052218+881030435
1020+879653332+880401573+881416170+880673605+879082196+878471586+878552366
1007+878569221+879143850+879911566+879714201+879583992+880424192+881115756
993+881487780+882275669+882900601+882398804+880703035+878489489+876586749
980+875280820+874078027+872095730+869460905+867283076+865468539+863122862
966+860590649+858623285+857214133+856221980+855248428+854180298+853972977
953+854893083+856453753+858490369+860293816+861359588+862680624+865443300
939+869323622+873188923+876620895+880217831+884732604+889357848+892973474
926+895867843+898336043+900820050+903831965+906610710+908352851+909470671
912+910193674+910430687+910719574+910822448+910574956+910373224+909174711
899+906898025+905131169+903876591+901916999+899558659+898419268+898216663
885+897437508+896513821+895973949+894655182+892887454+892934874+895228327
872+898193870+900425756+901065534+900501297+901060294+904630595+909815973
858+914577714+919594370+924960782+928433711+929659995+931315504+935506720
845+940895052+944980599+948308560+951851789+954797945+957577388+960729817
831+962536320+962498680+963304734+965763415+968103939+970384555+972987592
818+974781345+976390919+980511747+986301621+990096360+991279416+991364737
804+993106528+998015332+1003075042+1005802175+1007381446+1009476224+1012356271
791+1015927533+1020089930+1023772188+1025994730+1027840531+1031266214
779+1036230735+1040980075+1044659189+1048103736+1050574556+1051218612
768+1052853163+1054749703+1053183706+1051238960+1053292781+1057425398
756+1059457823+1057983086+1054698789+1052092608+1049653489+1044376066
745+1038468646+1038471092+1044228479+1049801076+1052201858+1051045961
733+1047405447+1043115461+1039614762+1039139339+1039909762+1038608898
721+1037631154+1038196789+1037716563+1034922448+1031258879+1031365072
710+1035145750+1034907515+1029088473+1024929307+1025702961+1027118401
698+1026347193+1025833170+1026743844+1028712169+1030469942+1029890946
687+1029995305+1031606713+1028334555+1022541188+1022303302+1025620871
675+1027928734+1029241038+1029870249+1029736023+1029656815+1031371010
664+1033881565+1037342180+1042872859+1047658441+1046029392+1036731047
652+1028585279+1029376923+1032883299+1028419352+1017850883+1006134639+997104221
638+1003609151+1021320755+1029502503+1027911530+1020868824+1017754820
627+1034479075+1052094617+1040319862+1026508229+1033476268+1031862152
615+1017346205+1021443716+1048973365+1070498833+1052352414+1022991897
604+1022501104+1039527170+1045702430
##END=
