##TITLE=Sample description
##JCAMP-DX=4.24
##DATA TYPE=INFRARED SPECTRUM
##DATE=24/8/2023
##SAMPLING PROCEDURE=Instrument type and / or accessory
##ORIGIN=Default
##XUNITS=1/CM
##YUNITS=ABSORBANCE
##RESOLUTION=4
##FIRSTX=4397.6552
##LASTX=599.8556
##DELTAX=-1.9287962
##MAXY=1.2850789
##MINY=0.34276563
##XFACTOR=1
##YFACTOR=1.196823e-009
##NPOINTS=1970
##FIRSTY=0.48459798
##XYDATA=(X++(Y..Y))
4398+404903642+404861534+404918632+404785560+404667304+405288141+406120986
4384+406229107+405851082+405591811+405444072+405408962+405057506+403630145
4371+401824360+400973760+401403779+402451596+403247164+403840634+404484803
4357+404675746+404386245+404002791+403251721+402217724+401747789+401775429
4344+401123341+399990113+399934409+400625417+400813297+401010863+401223469
4330+400153490+398491036+398277334+399159583+399164862+398110172+397200208
4317+397184470+397937532+398625353+399025515+399241035+399151266+399267804
4303+399400602+398970733+398703717+398876133+398655384+397926825+397486771
4290+397697659+397887132+397591953+397676468+398624183+399148403+398294640
4276+397166915+397062006+397318912+396795215+395847052+395493405+395831837
4263+395998526+395725410+395494202+395675308+396304487+396762345+396790085
4249+396824050+396717349+396401303+396368259+396352422+396069121+396044743
4236+396186779+395926960+395195687+394662278+394810017+394559710+393603504
4222+393428573+393978068+393851694+393280511+393282104+393650966+393960214
4209+394058026+393548398+392883586+392863167+393344283+394132704+394855437
4195+394807427+394086637+393072760+392219346+392185655+392812020+393165990
4182+392752879+392331103+392591046+393162454+393556416+393480492+393269280
4168+393235639+392869566+392337552+391887887+391043960+390741186+391862039
4155+392647597+391841570+390776073+390858795+391810045+392328663+391956962
4141+391402363+391262443+391438793+391365136+390569144+389586394+389494060
4128+389832791+389652930+389405188+389469756+389577006+389428371+389129208
4114+389484697+390372101+390507738+389544012+388237994+387590961+387888107
4101+388044835+387534884+387239331+387569945+388212346+388711440+388198177
4087+386743847+385949499+386278021+386670190+386660802+386557860+386480990
4074+386254987+386047137+385933239+385812642+385847404+385764185+385463826
4060+385360511+385252938+384847721+384471564+384116722+383677514+383637672
4047+383771790+383688819+383944878+384644627+385124548+384815051+383808918
4033+382845690+382580168+382641699+382016405+380997922+380541881+380509161
4020+380554705+380648608+380766241+381098597+381544328+381504561+380920280
4006+380485081+380523255+380608766+380326013+379678681+379236486+379725720
3993+380572435+380668055+380187836+379633286+379195150+379091909+379071217
3979+378938070+378737117+378429861+378273407+378002258+377349921+377104794
3966+377494423+377729764+377415785+377096079+377278978+377693782+377831237
3952+377534240+376806652+375971590+375852687+375929707+375605642+376021293
3939+377007978+377362148+376600893+375135608+374904674+376096321+376291372
3925+374967176+374189412+374273204+373593028+372806549+373861115+376139549
3912+377870680+378267306+377003098+373755633+370195136+369130560+370006559
3898+371839586+374106665+374965209+373296804+372141214+373000330+372257851
3885+370411602+370729515+371493932+372839244+374463873+373718854+371804276
3871+370492082+370044135+370931613+370731856+370140901+371789011+373574701
3858+373942442+371766351+365220176+363928551+369785810+374656807+376167214
3844+374817271+372391371+369781577+367243572+367615372+370637256+373144110
3831+374368576+374946607+375262280+375939368+374848322+370531650+369445510
3817+370855615+372255286+375834584+379320502+379587568+376118632+373622885
3804+373534510+371904777+371724194+374341060+376922343+379578877+381707506
3790+382309941+381820632+380714745+379967560+380558889+380790594+380226981
3777+381212794+383018380+383505870+382023278+380481296+380748885+382303641
3763+384330698+384771498+383061309+382858887+384536805+384067442+379738494
3750+378349953+382330833+384806161+384415162+386472001+389611170+389669115
3736+386338556+385852285+391148520+397619046+402572192+405823616+408722962
3723+412913684+419323973+428575913+439675919+450793108+461186618+473509173
3709+490462953+508517514+524756580+538899263+551439306+562960043+573548529
3696+582554146+588616143+590571783+587678364+583859168+584147872+585384167
3682+584147822+580233554+574541290+565443489+557888317+556512576+553006737
3669+549014627+550178807+552064724+551780602+549960474+548020671+545516806
3655+544087079+545011511+542941574+533723898+528602071+531921401+536157442
3642+538870179+540792103+541869826+541692978+541537047+542067143+539577173
3628+534668202+535673363+539227660+540977866+539483595+536080149+535491834
3615+537299710+539160278+540100098+539483595+539610641+541790690+543257321
3601+542926534+542541362+542580158+542100063+542237318+543735424+543741052
3588+540968154+540923979+544721113+547922410+549060545+548994556+548673779
3574+549230620+551303345+553131990+550609797+544853239+544392019+548511971
3561+552547758+555796218+558511743+559345933+558409250+558374090+559926330
3547+560824018+560629142+561955130+565152992+568075844+569653883+570795702
3534+572450486+573732499+573912734+574184406+574919191+574969142+574990806
3520+576136510+577832780+579501060+580906235+581784998+582351998+583123039
3507+583967737+583934818+583671562+585109656+587097120+587614666+587407538
3493+588046503+590167686+592593959+593188401+592708804+593029133+594091667
3480+595358639+596256626+596343482+595981468+595543456+594939204+594712951
3466+595507200+596214643+596165289+596689260+597961511+598812535+598603962
3453+597395657+596358871+596383871+596876666+597126176+596909635+596606388
3439+597425937+599821979+601991073+601896050+600473195+599857090+600177768
3426+600488684+600435047+600146492+599898127+600449689+602164734+603678228
3412+603891831+603803581+604320828+604966467+605283260+605055065+604160515
3399+603227317+603028656+603715829+604364854+604594044+605693283+606750986
3385+606009279+605117119+605291029+605642484+606015654+606605264+606782461
3372+605827550+604668449+604874731+606041401+607092132+607867755+607982499
3358+607386813+607015636+607394483+608110392+608472704+608223643+607899230
3345+608185892+609169041+610738763+612116895+611858520+610633281+610367337
3331+610913370+611510650+612038804+612030139+611709561+611575692+611088724
3318+610404738+610244076+610168027+609722246+609584443+609980173+610103782
3304+610146114+610261606+609841822+609622990+609951885+610025593+610000642
3291+610303092+610776662+611065765+611146993+611751843+612973844+613620977
3277+613625608+614149828+615026599+615454601+615904117+616786018+617739933
3264+619073840+620049967+619478335+619047096+619337494+618823085+618659186
3250+620139163+621643893+622556671+624115884+625573451+625794723+625658862
3237+625735607+625854187+626154296+627008506+627915308+627737713+626652170
3223+625385696+624404340+624263698+624369926+623818912+623216602+622795374
3210+622222397+622140572+622284152+621851120+621026891+619879643+618563117
3196+617717124+617487385+617186728+616552246+615945404+615335822+614577631
3183+613585816+612371733+610941110+609914683+610199353+610620781+609770754
3169+608448301+607650367+607454694+607391644+606785051+605533417+603969622
3156+602445071+601524773+601108624+599972632+597840840+596312255+596224504
3142+596199304+595081240+593350209+591518726+589664134+588377440+588053226
3129+587794802+586661449+584823491+583007945+581632603+580486749+579393985
3115+578458796+577593031+576536523+575507556+575149726+574914908+573692906
3102+572135635+571359415+570989931+570332191+569712002+569481766+568956699
3088+567814033+566632023+565745640+565172215+564800789+564972856+565826768
3075+565970996+564865134+563776503+562914424+561588535+560420868+560369771
3061+560404832+558815837+556205942+554569834+554214843+553721301+552368021
3047+550974301+550270792+549651500+548166243+546061494+544247642+542875337
3034+541549796+540198309+538948518+537765611+536655018+535446015+533739238
3020+531742112+530182799+529153085+527957080+526573421+525691022+524966098
3007+523797933+522695010+522014659+521185300+519735353+518051236+516862054
2993+516250531+515650013+514724536+513671863+512795141+512160260+511597842
2980+510986617+510354924+509654652+508703775+507469074+506151403+504854847
2966+503627467+502563240+501423961+499883025+498145370+496748811+495910039
2953+495272369+494393357+493262146+492195080+491361886+490570426+489751177
2939+489025805+488244455+487263647+486205047+485204866+484305136+483449083
2926+482469520+481211561+479734671+478192640+476613655+474932874+473424858
2912+472627920+472308936+471882876+471515235+471329970+470844845+469922554
2899+469091900+468572611+467966516+467170574+466452523+465651302+464517700
2885+463548894+463220796+462976864+462307769+461573582+460925304+460156903
2872+459169920+457762205+456219078+455237274+454724708+454037484+452992531
2858+451995337+451312945+450578509+449335840+447726526+446535203+446085039
2845+445715555+445285412+445059010+444619554+443884570+443321405+442936432
2831+442577656+442334471+441912246+440851306+439568346+438774446+438455263
2818+438225674+437831139+437320366+436817959+436216396+435582561+435277173
2804+435192708+434707633+433803570+433078945+432598004+432033743+431500757
2791+431195967+430878477+430461979+430244741+430125664+429715591+429111139
2777+428595236+428167683+427757709+427256797+426676450+426267771+425917661
2764+425416698+425103939+425073410+424993876+424784507+424372591+423764305
2750+423185850+422702667+422408086+422277803+422056830+421700892+421250529
2737+420840655+420539500+420036745+419268344+418633165+418336492+418207254
2723+418245154+418530422+418781725+418885762+418847514+418478528+418009738
2710+417667222+417143949+416524457+416224024+416091848+415822865+415553609
2696+415688250+416234407+416483768+416099418+415631400+415472331+415448177
2683+415336744+415066716+414684707+414448245+414363805+414032694+413542289
2669+413338249+413393131+413414048+413373185+413520924+413814982+413806964
2656+413478119+413286330+413352119+413407748+413264168+413003851+412840673
2642+412892219+413106369+413241881+413169145+413077384+413132989+413386508
2629+413764533+414066709+414288977+414581914+414993979+415452087+415743829
2615+415783945+415930663+416387575+416838510+417151269+417448142+417779950
2602+418186537+418562096+418788448+419050857+419634292+420454687+421081201
2588+421260041+421171642+421246595+421750346+422452460+422865720+422925882
2575+423008155+423217475+423302487+423156168+422935842+422857652+423084452
2561+423424254+423490342+423433268+423499406+423553939+423581829+423628942
2548+423634420+423525702+423242127+422951430+422897544+423082659+423324500
2534+423301143+422968761+422775429+422895900+423149942+423361702+423287397
2521+423103327+423282815+423686962+423755191+423449653+423356822+423649660
2507+423912616+424058637+424204408+424335787+424462733+424534598+424592618
2494+424677382+424742972+424850096+424936404+424922559+424831819+424630966
2480+424347939+424087472+423954849+423949819+423932338+423772423+423618035
2467+423659421+423631781+423351094+422954518+422504703+422178945+422109172
2453+422085416+421900052+421591974+421225628+420852459+420588207+420298158
2440+419783052+419243144+418926301+418724602+418360148+417747977+417171240
2426+416918742+416872725+416755017+416341184+415667009+415114501+414734584
2413+414277423+413719212+413132515+412650179+412319118+411943981+411403177
2399+410905925+410645060+410376526+409870285+409261674+408779687+408414835
2386+407678481+406228186+404437740+402700135+400839219+398478112+395519676
2372+392183339+389022207+386489756+384256791+382095591+380422231+379604376
2359+379668497+380166296+381153828+383399891+386575739+388942249+389007167
2345+386854334+384671744+384080615+384235625+384276961+384321135+384359533
2332+384321160+384264585+384139631+384220460+384662755+385317382+386313455
2318+387555377+388661215+389562140+390237610+390708939+391290955+392134608
2305+392981547+393457434+393472549+393433429+393733638+394167093+394325489
2291+394302381+394425742+394644548+394829788+395049093+395191578+395111222
2278+394936739+394885443+395048894+395245962+395308489+395405081+395640945
2264+395756735+395614898+395573164+395875215+396304138+396725168+397145824
2251+397430121+397549298+397751122+398163560+398601473+398923620+399355705
2237+400153141+401052921+401734367+402327862+402946457+403481385+403955255
2224+404518146+405151458+405852950+406767770+407850449+408985296+410178362
2210+411389058+412598410+413855447+415182282+416553143+417912424+419409434
2197+421298837+423448458+425547330+427578421+429700600+431976968+434383469
2183+436966918+439726917+442469734+445138544+447940726+450915124+453860736
2170+456605047+459133315+461708596+464555600+467456689+470100299+472436629
2156+474425089+475959750+477082993+477922960+478535081+478772290+478503954
2143+477855727+476773272+474974609+472449030+469404908+465912416+461885146
2129+457315328+452470353+447714125+443007749+438053158+432887057+427802183
2116+422970355+418417022+414097262+409921232+405883778+402004371+398210922
2102+394551518+391088085+387751424+384650553+381858532+379132274+376349142
2089+373637801+371119966+368814962+366638100+364591968+362735012+360906940
2075+358979712+357057390+355220802+353526948+351941215+350309066+348702092
2062+347244103+345826901+344396053+342992273+341601567+340226249+338794081
2048+337241990+335785046+334530822+333323264+332231072+331322627+330357656
2035+329262701+328195510+327191967+326266464+325452195+324674332+323929612
2021+323199633+322242556+321061417+320108224+319481910+318799567+317947996
2008+317073068+316153790+315130750+314102529+313185767+312422645+311725636
1994+310777000+309511297+308525384+308099424+307781759+307276016+306649502
1981+306063776+305562366+304986077+304311778+303685139+302951475+301823476
1967+300682379+300234058+300174071+299866964+299351111+298663116+297817795
1954+297158013+296745326+296270186+295578680+294674343+293526298+292722911
1940+292985992+293546443+293536657+293116499+292657296+292352232+292196998
1927+291807817+290809204+289833800+289661409+289614296+289499526+289991374
1913+290492984+290274650+289859074+290040156+290627899+291049850+291240941
1900+291284494+290969195+290352467+290004921+289818660+289339710+289217894
1886+289685364+290042646+290212721+290356351+290462057+290485763+290392533
1873+289880714+288287884+286396264+286718884+288752042+290306101+291002263
1859+291353918+291716006+292232532+292761060+293016546+292808422+292195354
1846+291284867+290992975+292580003+294585421+295658762+296339511+297040405
1832+296864702+295830207+296080389+297632505+299051799+300552743+301926393
1819+302590483+302746016+302589337+301817052+300724835+300389142+300733252
1805+300759398+299943062+298629450+297925070+298015710+297800240+296520219
1792+295633089+297284910+299545590+300507174+300534416+300419945+300621919
1778+301497270+302084964+300987543+298729702+298741779+301149799+303455849
1765+304609546+304435213+304277738+305034909+305767178+306371256+306029014
1751+303504431+300801506+300969141+302372298+303069134+302968284+302761927
1738+303034919+302330788+299997148+300354156+303508689+306627938+308511539
1724+309094476+309215869+308540200+305737023+303838854+307433242+312393237
1711+315771930+317225289+317204172+317481198+318945936+319799051+320115794
1697+323149183+329577651+336207221+340451978+343256973+345493051+346648939
1684+349447136+357020710+364938444+371320421+376525194+381776806+386740884
1670+391981465+400306856+409105121+415710113+422100905+430108283+437676005
1657+442741506+445287553+451029570+461463519+468335452+475099762+486358887
1643+497516366+505928836+511505110+514372931+518677003+527962808+536295843
1630+541625546+545257833+548418691+551308674+555101027+559027945+560658675
1616+561133341+563788456+566728042+568016828+568425656+569186188+569964948
1603+570415660+571082962+572083542+572819223+573627317+575641076+578638284
1589+581896057+585456380+589486240+594166569+599494778+604358330+608354523
1576+615409480+625646511+633755386+641414844+651927929+663228839+673485989
1562+681308301+686038134+694965711+710666113+724516656+737008390+748576191
1549+759405521+767802951+773709913+778555785+784417925+798741640+813981371
1535+824029053+832879685+842832742+850830807+856670535+862420719+867360419
1522+871479376+878454499+887674515+897226116+905841232+911250369+912652705
1508+910349145+911778374+923298962+932838510+937044820+937090140+937117731
1495+940154481+942210025+938983528+933504269+934472726+938411796+939763931
1481+939017094+938382413+936793916+931796047+923924878+919007092+920430344
1468+922005893+919726437+917189902+917981162+918244019+914442105+912873927
1454+919112473+926505638+932665298+937537565+943071308+949905690+956775631
1441+963676847+970124464+974760569+979649669+986658559+992469103+996487957
1427+1001277851+1005863357+1009674733+1012953026+1013704544+1014730572
1416+1019548157+1024043321+1026426465+1027993845+1028200426+1025686600
1404+1023129447+1023127654+1021957597+1018083568+1014967532+1013981843
1393+1015140147+1016062189+1013211600+1007940415+1006776832+1010154828
1381+1014231353+1017120191+1017504167+1015533586+1014275379+1015099708
1369+1016811516+1018935089+1019433711+1016133406+1012779713+1013835225
1358+1016560213+1017275574+1016000035+1015013848+1013592289+1010308817
1346+1007593790+1006972057+1005443921+1000729826+997030903+998150759+1000664485
1333+1001980364+1002394222+1001993711+1001687326+1002943144+1005604284
1321+1007985636+1009402314+1011418614+1014710751+1018432285+1022213382
1310+1025592972+1028266065+1031153508+1034908110+1038561713+1041514099
1298+1044547263+1048190607+1051424077+1053014367+1054329449+1056789388
1287+1058701800+1059071732+1059406902+1060308126+1060904659+1060886033
1275+1060191290+1058208557+1055526698+1054317397+1054687329+1054211218
1263+1052509172+1051004343+1050106206+1050510004+1052237549+1053862103
1252+1055325497+1057254642+1058771922+1058992148+1058508467+1058857781
1240+1060590008+1062353311+1063197561+1063211904+1062678023+1062555808
1229+1063390097+1064529576+1065172127+1065258683+1065004790+1064951502
1217+1066449060+1068780907+1069838411+1070256951+1071346029+1072603540
1205+1073345695+1073606958+1073687140+1073741823+1073322288+1072440088
1194+1071967762+1071797139+1071922940+1072269664+1071468344+1069644780
1182+1068368145+1068564466+1069528342+1069353535+1067958969+1066580937
1171+1065078299+1063213498+1061537050+1060014093+1058498706+1056999455
1159+1055567736+1054406643+1052647224+1049452400+1045413626+1040971850
1148+1036062928+1031465769+1027790253+1024565648+1021214844+1016411802
1136+1009658299+1002856985+997536596+993136754+987826126+981418451+975670757
1123+970739125+965038843+958047982+950965285+944964396+939936944+934823733
1109+929675262+925862689+923640208+922203309+920856852+919412383+917996203
1096+916379916+914956564+914897199+915806989+916334496+916937802+917789921
1082+918167523+919357800+922225820+925563875+928538273+930897611+933098877
1069+936023572+938704435+940296119+942907856+947315667+951114493+953399825
1055+955093605+956295834+956981215+957584222+958358052+959350414+960358215
1042+961604968+963596466+965670836+967018488+968030373+969043553+969404023
1028+969485599+970692411+972049725+972240070+972175227+972219352+972213176
1015+972338479+972668569+973770397+974950415+974534466+973375465+972904234
1001+972561793+971863364+970874588+969971571+969466076+968422119+966621264
988+965019420+963761013+962553604+960910623+958558855+956022618+953566464
974+951180133+948982851+946848421+944631318+942622489+941429423+941125030
961+941283402+941846767+942772394+943526302+943810873+944256405+945110018
947+945437419+944950153+944737995+946130270+948977274+951579150+953115354
934+954101541+955272395+956845454+958318210+959457589+960352737+961259439
920+962549122+963567780+963292473+962093530+961058437+960554337+959957605
907+958530069+956742661+955191317+953729716+952650299+952110242+951626263
893+950464473+948518494+947040160+946554088+946666044+947299730+947861501
880+947968277+947971863+948511422+950648741+954517092+958548496+961297986
866+963831135+968587064+975147932+980724106+984159574+985509319+985186101
853+984671244+984115450+982552651+980993039+980488939+980534857+980942738
839+981408490+981619055+982992704+986642921+989850593+988008004+981951436
826+977640840+977085543+978547343+982352744+987942863+991272850+990693449
812+989500482+990010558+990824130+990979514+991880240+993693744+995011416
799+996585072+999208562+1001105435+1002034848+1003868771+1007612516+1013690997
785+1020166703+1023042492+1022594968+1022516977+1024412954+1027815852
773+1031826936+1035306629+1037041346+1038108312+1039939148+1040352807
762+1038786721+1037903625+1038084407+1038208316+1037853025+1037455702
750+1038197459+1039923211+1041303235+1041828850+1041498162+1040985496
739+1041512804+1042072981+1040126305+1036291222+1034560291+1036209646
727+1037550426+1036230962+1033333458+1029468096+1024999825+1022118956
716+1022686305+1022896471+1018715162+1014865935+1015906805+1018747832
704+1019413591+1017995418+1015909694+1014063818+1012803618+1011378772
692+1010528446+1009815077+1007356831+1006847651+1010405036+1014000868
681+1016191476+1017820014+1017790531+1016513498+1015686280+1013210105
669+1008743429+1010078033+1017248980+1021519634+1022331911+1022721366
658+1022310197+1019757825+1016910822+1015347126+1016174742+1018527507
646+1020072078+1020901188+1022619570+1024770734+1024172408+1021044519
635+1018533981+1019268367+1021839266+1017431456+1008553184+1007291490
623+1010339297+1012354102+1015791065+1014272092+1006906717+1006237074
611+1015749231+1026469295+1029368093+1023144288+1015316547+1015076799
600+1019960720
##END=
