##TITLE=Sample description
##JCAMP-DX=4.24
##DATA TYPE=INFRARED SPECTRUM
##DATE=24/8/2023
##SAMPLING PROCEDURE=Instrument type and / or accessory
##ORIGIN=Default
##XUNITS=1/CM
##YUNITS=ABSORBANCE
##RESOLUTION=4
##FIRSTX=4397.6552
##LASTX=599.8556
##DELTAX=-1.9287962
##MAXY=1.3638843
##MINY=0.44683918
##XFACTOR=1
##YFACTOR=1.2702163e-009
##NPOINTS=1970
##FIRSTY=0.60312319
##XYDATA=(X++(Y..Y))
4398+474819292+475033503+475623724+475621377+475511761+475546673+474989769
4384+474257930+473880749+473058955+472059832+472433823+473752738+474281393
4371+473738050+472952670+472410266+472193427+472402242+472760748+473188373
4357+473696006+473957236+474159764+473973144+472872945+471708881+470953110
4344+469980078+468944447+468814231+469923393+471367550+471690628+470705441
4330+469702893+469627438+469870884+469554329+469457336+470236897+470953298
4317+470758091+469332703+467169329+466056742+466598395+467467395+468067751
4303+468184313+467499351+466905377+466986322+467231082+467565046+468493688
4290+469579528+469186626+467012131+465461689+466331721+467820739+467855933
4276+467096502+466720822+466796042+466606560+465935207+465721981+466184425
4263+466352791+466089730+465617854+464730600+464180689+464433566+464680532
4249+464866776+465307916+465321384+464591468+463952493+464054602+464362569
4236+463833445+462930002+462689747+462514764+462141196+461965979+461702449
4222+461992069+463377289+464528073+464383967+463517876+463004706+462858207
4209+462354985+462034442+462311580+462038665+461331837+461532957+462238049
4195+462049317+460838094+459483798+458934777+459674406+461092004+462134814
4182+462118860+461178487+460604690+461153570+461851905+461550084+460307703
4168+458947963+458188767+458410674+459445366+460310847+460430787+460564241
4155+460967607+460734954+459486238+458048133+457548056+457794411+457674190
4141+457194430+457139998+457255902+456621479+455658910+455736055+456542973
4128+456538750+455837037+455557881+455856651+456422564+457046899+457376358
4114+456801811+455524377+454826464+455231519+455955287+456295211+456318626
4101+455890437+454910037+453841794+453053974+453119293+453942730+454327841
4087+453951833+453627160+453739827+454064124+454445998+454228502+452987341
4074+451703103+451384953+451835196+451954995+451560451+451440230+451420334
4060+451176090+450937571+450648233+450425059+450625568+451207858+451560029
4047+450910120+449797111+449522460+449907337+450237078+450515858+450511119
4033+449750139+448671338+448154696+448243337+448349340+448170275+448166193
4020+448227383+447537494+446683791+446719173+447522103+448263046+448351921
4006+448130765+447898487+447369691+446632549+446196196+446273716+446631189
3993+447031645+447565415+448134378+448156198+447740022+447536603+447419666
3979+447449323+447768036+447290529+445926097+445062540+444827118+444800699
3966+444928288+444912146+444954706+445340804+445564776+445348077+445039124
3952+444938564+444799901+444258718+443864596+443701063+443054909+442670970
3939+443227076+443922314+443972617+442758297+441130241+441300484+442466753
3925+442396695+441833691+442107779+442076902+441220947+440981302+441957948
3912+443142001+443885572+443766242+441698641+438453557+436838452+436914095
3898+438094676+440329423+442077324+441329343+440188085+441538815+442257891
3885+441199174+440864882+439605044+438644071+439872610+440154487+438686726
3871+436355737+435113590+437478506+439122564+437758741+437462599+438832428
3858+439972700+438366746+431034277+428507235+433742729+438730132+441572038
3844+441919986+440044542+436854876+433240962+432586174+434601547+436100794
3831+437270629+438766451+439817755+440647385+439561170+435374304+434865499
3817+436556716+436653615+438484809+441105559+441415356+438719996+436984576
3804+437077346+435334371+435426156+437897451+439153346+440789990+442944307
3790+443777973+443424348+442428744+441746176+442562808+442751869+441264493
3777+441374063+443143174+444086973+442782182+440922177+440659257+441072336
3763+442242312+443135056+442110641+442194918+445059161+447040138+444528488
3750+442810900+447078570+451578283+454320052+459740899+466684690+471463652
3736+472042704+470802341+473176267+478534797+482375498+482017228+479000338
3723+475767595+472312944+469515945+468971148+471320109+476170820+484507668
3709+497063899+511415052+525705671+539113119+552180409+564630263+574751614
3696+582078921+585737695+582976640+572616113+564022962+562237895+560081466
3682+554725047+548476494+542672459+532053658+519526567+515059326+510976915
3669+506456884+506578137+507360984+506675178+506176977+506892909+508019620
3655+511180616+517031810+521173017+519463453+517738779+520159488+522079229
3642+520965703+517821460+514739111+511931694+509293629+506652982+499570106
3628+489535988+487613151+488661873+486292828+478513822+468266196+462426593
3615+459582997+457407141+456930009+456533635+455484678+455988932+456809741
3601+455898555+454285140+452802363+450441436+447800320+446360480+444019589
3588+438592689+434392825+433157671+431727497+429143770+426708420+425786535
3574+425951195+426266670+426442779+424322622+419050293+416330437+416659615
3561+416702926+415971932+415113536+414226470+413099853+411953620+411406290
3547+410948257+409528171+407924563+407517115+408080729+408507463+408125026
3534+407517397+406995921+405994265+405133241+405225777+405146240+404054300
3520+403032559+402835428+402965597+403033873+403054426+402890611+402559604
3507+402424648+401999838+400514339+398732511+397548082+396982967+397017973
3493+397418241+397679378+397353813+396488661+395681179+395257823+395177019
3480+395291375+395221081+394689517+393915539+393404998+393133139+392979601
3466+393197332+393037131+391737173+390211014+389329508+389039701+389158280
3453+389165389+388417900+387212824+386505574+386363908+386184702+386282564
3439+386926442+387245672+386868373+386234818+385646404+385187034+384453153
3426+383254999+382148442+381520353+381172289+380861224+381016991+381960578
3412+382784015+382669776+381868794+380999746+380867606+381424298+381484432
3399+380767234+380146630+379834205+379350762+379285959+380367153+381380142
3385+381213371+380892265+381254618+381790640+382309112+382766676+383141863
3372+383868072+384558476+384705445+384809876+385120706+385429260+385889217
3358+386675230+387284361+387724281+388916781+390649667+391875883+392307028
3345+392417371+392928429+394065276+395455189+396472096+396683493+396597339
3331+396958707+397527904+397782096+397812879+397876180+398077018+398312393
3318+398366404+398320558+398212631+397870925+397678205+398164627+399004628
3304+399653739+400037396+400309654+400901000+401843062+401861644+400624894
3291+400024445+400718322+401567285+402242251+403068691+403990388+404623826
3277+405076791+405942647+407187187+408252943+409079946+409961991+410822592
3264+411325673+411255239+411073452+411446879+412198896+412746837+412845942
3250+412962175+413353856+413530247+413571634+414017092+414657240+415046856
3237+415299875+415590762+415949689+416100600+415766495+415588556+415905346
3223+415984695+415633322+415476031+415540458+415672129+415745895+415375142
3210+415146384+415299922+415235212+415103870+415238497+415483726+415593906
3196+416059916+416881053+417152654+417075228+417407408+418057739+418612625
3183+419044615+419327430+419632958+420109667+420084093+419304484+418863673
3169+419741823+421016395+421058439+420051058+420097795+421724068+422501236
3156+421598168+420943145+422066713+423849855+423717621+421856818+421536415
3142+424004191+425163937+422579460+420054296+421048022+423936478+424050928
3129+421125073+420347294+424316991+427863192+425498089+421344352+422284444
3115+427733164+429962890+425852699+422193785+424425341+429077325+428339714
3102+422753926+420666664+425180689+430118117+428109172+422724551+422513390
3088+428970665+434076599+430297323+423388021+421943441+425828205+428235822
3075+425259617+421807031+423147297+428247929+430371698+426743614+423120315
3061+423669898+426671443+426967304+423554604+421049289+421560582+423181646
3047+423284130+421894499+420838878+420912503+421488646+421351860+420395157
3034+419485708+419340945+419927739+420287512+419947823+419942521+423649017
3020+438596537+464874096+481480783+472765487+453172694+438651298+430975621
3007+426817943+424072466+422372662+421799570+421778407+421533835+421326098
2993+421790372+423832352+426318756+426234996+424761745+425052585+427715473
2980+431176459+431872964+429344561+427243175+427781966+430724151+432882128
2966+431659174+429414292+429516400+433394594+437365183+435933413+431726277
2953+429893347+431637448+435019318+435083183+431338255+428451348+428746786
2939+431470912+432677208+429870823+426464880+425685506+428026585+430941459
2926+429896209+425854764+423382484+424117092+426616025+426984948+423989503
2912+421258339+421239288+423418147+425345958+424733637+422903053+422215933
2899+423129606+424696566+424839781+423346540+422374023+422720375+423910482
2885+424894823+424406149+423226694+423161468+424523836+426268218+427278181
2872+427678919+428563310+430492154+433236786+436224347+439059027+441841950
2858+444502492+446660798+447705907+446975851+444929367+442590259+440311732
2845+437948787+435363653+432984706+431162194+429504247+427762773+426270283
2831+425286223+424571746+423827707+423177657+422823140+422502034+421785492
2818+420885334+420512235+420690174+420699042+420396377+420158046+420093290
2804+420190612+420297554+420281928+420248564+420274561+420342649+420388635
2791+420453954+420534571+420483094+420459257+420633582+420759575+420763095
2777+420915084+421138634+421079180+420882237+420932446+421105177+421099733
2764+421013063+421171810+421728150+422395984+422694754+422592880+422478431
2750+422538870+422674858+422930364+423466198+424068102+424374099+424604828
2737+425143478+425716477+426022426+426358267+426898372+427340216+427555178
2723+427847895+428349803+428884323+429390923+429709496+429693635+429624139
2710+429738120+429996441+430273344+430382022+430379863+430454849+430436267
2696+430266258+430308772+430573147+430669389+430534340+430469490+430584455
2683+430622230+430477748+430327636+430247629+430278693+430427492+430509517
2669+430550107+430639076+430446215+430075274+430143644+430506138+430674880
2656+430745877+430963936+431325070+431573677+431596013+431745000+432205191
2642+432734315+433046600+433017976+432974148+433323128+434034742+434824440
2629+435362104+435726616+436316179+437099401+437744429+438055118+438117294
2615+438267969+438810748+439722169+440572305+441081956+441503950+442088446
2602+442743610+443318532+443891719+444631911+445375340+445746609+445852143
2588+446151195+446605380+446936012+447315258+447876620+448282003+448345774
2575+448397720+448787618+449498810+450229711+450718620+450979194+451121423
2561+451364353+451945094+452582849+452883965+452974718+453152094+453573431
2548+454148354+454565797+454655799+454615725+454794133+455135464+455286421
2534+455327152+455611985+456104227+456551373+456911849+457181573+457297243
2521+457293958+457247174+457287576+457587332+458140153+458651915+458808972
2507+458803576+459048148+459369864+459416273+459361699+459502614+459881767
2494+460314085+460459130+460283678+460109118+460098513+460179129+460226711
2480+460262984+460359508+460344070+460206440+460209537+460296817+460345806
2467+460462414+460481090+460196585+459780597+459322752+458824223+458445493
2453+458160612+457876811+457708069+457570298+457263128+456938784+456786372
2440+456735787+456653951+456509094+456323694+455963921+455307303+454554394
2426+454099036+453926306+453522846+452884341+452444280+452096989+451511649
2413+450843206+450493475+450401456+450237829+449919726+449435039+448854063
2399+448349528+448093131+448572374+450891585+456848219+468952565+489699381
2386+519742327+557091746+598574255+641554276+684609094+728045552+773218743
2372+819513484+863274521+900920974+932172891+957076446+972613153+977487138
2359+972782458+954823398+922153320+880474994+839844405+817795755+825695170
2345+855010125+874845613+869754554+855245593+844062944+839387545+841115504
2332+844323846+841956302+835342909+829289891+823113367+812820975+796219262
2318+774418657+752596326+739917620+738264318+735461031+720247870+693712974
2305+664236926+640759604+624757496+611085862+596542646+580357813+561947947
2291+542791883+525538525+510855708+498093852+487625774+480048732+474724504
2278+470554109+466975060+463822136+461074173+458801840+456988712+455469193
2264+454113113+452895837+451731914+450502625+449254191+448185713+447317182
2251+446384833+445348405+444508451+444027519+443787968+443634899+443538610
2237+443558600+443658362+443710214+443858684+444291518+444835001+445349391
2224+445887431+446474601+447031739+447475741+447971596+448743790+449699085
2210+450544576+451247791+452121953+453275787+454445435+455528272+456662866
2197+457824584+458914928+460030425+461243806+462454419+463647764+464871703
2183+466089120+467380162+468876735+470545428+472257010+473827630+475150065
2170+476318914+477456653+478766981+480418734+481994985+483133475+484267084
2156+485610213+486789621+487694518+488496557+489272553+489925276+490252577
2143+490274772+490209406+490126725+489933019+489438760+488616075+487689122
2129+486697742+485464558+483938047+482213655+480337179+478322650+476280436
2116+474331086+472452874+470435952+468164135+465838073+463662310+461557498
2102+459384880+457223618+455192243+453328765+451593017+449863838+448192283
2089+446666992+445207913+443924097+443134916+442891845+442929150+443104696
2075+443554564+444441114+445721458+447171622+448617375+450084056+451677482
2062+453421348+455316922+457255714+459032006+460751424+462569150+464329581
2048+465948158+467472698+468948295+470294943+471290124+471984236+472389103
2035+472281035+471853316+471447088+470874746+469869429+468635729+467339666
2021+465862567+464138034+462180331+460177299+458217767+456137356+453959904
2008+451794747+449664642+447565321+445395706+443163821+441011005+438973390
1994+436921556+434755976+432771010+431170499+429810196+428685878+427641848
1981+426581770+425791181+425228928+424619281+424052664+423696317+423456719
1967+423334621+423653428+424406336+425214757+426006988+426911135+427981068
1954+429275957+430912648+432888651+434870801+436530719+437870094+439408007
1940+441634542+444038359+446190189+448281252+450186681+451598507+452793682
1927+454069239+454972964+455292850+455592183+455822584+455825118+456034449
1913+456131021+455541504+454596674+453941087+453472215+452736481+451680485
1900+450506098+449236735+447889712+446832402+445986536+444904356+444095748
1886+443917715+443927663+444112265+444352943+444365659+444358245+444618959
1873+445000176+444625998+443339742+443457993+445441598+447181898+447929879
1859+448102703+448064037+447848606+447302776+446601251+445981796+445099939
1846+443206617+440594501+439244662+438760257+437688354+436190186+434525106
1832+431814495+427670660+424445425+422985594+421374431+419663553+418181339
1819+416376095+414064533+411480384+408719188+405698591+403161790+401424681
1805+399876819+397966182+395157451+392239996+390585263+389409257+387097906
1792+384297199+383697125+384411226+384288612+383097144+381661855+380524304
1778+379966884+379342175+377377504+374322699+373791604+375951623+377736009
1765+378292889+377769678+377354722+378131702+379111797+379911607+379965007
1751+377782699+374427646+373366512+373966235+374078549+373177359+371992601
1738+371553831+370583097+367560436+366331593+367732674+369058417+369597794
1724+369147879+368193569+366692656+362976001+358931200+359602741+362000176
1711+363289458+363021119+361050160+358830007+357978064+356156560+352693346
1697+351781972+353569526+356403314+358325542+358503316+357630022+355148170
1684+351960146+353680057+357125159+358897626+358713375+358089932+358079750
1670+358036297+359600066+362755267+364720125+365539127+367444556+369857570
1657+370842263+368932987+366083666+369390879+373100848+375395611+380079950
1643+386095803+390640376+393182527+394029379+396902678+404989558+413001639
1630+419378203+425259194+431370634+438242207+446726352+454815859+461557358
1616+470250505+481211810+491244708+500623146+510547319+521305814+532679823
1603+545101709+558785122+573535886+589289808+606361989+624586972+642957515
1589+660426492+676029973+689377123+699699547+706172682+708672225+706397499
1576+700404826+697515150+696257425+692528405+690214308+691800695+694254956
1562+696301675+696450520+697970555+708003078+719694110+730890508+741439907
1549+751328183+759152236+764172486+766733407+770641774+785216147+800555583
1535+809977332+818332575+829039219+838656832+845772696+851548013+855939987
1522+860179924+867364486+875758019+883775027+891186330+896453170+898611805
1508+897169712+899609801+912271145+923084214+928970180+930461356+931371603
1495+935311316+939278620+940209702+939491658+941988527+946784148+951270065
1481+954075699+955169046+954956383+951687789+945107337+942491092+946879499
1468+951003626+951434771+951101042+952372141+951435897+944827853+942182326
1454+950149313+958030896+962059109+963192812+965716052+970355695+974700368
1441+978449285+980479533+979964486+981933076+987169039+990902188+993717113
1427+997538293+1000881873+1003878960+1005773502+1003423133+1001363040
1416+1005664355+1011332589+1014371815+1015350760+1015379009+1013959533
1404+1012942204+1014323201+1014565896+1011616860+1008228608+1007753635
1393+1011265393+1013960284+1011284257+1005088212+1003191699+1007227514
1381+1011840691+1014265202+1015372815+1014790102+1013465697+1014043904
1369+1015530388+1016592672+1016276586+1013522382+1011808031+1013659402
1358+1015509553+1015463661+1014306965+1013029859+1012631655+1013762449
1346+1014975925+1014361679+1011371161+1007015038+1004576826+1005309322
1335+1007312917+1008925347+1009594682+1010133567+1010382925+1010762453
1323+1012409607+1013288509+1012864590+1014566740+1018542022+1022180852
1312+1025017738+1028460329+1034091681+1040181300+1043002231+1043576778
1300+1045209480+1047899585+1050975036+1054550518+1057062497+1057798090
1288+1058451001+1059886525+1061774685+1062935417+1062677237+1062683618
1277+1063805778+1064589328+1064587264+1064576846+1063660405+1060830840
1265+1058302250+1058812041+1060887525+1060607196+1058308632+1057047668
1254+1057273752+1058693790+1061169918+1063543844+1065134595+1065732698
1242+1065234732+1065444017+1067313313+1067843094+1066009648+1064657463
1231+1064540433+1064925779+1065766484+1066355953+1066179798+1065619140
1219+1065728193+1067682987+1070177134+1070677352+1069626143+1069416107
1207+1070943040+1072824631+1073741823+1073608087+1072425019+1071159364
1196+1070545681+1070051844+1070396179+1071871870+1073118005+1073722865
1184+1073252397+1071397648+1070117351+1070739011+1071889044+1072289313
1173+1071651605+1069659835+1067252123+1066032829+1065684272+1065110663
1161+1064298488+1063313537+1061713870+1059834626+1057728172+1054420255
1150+1051267565+1049682915+1047805266+1044844968+1041784438+1038571591
1138+1034830371+1030878270+1027198240+1023238819+1018488715+1013637911
1126+1009183715+1005064468+1000574610+994893987+988675325+982787389+976759616
1113+970092728+963783501+958832372+954187380+948959769+944053500+940052128
1099+936590955+933268210+929922190+926930077+924748825+922930958+921093101
1086+919703752+919089694+918824193+917724463+915713360+914637938+914620669
1072+913977706+913123675+912401220+910863870+909758509+909940296+910326299
1059+910741021+910867718+910421275+910285006+910833463+912024790+913497196
1045+913886109+913135875+912561328+912321824+912693656+913947299+915153829
1032+915954554+916066423+915186770+914527852+915305208+917305988+919177631
1018+919561757+919453361+921050775+923416254+924187792+923462053+922101890
1005+920859697+920478480+920577867+920606772+920373932+919880564+919394893
991+918759437+917731127+916587100+915550813+914256158+912309529+910123490
978+908554888+907622399+906081670+903217568+900068163+897492836+895082497
964+893105649+892038203+891131428+890784654+891520716+892107933+892104743
951+891425459+891008016+892937564+895964214+898087185+899978442+901936051
937+904157941+907524326+911251000+913784376+915507548+917519027+919728622
924+921846995+923595976+924587028+925264059+925943624+926771377+928215723
910+929128128+928398166+926956824+925242943+923144466+921306984+920695366
897+921107272+920579650+918889137+917879878+917603304+917118946+916254685
883+914650983+912657805+911928031+913181580+915434158+917442539+919408031
870+922379591+926472372+931653340+937556573+944253587+952657725+960144765
856+963783689+965413481+966138845+965114664+962894746+960467889+958650210
843+957480374+956776972+957739869+959842100+961118360+962468011+964054633
829+964088794+963871063+964829174+966168595+968479923+971722990+973730621
816+974702433+977013104+980245754+982220819+983144580+984323143+985511092
802+986422277+987954654+989568022+991028791+991685738+988104625+986745308
789+997149850+1010937952+1016214270+1016550721+1019468599+1025535319+1031553518
775+1036668509+1039584041+1038869001+1037922715+1039678923+1042599053
764+1044078029+1043506579+1042799985+1044528413+1047656796+1049041828
752+1048912691+1048238476+1047886164+1049257119+1050199557+1048820437
741+1047889824+1048731280+1048664647+1047023405+1045724245+1044218897
729+1040655991+1036384520+1035145705+1038497638+1042681171+1042965911
718+1041013276+1039005833+1035408954+1032239277+1032360062+1034236021
706+1035177145+1033689723+1031047012+1031041756+1034091024+1035657467
694+1034167793+1032621902+1031443902+1029265277+1027956357+1030238591
683+1034243248+1035815041+1035313884+1035516693+1036541718+1037422872
671+1035760514+1029199301+1024379467+1026621158+1030497710+1036497234
660+1041388956+1038908136+1034738398+1034800996+1037202889+1039954747
648+1040416111+1033265992+1019272453+1012127214+1018752620+1028714474
637+1029733305+1014998449+997951419+998597668+1007598971+1007836316+1000952636
623+995071738+992178543+990937476+993940006+997815807+1001832382+1014583070
609+1026036945+1024812020+1020812150+1016483618+1010061396+1010952686
##END=
