##TITLE=Sample description
##JCAMP-DX=4.24
##DATA TYPE=INFRARED SPECTRUM
##DATE=24/8/2023
##SAMPLING PROCEDURE=Instrument type and / or accessory
##ORIGIN=Default
##XUNITS=1/CM
##YUNITS=ABSORBANCE
##RESOLUTION=4
##FIRSTX=4397.6552
##LASTX=599.8556
##DELTAX=-1.9287962
##MAXY=1.3417168
##MINY=0.38284498
##XFACTOR=1
##YFACTOR=1.2495711e-009
##NPOINTS=1970
##FIRSTY=0.56541377
##XYDATA=(X++(Y..Y))
4398+452486270+451659342+451750640+452511981+452729636+452115688+452008697
4384+452765220+453486064+453876012+453453151+452006217+450808563+450914600
4371+451477461+451158157+450227338+449765648+450147154+450902866+451260760
4357+451366606+451403288+450735773+449801853+449177268+448474026+447649148
4344+447015643+447207493+448009045+448318857+448279791+448346094+448127198
4330+447788957+448291573+449163673+448740001+447431493+446889238+446986976
4317+446938655+447318062+448250885+448281747+447378164+447143766+447781420
4303+448387307+448422557+448154530+448364745+448722495+448478700+447904773
4290+447214314+446466281+446215570+446578043+446672346+446131475+445325295
4276+444545065+444513631+444985480+445062707+445147136+445228035+444662312
4263+443762259+443342451+443493803+443644965+443803234+444043547+443822123
4249+443083773+442598950+442617696+442429662+441890556+441702856+442187966
4236+442726309+442580013+442143748+442185581+442633914+442914820+442809068
4222+442586738+442149090+441411742+440952247+440782817+440269945+439567991
4209+439396461+439615023+439598042+439596229+439997816+440564589+440816493
4195+440259261+439547575+439980787+441017310+441116383+440259690+439348523
4182+438715400+438544633+438853778+438919127+438244266+437221624+436534170
4168+436509223+436955028+437355423+437265222+437190810+437721855+438016546
4155+437354469+436523533+436304351+436210048+435980516+436320999+436819703
4141+436366552+435551310+435684107+436197503+435702186+434848736+434818208
4128+435140660+435258813+435351161+435333607+435012824+434829226+434914562
4114+434462031+433644738+433619314+433858768+433242340+432354737+431722234
4101+431257683+431455972+432539765+433761412+434056294+433499253+432958381
4087+432205006+431099652+430721772+431465703+432339187+432470123+432012918
4074+431489982+431327849+431354466+430698447+429858592+429921269+430006510
4060+429738674+430188008+430938140+430759598+429708670+428834614+428595636
4047+428359283+428117252+428494989+429099206+429274933+428984440+428522560
4033+428338390+428342349+428263024+428172203+427762936+427032075+426559368
4020+426485337+426711388+426829159+426443218+426212063+426575347+426697269
4006+426185494+425829223+425885222+425502334+424899691+425462504+426602679
3993+426764478+426217120+425575220+424981020+424741041+424844120+424918723
3979+424847746+424833293+424860100+424723582+424341409+424047672+424226786
3966+424323951+423862405+423314426+422989398+423037623+423745397+424505402
3952+424282690+422949139+421641060+421548140+421551050+420841988+421120700
3939+422189277+422543450+421888576+420184586+419231252+420536612+421580958
3925+420693164+420009192+420571529+420812986+420339134+420320483+421175889
3912+422035587+422564820+422757433+421502157+418989222+417252366+416178017
3898+416344109+418443485+420176095+419141385+418000780+419594059+420385641
3885+419207211+418554722+417306649+417313041+419596873+420210582+418575948
3871+416329990+414943491+416203728+417194172+417000033+418226783+419818106
3858+420161880+418011179+411282558+408779353+413669470+418457652+420346527
3844+419374924+417036905+414180052+411301352+411530074+414200515+415833193
3831+416682016+418067751+419165855+419633602+417912392+413187890+412737601
3817+415307348+416254576+418445154+421755922+422982959+420519392+418288507
3804+418184092+416505908+416051230+418156951+419664798+420994724+422175778
3790+422495034+422655450+422791777+422634987+422544309+421599704+420316858
3777+421074526+422722516+423233479+421936562+420626813+421248202+422644622
3763+423854582+423531128+421397503+421060407+423252035+424490090+422147349
3750+421860862+427929934+433754687+436147895+441001665+448817085+454892501
3736+455762741+454500692+458010226+464569894+468822547+468060967+463806025
3723+459564342+456138189+453218276+451595710+453058624+459081808+471221622
3709+488007997+505280340+521005769+534885157+547781065+559292908+566788355
3696+569745426+569495240+564216558+550967192+538160340+533376737+530694800
3682+525663205+518359416+510258702+498391732+486455693+481912689+476331589
3669+470078156+469226614+469471172+468552183+467766896+467750440+467737942
3655+469986763+476333163+482611162+482750160+480110723+480652406+481146960
3642+479511992+476563984+474033781+472580836+471879454+470777678+464850132
3628+454768195+451621468+451582163+447909209+439080687+429242784+423661826
3615+419421670+415317985+414230566+414785652+414948691+416004341+417051835
3601+415935510+413418663+411210769+408519912+405007994+402149375+398221584
3588+391018561+385758864+384759404+383729416+380912559+377937887+376052303
3574+374835951+373806726+372203693+368101486+362492553+360766978+361893940
3561+362223524+361438476+360742580+359752660+357585574+355529438+354449079
3547+352871708+350809419+350125352+350719886+351148018+350345560+348506078
3534+347163487+346351489+345030244+344027469+344181064+344367237+343909865
3520+343384377+342836446+342117081+341490898+340782862+339752898+338739200
3507+337929228+336787885+335495212+334959064+334865142+334690798+334318714
3493+333399152+332085921+331157796+330908110+331033275+331077064+330579433
3480+329836647+329312328+328990328+328786506+328462742+328085148+327920010
3466+327739775+326968942+325638181+324558681+324054920+324054706+324369001
3453+324379424+324028614+323491940+322509962+321522690+321112994+321200547
3439+321422281+321208776+320634204+320157275+319757190+319458922+319199648
3426+318681840+317992216+317469447+317119090+316747935+316537983+316826569
3412+317295675+317128153+316326434+315793934+315845235+316052277+316390066
3399+316830647+316891131+316469892+315703900+315032664+315284712+316547500
3385+317966076+318831332+319283886+319578124+319917248+320741672+322043217
3372+323267678+324059285+324860670+326077332+327354788+328432476+329398021
3358+330585252+332264176+334070888+335442170+336525797+337809000+338998330
3345+339838782+340841843+342074699+342958630+343379607+343609473+343550564
3331+343424469+343675824+344022866+343860161+343110674+342642283+342848419
3318+343020115+343038933+343216353+343278816+342908282+342434668+342314702
3304+342392787+342454917+342540992+342577625+342529520+342552201+342762177
3291+343233430+344102835+345210694+346098058+346698745+347193586+347716164
3277+348733273+350202937+351227749+351626808+352192722+353165302+353716310
3264+353722439+354136118+354972825+355644753+356226384+356737442+356990921
3250+357386378+357992742+358210230+358504540+359266906+359470729+359117605
3237+359138116+359421574+359670926+359895450+360003777+360140104+360743462
3223+361976056+362975874+362953335+362495081+362420716+362881428+363283253
3210+363019257+362474522+362293906+362521340+362700167+362537057+362482631
3196+363128252+364219677+364928524+364982974+364789574+364908753+365692465
3183+366623881+366853151+366515339+366305840+366542099+367061839+367579122
3169+368203683+368934640+369202261+368922762+368922500+369558867+370057285
3156+369842086+369438400+369724028+370606718+371041433+370703001+370194160
3142+369936198+369790379+369203930+368341417+368376668+369463109+370314460
3129+370211857+369807146+369974215+370253475+369837697+369354686+369755916
3115+370810398+371332642+370831052+370183642+370296954+370803863+370577717
3102+369830376+369781244+370584538+371060584+370380620+369645943+369949029
3088+370931818+371702747+371511398+370807106+370767253+371506389+371873919
3075+371385017+371000315+371439562+372352780+372592139+371757960+370889675
3061+370652486+370852612+370923757+370679342+370477785+370268882+369972021
3047+369752911+369704948+369892624+370103196+370119510+370017002+369757991
3034+369323085+369018496+369014800+369096820+369053317+368946016+369558509
3020+372304245+376665177+379020536+377250958+373717527+371192499+369973547
3007+369671463+370074075+370472013+370394978+370240334+370566698+371355753
2993+372273407+373347374+374472524+375341977+376268360+377744010+379697758
2980+381551550+382904300+384137395+385703341+387634741+389891718+391984202
2966+393364857+394269417+395148053+396365311+397497258+397396348+396400872
2953+395570127+394914680+394253676+393381266+392125489+390707747+389550710
2939+389027822+388480869+387172337+385855552+385206616+385120971+385184054
2926+384644972+383612289+382871029+382492052+381999811+381051557+380080670
2912+379830173+380218857+380735831+380962764+380594018+379958892+379907757
2899+380611763+381157476+381133625+381169401+381467478+382058053+383312494
2885+385002412+386605421+388129081+390163370+393392857+397737905+402607105
2872+407864036+413827930+420614793+427843835+434868674+440859662+445124287
2858+447620576+448220690+446357907+442048061+435919650+428839670+421929359
2845+415846406+410337762+405016770+400113584+396035751+392714728+389989814
2831+387904008+386229234+384746835+383647396+382780757+381741253+380650758
2818+379916367+379748272+379936997+380031277+379927362+379853785+379804033
2804+379698187+379729168+380031420+380498237+380768791+380642076+380572744
2791+380890832+381212450+381245554+381263012+381491471+381853921+382203610
2777+382364407+382376022+382484301+382773864+383114419+383319005+383347029
2764+383364725+383549897+383931211+384527773+385187012+385562912+385810380
2750+386188332+386473077+386791332+387458633+388106185+388474287+389005904
2737+389934100+390850442+391334908+391658625+392435421+393583228+394578824
2723+395265896+395671370+395812062+395897254+396070215+396063226+395799707
2710+395747500+396019843+396109710+395864675+395727871+395856876+396081710
2696+396430565+396689886+396468701+396037683+395904648+395950273+395856876
2683+395734835+395761857+395946600+396198886+396201843+395998545+396053639
2669+396191587+396031864+395840181+395927019+396292640+396713259+396924356
2656+396958629+396958676+397051524+397322461+397633990+397898916+398204364
2642+398551358+398837988+398997473+399148659+399549649+400302047+401178106
2629+401847100+402290425+402660291+402990042+403386954+403989120+404728423
2615+405370800+405819372+406290840+406851936+407353741+407945508+408719012
2602+409368497+409853463+410388515+410949802+411585406+412328000+413050943
2588+413766921+414219309+414155104+414143132+414733182+415600131+416262828
2575+416663222+416880926+416998268+417222744+417705565+418279158+418695914
2561+418976581+419239265+419503381+419809997+420151100+420400524+420628292
2548+421003071+421371936+421593503+421891438+422327035+422651348+422882693
2534+423170754+423470215+423694024+423832449+424107154+424524053+424717811
2521+424799378+425109381+425490647+425757529+426083464+426555409+427053159
2507+427483032+427661001+427589451+427640967+427902650+428209647+428614573
2494+428946232+428888086+428754573+428898914+429078409+429153441+429181632
2480+429097680+428960638+428868767+428819541+428811575+428757149+428590103
2467+428358806+428111004+427921921+427731550+427459802+427302726+427237854
2453+426927183+426383974+425983246+425887798+425852309+425662034+425311295
2440+424825231+424359488+424068135+423895938+423692974+423298733+422652826
2426+421907417+421309020+420897320+420496878+420098439+419803510+419488164
2413+419017460+418438190+417830300+417312087+416924714+416559952+416135612
2399+415626080+415219389+415400983+416955433+421685182+432751602+453402255
2386+485245447+527307665+576478675+629594720+685006951+742337393+801701100
2372+861522631+917370174+965155353+1003937332+1032435078+1047696052+1051625775
2359+1046646936+1025213381+983712020+929290806+876945499+849857004+859960358
2345+896257545+923596179+923781255+912372350+902030686+896048523+895464006
2332+897812186+895956748+886828097+873615365+858464770+840257458+817909015
2318+791690617+765566093+747854003+740102883+731150293+710142700+677698249
2305+643588302+617293727+598556085+581813643+564861033+546776120+526657942
2291+506257810+487880447+471718276+457680141+447076890+440604705+436998912
2278+434549131+432415745+430453650+428658410+426939824+425301803+423912252
2264+422796117+421757114+420636353+419463408+418283165+417112080+416009541
2251+414924459+413944318+413306997+412902166+412536831+412325186+412307728
2237+412241806+412101187+412190338+412618208+413216892+413855834+414483519
2224+414983607+415422448+416098740+416961014+417758464+418591498+419578318
2210+420589941+421627608+422762727+423883679+424940141+426007096+427191775
2197+428561197+430043382+431584476+433155526+434764784+436465912+438121534
2183+439658383+441301603+443119119+444926046+446693429+448490196+450289968
2170+452129378+454063187+456019940+457982321+460013248+461981592+463729275
2156+465401831+467133391+468742077+470064609+471197057+472129069+472703664
2143+473037898+473321857+473446688+473194498+472589231+471800224+470813882
2129+469556126+468042984+466324112+464444109+462364719+460107933+457877191
2116+455686087+453291495+450705674+448031846+445165930+442181288+439348905
2102+436813359+434411946+431899058+429392085+427170740+425324842+423842276
2089+422821637+422427539+422672574+423645990+425639185+428635705+432272788
2075+436322382+440491465+444282047+447454579+449906650+451594422+452821888
2062+453770786+454307555+454553496+454812556+455178081+455431655+455236037
2048+454693115+454121620+453376640+452164295+450534335+448686482+446692905
2035+444581365+442369894+440023479+437536063+434941608+432234246+429474081
2021+426851912+424191965+421209851+418346988+415952825+413670472+411348670
2008+409092838+406775759+404415511+402258942+400345883+398567505+396843266
1994+394999825+393064704+391590581+390686163+389883585+389142088+388646221
1981+388371421+388126815+387886669+387963824+388464508+389081532+389619088
1967+390428797+392002447+394119496+396233420+398268210+400479157+403067220
1954+406046949+409168586+412222583+415317746+418445679+421341980+424155999
1940+427233084+430286270+432889216+434929349+436466245+437660226+438665601
1927+439335310+439182527+438283952+437358380+436201939+434815584+433976587
1913+432993918+431002630+428691848+426890263+425243704+423378774+421463186
1900+419483251+417248502+414879049+412991986+411591988+410044741+408935857
1886+408805970+408875993+408826528+408939100+409312735+409914710+410737823
1873+411482183+411408534+410816146+411848281+414425421+416536913+417665115
1859+418352187+418910612+419389568+419673956+419452008+418658660+417440448
1846+415481835+413080231+412086543+411767381+410286866+407900336+405512136
1832+402463719+397841486+393639418+391029914+388325486+385745579+383475604
1819+380717275+377508634+374194528+370562596+366510664+363113441+360702273
1805+358384502+355581860+352218647+349209630+347278969+345548696+342928173
1792+340380726+340099320+340711002+340310512+339086337+337844752+336853639
1778+336403732+335966656+334394438+331824620+331221166+332976267+334757316
1765+335598936+335201022+334548533+334798100+335181203+335528579+335409042
1751+333542133+330917197+330184715+330582176+330550169+329712126+328530762
1738+328006013+326919143+323838457+322673263+324178702+325644525+326230616
1724+325756668+324768967+323090353+319049751+314884985+315773685+318352972
1711+319591957+319069212+316926167+314742719+313850871+311944990+308633150
1697+308000957+309821907+312244237+313541011+313119223+311867382+309324109
1684+306381110+308141743+311475240+313314841+313283526+312599889+312245358
1670+311718534+312915544+315889048+317575746+317936669+319389995+321447562
1657+322290113+320712075+318211612+320693758+323506536+325531357+330538554
1643+336915411+341931146+345214056+347214026+351968412+361894370+371287732
1630+379403901+387790720+396698615+406736454+419109426+430893397+441925949
1616+457079407+474358571+489914474+506003664+524631595+545448293+567164661
1603+590290424+615038038+640305964+665878789+692329581+718572688+743231627
1589+766118794+785931023+801284487+811517872+816577515+816461604+809028691
1576+793914777+782431554+773291360+757015758+739822931+729619645+721821207
1562+715200483+706035866+691827061+691137842+697429102+702911701+707686003
1549+713169270+718456157+721414086+721981145+724397631+735887245+748304292
1535+756606873+764050662+772668397+780341671+786508242+792309097+797523383
1522+803092797+811133505+819898204+829013308+837882184+844282677+847534391
1508+847467325+850435224+862405083+873137124+879786420+882876145+886106490
1495+891840422+895789989+895415352+894786284+900101313+907454662+912194715
1481+913894269+914413150+914133437+911370171+906689839+906158078+911463568
1468+915971798+916727558+916749977+918472713+918871963+914995663+913997301
1454+922438498+931379974+936410520+938466298+941955845+947572530+952710401
1441+956770823+960160391+963540514+968441888+973699201+977012257+980003339
1427+984821047+989403212+992852405+995079045+994599659+995928965+1002569198
1414+1008443463+1010156946+1009456613+1008893180+1008333467+1008094585
1402+1009619461+1010336489+1008873909+1007952820+1007215663+1006620843
1391+1006869933+1004954012+999970593+998316927+1002427147+1007637141+1010774089
1377+1011977944+1011430538+1011279424+1012866978+1013250391+1012879571
1366+1013429839+1012894358+1012247068+1013772517+1014945462+1014129981
1354+1012703081+1011894946+1011405257+1010766362+1010051052+1009689294
1342+1008491640+1005517445+1003568133+1003803295+1004627457+1006167406
1331+1007794170+1008218128+1008427055+1010307010+1013766220+1016774760
1319+1018079166+1018779785+1020517022+1023641377+1027075211+1029980241
1308+1033041633+1036811370+1040715049+1043524584+1045571586+1048739539
1296+1052380868+1054711207+1056511504+1059042184+1061692401+1063536772
1285+1065135870+1066752712+1067949220+1069132087+1069843581+1068528109
1273+1065435617+1062887860+1061991480+1060900770+1058637974+1057140286
1261+1057373254+1058282608+1059339833+1060282577+1060284390+1059651600
1250+1059992561+1061684292+1063568445+1064610692+1064533704+1063750182
1238+1063078565+1063250190+1063871627+1064251128+1064847475+1065349566
1227+1064983134+1064986091+1066341060+1067603109+1067501889+1067220172
1215+1068271196+1070077789+1071281167+1071480076+1071424076+1072145874
1204+1073076502+1072823883+1071832770+1071337834+1071513371+1072197294
1192+1073097299+1073410498+1072983773+1072766166+1073108748+1073643084
1180+1073741823+1072801654+1071415585+1069971609+1068830813+1068727686
1169+1067927660+1064713915+1061372906+1060618672+1060908116+1059840493
1157+1058340897+1057136661+1055589366+1053326856+1050279202+1047931404
1146+1046780592+1044635328+1041058776+1037465434+1033702660+1029452583
1134+1025204127+1020868095+1016241568+1010991602+1004644343+997887912+991746622
1121+985979873+979718379+973268850+967670769+962232005+955837809+948803192
1107+941143704+933812106+928729471+925220844+921614718+917547999+912326272
1094+905718188+899994274+896862668+894413078+890940989+887961547+886607437
1080+885555745+883411627+880347469+877906942+876989669+876357548+875248139
1067+874682130+874861291+874258553+872355415+871412003+872708205+874122608
1053+874349088+874293183+873743011+872499183+872050039+872853786+874198451
1040+876015920+878140863+879873234+880842977+881134711+880719243+879902904
1026+879788805+880762269+881737258+881971847+881748611+881616768+882270641
1013+883555299+884623113+885328884+885635595+885622144+885741299+885620331
999+884927821+884792925+885665646+885998974+884833280+882850292+881001246
986+879748928+878517407+876416409+873591801+870537565+867395561+864387403
972+861720682+859552999+857643279+855307120+852585639+850025576+847998322
959+846737418+846441964+847495850+849279642+850345739+850916709+852451030
945+855067570+857692696+860106988+862545130+864777017+867437060+871102716
932+874777625+877878131+880652558+882994728+885124441+887516123+890158708
918+892286227+893259976+893417387+892531310+890549467+888602731+886757883
905+885069968+884335768+883551865+881974518+880858432+879637501+876631346
891+873104497+871186954+870776829+870843609+870966103+870908195+870615889
878+870592611+871385863+873442977+876891502+881003917+885119003+890037931
864+896916951+905269808+913432723+919733713+923365120+924603509+923926168
851+922733857+922401197+921859801+920732075+921054528+923223355+925975459
837+929048298+932692489+935474931+934772785+931395715+928941546+929130438
824+931857166+936326377+941036665+944504556+946980190+949455920+951642301
810+953150578+953929234+954860721+957554345+961770841+966338315+970670818
797+974366239+978442974+984635398+991732694+996851771+1000341795+1003845557
783+1006607964+1008904914+1012900464+1018536133+1024547393+1030193461
772+1034189297+1036327596+1038306004+1040672405+1041973664+1042412218
760+1042616279+1041840199+1042231721+1044546988+1045445371+1045566529
748+1047043801+1048578789+1049014482+1047614198+1045717834+1046445546
737+1047534635+1045419422+1042886643+1042784565+1042675046+1039008245
725+1032930110+1029448481+1030717303+1033088856+1032801892+1031825280
714+1031401895+1029500188+1028284313+1030885303+1034518141+1034730597
702+1032334431+1031116457+1031698589+1032202874+1032235310+1032719466
691+1031861628+1028955930+1028554200+1031229316+1032618533+1032408939
679+1033726797+1037818033+1042831216+1047021859+1049841983+1048491975
667+1042486344+1041378080+1045472656+1048608077+1048423383+1047986927
656+1049868123+1049413636+1045618713+1045847960+1050353614+1054534336
644+1056258026+1053658753+1048865467+1046445642+1043519433+1034213528
633+1024274262+1023084717+1028041615+1028211427+1020582753+1011765965
621+1004842107+1002167277+1001770222+1002356170+1009708565+1019655081
609+1027786991+1035023189+1041734209+1049589077+1050536782+1040173081
##END=
