##TITLE=Sample description
##JCAMP-DX=4.24
##DATA TYPE=INFRARED SPECTRUM
##DATE=24/8/2023
##SAMPLING PROCEDURE=Instrument type and / or accessory
##ORIGIN=Default
##XUNITS=1/CM
##YUNITS=ABSORBANCE
##RESOLUTION=4
##FIRSTX=4397.6552
##LASTX=599.8556
##DELTAX=-1.9287962
##MAXY=1.440377
##MINY=0.53859645
##XFACTOR=1
##YFACTOR=1.3414556e-009
##NPOINTS=1970
##FIRSTY=0.67789108
##XYDATA=(X++(Y..Y))
4398+505339922+504097936+502883676+502265083+502763663+504478503+506623453
4384+507613816+506791720+505330236+504256961+503338357+502347816+501726335
4371+501697320+502165420+503053987+503999740+504455665+504204175+503915273
4357+503688754+502514706+501283340+501345323+501527898+501170791+501365185
4344+502133828+502762774+502922244+501990354+500233037+499083604+498783105
4330+498225473+497175526+496742084+497019256+497063555+497227290+498108882
4317+499406898+500616714+500858073+500041043+499423115+499541173+499567700
4303+498619637+497136870+496653529+497483312+497877387+496595456+495243943
4290+495955712+497513127+497491799+496516499+496213289+496761012+497674729
4276+497869389+497210761+496876849+497230623+498041788+498538991+498091864
4263+497566179+497148467+496153927+495300106+495346138+495833078+495921366
4249+495097048+494109396+493511819+492919885+493040520+493940906+494220255
4236+493944017+494002712+493929798+492877274+491843011+492438589+493804009
4222+494670538+495930030+497024144+495588830+492710473+491480128+492118672
4209+492595659+491740593+490665231+490420850+490400500+490666030+491314350
4195+490880685+489912672+490433736+491416101+491768275+492250060+492180656
4182+491246323+490836297+490955866+490494164+489654473+489431287+489759023
4168+489661804+489216410+489442084+489732053+488947769+488170817+488698812
4155+489543791+489325448+488725027+488290208+487243015+486254519+486418031
4141+487170768+487720179+488117631+488429416+488098303+487335791+487202404
4128+487706405+487574440+486105535+484800633+485017953+485518000+484934997
4114+484194880+484526082+485203061+485331338+485267666+484995915+484417266
4101+484401093+485102109+485185954+483789120+481871666+481149100+481570945
4087+481560370+481428627+482416812+483719405+484218118+483996887+483323819
4074+482782716+483052201+483611211+483518924+482829060+482012785+481208640
4060+480575072+480616706+481402678+481975728+481604625+480905741+480634479
4047+480687043+480794215+480717435+480629680+480833938+480708148+480077380
4033+479595284+479409466+479532989+479767817+479677485+479379874+478991265
4020+478497350+478386623+478718669+478824819+478685478+478565021+478249237
4006+478007211+477977530+477551642+476920118+476950021+477914080+479325933
3993+480542192+481115331+480456970+478972247+478134289+478153084+477998902
3979+477859739+478382979+478522543+478015254+477767363+477380264+477034133
3966+477828858+479464607+480143985+479107279+477704446+476773312+476519956
3952+477704535+479750488+480375347+479971097+479571646+477373866+474549228
3939+473689275+474759661+477626155+480060985+479293274+477874624+477827081
3925+477251054+476066386+476409674+477637175+477224394+474933038+473127422
3912+472909124+474214560+476871153+479112655+478387512+475778284+473744105
3898+473007853+474370119+476458283+475339376+471988120+472024244+473211311
3885+472858115+473620360+473414902+471669493+472694513+475261708+476560657
3871+474696656+470727339+470084219+471355530+471017441+470605638+471958173
3858+474680615+475436329+468332100+462926315+465895271+469019786+470284255
3844+471302789+472884152+472703577+468718710+465876609+466372168+466804589
3831+467376528+468834857+469712938+470464786+470318957+467176758+466376567
3817+467242918+466014484+466466499+468673299+469991576+468907371+467612333
3804+467705064+465717895+463954135+464669814+465337328+466412824+467712928
3790+468378488+468995704+469381336+469057910+468829436+468111802+467069497
3777+467723548+469115450+469871119+469383958+468382575+468350184+468439316
3763+469083236+470328821+470417820+470655491+472971996+474932638+472098847
3750+468958114+472539620+476102510+475496757+477569104+482909039+487690143
3736+489152471+485510313+482280315+484344574+488835221+491568150+491136529
3723+488381606+484416733+481700466+482137019+485081270+487221377+486238878
3709+486707644+490542640+495638506+500591165+505314862+510684123+516376899
3696+521927135+527596184+532575636+533832240+532690850+534137360+536662522
3682+538063755+538406998+537935433+533490996+528442052+530001865+531194220
3669+529487333+530328935+532317437+533674326+535727833+538831865+541651482
3655+545081384+550713154+556548427+557478894+555202512+556700342+559129529
3642+559301217+558127169+557675909+557833690+558534662+560471088+559647882
3628+552081463+548113079+549736210+551776343+550669743+546407215+543819270
3615+543324333+543254840+543326732+541577724+538274277+537270985+538484089
3601+539347197+539572204+540134057+539848665+538409975+538526656+539687152
3588+536902459+531401144+529233133+529108988+528599122+527791200+527169274
3574+526731610+527331720+530517686+533919284+530717234+525177573+524020098
3561+524176546+523188494+522602825+522967974+523032046+523631400+526909164
3547+530197459+528361273+524023564+522504273+523572615+524427503+523367869
3534+522353734+523494502+525577157+527888063+530601353+530843867+527312481
3520+523987751+523202890+523452824+523852897+524806737+525081509+523709646
3507+524007168+527650170+530205634+528548779+525372988+523463710+523054307
3493+522930828+522419006+521995606+522441400+523702937+524614254+524175302
3480+523374667+523480151+523569594+522893860+522091892+521933311+522914254
3466+524000459+524134601+524184544+524094034+522934693+521526484+520785567
3453+520686038+521084911+521155381+520389449+519689454+519714470+520627964
3439+522215193+523193470+522654011+521276683+520164308+519712870+519721001
3426+520063001+520538698+520847018+521297922+521780907+521664848+521397674
3412+521523552+521393186+520729404+520826045+521858175+521715501+520110411
3399+519244815+519825285+520349415+519757481+518678874+517963195+517815900
3385+518158388+518539177+518637463+518488035+517932758+516893208+515924484
3372+515834686+516369168+516578313+516715077+517311055+517729301+517677892
3358+517410095+516424531+515138290+515061732+515690190+515752707+515691967
3345+515943324+516179306+516395205+516603107+516346596+515497307+514869827
3331+515098434+515445810+514670501+512666626+510884781+510769212+511859237
3318+512729943+512689065+511866702+510815866+510035359+509790224+509806486
3304+509599873+509164343+508576452+507943863+507945595+508713617+509194513
3291+509173896+509116755+509023846+508665629+507476963+505936210+505273762
3277+505628691+506124383+506051469+505764078+505478952+504795398+503986943
3264+503553012+503111794+503038302+504056614+504544575+503698485+503453571
3250+504042217+503749138+502765663+502300229+501970449+501195896+500582945
3237+500715622+500907838+500654438+500121022+499397033+499188421+499286529
3223+498940309+498799190+499381615+499788886+498911694+497428482+497092881
3210+497640560+497091504+495751721+495465085+496221509+496592257+495666721
3196+494756248+495386928+496640600+496463090+495174628+494958906+495466685
3183+494976902+493490713+493472940+496285892+498343887+496739152+494524309
3169+496009076+499192554+498627946+494858488+493845687+497329486+499285774
3156+495907192+492496129+494980901+499634438+498770220+494177333+494462148
3142+501460004+504465884+497496775+491124888+494887370+503469878+503518888
3129+495100381+491853408+499540551+506346725+500384197+490879841+492152397
3115+503207191+507746625+498382010+489832426+494275930+504999478+504540354
3102+493017059+488051115+496237816+505643842+501006923+489127678+487171878
3088+498016017+506467716+499088847+487642689+486737326+494708616+498578759
3075+491354295+483774279+485935136+494641167+496769677+488566847+481914588
3061+483580774+489867439+491170565+484949927+479369388+479131450+482218375
3047+483033184+480227785+478123536+478692187+480188996+480102707+478322862
3034+476923584+477318147+478933502+479480870+478257946+477739415+484664179
3020+515138423+574975958+622891769+612493247+572353844+540289483+521384210
3007+508995898+499132169+492255792+488826023+486623444+483323730+480230940
2993+479602083+482754724+486910880+485479522+479818115+477440471+481595250
2980+488252707+488300872+481666609+477359825+479199121+485213680+488184102
2966+483512348+477652415+477978197+487013387+495707555+490710374+479395426
2953+475305518+480876149+490403566+491467110+482982709+476897546+479117676
2939+487521654+491655549+484764509+476366219+475460100+482832392+491112802
2926+488491133+478717870+474049181+477489036+484659825+485723813+477895907
2912+470930486+471135721+476976725+481534199+478998418+473482307+471334691
2899+474483289+480391387+481836520+476976459+472081207+471465679+474968851
2885+477947182+476005069+472091738+470767951+472554772+474783877+474271789
2872+471821897+470100526+469976425+471518377+472854071+471670959+469283362
2858+468307351+469282962+470549741+469972159+468062837+466961570+467181912
2845+467994410+468393684+467866666+467289262+467473036+468044708+468500589
2831+468546177+468074567+467614821+467597981+467867688+468209332+468236080
2818+467675783+467059189+466853864+466856442+466870660+466675111+466202613
2804+465916732+466023815+466231272+466295788+466252866+466270551+466355328
2791+466390430+466244380+466000932+465981515+466121345+466066782+465829733
2777+465713585+465914377+466361416+466750914+466721055+466240914+465701277
2764+465581442+466012618+466567939+466912338+467076517+467057633+467006758
2750+467085271+467162628+467243896+467598514+468130019+468267006+467957042
2737+467784998+467871998+467789664+467538219+467744342+468361070+468428519
2723+467974416+467820900+468000009+468381287+468828681+468896485+468597763
2710+468320725+468401504+468808686+469124870+469262923+469469624+469876184
2696+470399292+470701924+470570669+470453144+470815316+471284882+471449284
2683+471461103+471449106+471437331+471461814+471511445+471618928+471814566
2669+472188468+472648259+472798486+472760985+473007542+473506345+474071397
2656+474548072+474662576+474584507+474791964+475157246+475399183+475798589
2642+476444998+476959619+477200445+477358048+477469174+477578523+478110917
2629+479039297+479755465+480131722+480393742+480627103+480790838+480893967
2615+481146123+481568190+481997100+482434808+482891310+483282186+483608323
2602+483975826+484263884+484415489+484846354+485626239+486265271+486587054
2588+486725418+486695870+486678274+487118426+487998284+488727205+489033480
2575+489249690+489755824+490456974+491005097+491407347+491856385+492278897
2561+492408196+492286673+492501816+493321868+494258956+494912563+495336097
2548+495692670+495993436+496212978+496416969+496556044+496715380+497162152
2534+497766749+498243380+498569472+498803056+499043259+499347491+499706597
2521+500220062+500840611+501188476+501130180+501037093+501165370+501457827
2507+501851857+502263394+502523104+502502798+502288632+502259040+502728828
2494+503412382+503826229+503998895+504109000+504108600+503971436+503858888
2480+503870129+503864442+503853778+504000139+504241809+504417097+504539420
2467+504605581+504410254+504181559+504365821+504636062+504543419+504262826
2453+504029332+503857954+503850579+504064789+504168362+503953352+503743051
2440+503771888+503822453+503704617+503567319+503397497+502885853+502127519
2426+501625783+501586238+501702341+501516079+500973598+500439072+500038510
2413+499676116+499337716+498986608+498850821+499001004+498890766+498330068
2399+497752308+497626697+498287413+500221529+504681383+513190000+526326161
2386+543736359+564293954+585846267+606458115+625522102+643341526+660651750
2372+677892436+695522176+713725632+730769526+743246348+749401759+752284560
2359+752454115+744877921+730006037+712223315+694520127+683963913+686665073
2345+697313929+700194686+692636931+683996838+677244872+673562458+675286674
2332+679660640+679793938+676102816+675841595+680143669+681815276+675976671
2318+665237216+655685983+653285323+656834082+657574466+650627396+637861050
2305+623240744+611371540+603529904+596524361+588142066+578913771+569148194
2291+558951042+549294859+540971749+533956075+527882642+522622819+518439070
2278+515241152+512305476+509412989+507001931+505207646+503900610+502835111
2264+501703008+500557130+499586362+498731608+497846639+496959227+496330192
2251+496115182+496089810+496028449+495905592+495711110+495616912+495831434
2237+496209335+496498370+496655840+496781940+497000905+497327486+497666775
2224+498065915+498637588+499310434+499937292+500489547+501107075+501883982
2210+502710744+503477610+504190667+504845385+505471221+506181124+506952344
2197+507723920+508517446+509244144+509769696+510312931+511313958+512457303
2183+513070654+513476770+514310285+515330951+516006596+516483893+517192463
2170+518088184+518864159+519537538+520367677+521093264+521276594+521284414
2156+521680488+522303703+522669474+522712129+522669430+522553682+522222435
2143+521871727+521759712+521600109+521108905+520427172+519515944+518247565
2129+516988561+516033833+515132780+514054085+512620683+510823464+509204021
2116+508015933+506780123+505169522+503409005+501807869+500312705+498687353
2102+496996906+495419941+493922600+492379315+490765515+489372947+488428394
2089+487473044+485972015+484298409+483071263+482109782+480978789+479708455
2075+478570797+477545954+476371195+475239180+474620409+474232644+473313418
2062+472082718+471114305+470260884+469567954+469229465+469059554+468935453
2048+468891198+468985884+469353032+469896668+470100348+470166064+470817138
2035+471716680+472274268+472770182+473622848+474634094+475462633+476145921
2021+476862933+477682496+478056665+477419587+476335693+475457479+474689680
2008+473762545+472634440+471348643+469919995+468458111+466999960+465783567
1994+465112187+464223931+462409739+460267678+458180935+456280588+454741658
1981+453399920+452168331+450989040+449773403+448576116+447638851+447144713
1967+446424724+444833674+443287368+442499574+441952650+441352763+440698712
1954+439827029+438901271+438265571+438000530+438136138+438497777+438182482
1940+437092989+436308039+436074101+436047796+435938892+435725303+435612221
1927+435838962+436642041+437443609+437483687+437126314+436857229+436822438
1913+436929254+437004346+437079882+437169769+437280407+437478222+437694654
1900+438007417+438573268+438987960+438880077+438666933+438455077+438169596
1886+438222249+438390650+438545853+439065540+439387855+439044345+438944460
1873+439957173+441480863+441801801+441024405+441296200+442576709+443559163
1859+443613149+443221696+443224629+443845444+445148080+447174261+449021333
1846+449723860+449298949+448453926+447744290+447290897+447429705+448143518
1832+448171422+446385623+444500428+444143677+443612171+442103411+440908613
1819+440424384+439281305+437223355+435431735+433612567+431555150+429710344
1805+428660219+429009283+428456450+425328114+422719863+421492007+419962807
1792+417792931+415848773+414977624+414884715+414280073+412946378+411550743
1778+410185634+408929474+407291414+405019164+404801710+406289276+406234846
1765+405343524+404961179+404858717+405010411+404661347+404255275+405421637
1751+406842598+405966961+404582123+404650594+404437850+402800767+401501507
1738+402298365+403922829+404540001+404605717+404601496+403986412+403896125
1724+404621579+405253059+405779099+406441814+407035036+407234095+407217566
1711+407464346+407940666+408226102+408740412+409803245+409898376+408954312
1697+409174343+409851366+411218252+413576835+416074714+417760540+417889306
1684+417714063+420087619+422432250+423410838+423690987+424097281+425204013
1670+426766404+428736733+431177738+433406488+435180157+437286183+439951219
1657+442411375+443253332+441731819+443031479+445845542+447423396+449303659
1643+452465320+455322839+457258821+457763267+457170755+459061371+462486652
1630+465081884+466807032+468443670+470289454+473048198+476028351+477354760
1616+478012365+481076941+484931265+487674947+489710103+492036338+494681912
1603+497416485+500033533+502478582+505006276+507898097+511293341+514860585
1589+518305550+521815075+525604439+529493687+533218223+536580276+539392918
1576+542794205+547586684+552097147+556171547+560704983+565619296+570573732
1562+575093038+578381688+582681674+590919783+599282883+607505974+615705383
1549+623453133+630988715+638261434+642067104+642624514+650813792+662465719
1535+670887914+677506359+684038427+690882813+698153087+704467301+708437239
1522+712983027+720702117+729997195+739586284+748386025+756651505+764388413
1508+768851334+768864663+773866909+781943995+788493924+792763562+797624956
1495+804635298+811545312+817515660+822554963+827640831+833133882+838975730
1481+845227249+850752114+854700680+856904192+857842258+860783265+867070597
1468+873139675+876800139+879991925+884808087+888891284+890062533+892691800
1454+900692550+908943990+915083449+919061341+923167022+928427423+933577541
1441+938311057+942145253+944683344+949007812+955438395+960557411+965052856
1427+970305348+974565743+978157247+981254481+982861438+986214249+992104263
1414+996786415+999760214+1001979277+1002619377+1001140564+1000653047+1003363004
1400+1005858973+1006387901+1006601090+1006121393+1006017687+1006873107
1389+1005309161+1000291719+997689912+999780209+1002789376+1004310667+1004927661
1375+1005899584+1007290243+1008538449+1009761951+1011482389+1012865672
1364+1010963681+1007395637+1008140598+1011784710+1013270810+1011297282
1352+1008811533+1008626693+1010213211+1010900586+1010310252+1008903065
1341+1005949260+1003635644+1003763166+1004530698+1004273966+1002872110
1329+1002411253+1003217620+1003811153+1004319642+1004840839+1006364174
1317+1009994868+1013614453+1015588159+1016596251+1018985225+1026342232
1306+1036444032+1041773126+1041953523+1042096064+1043277976+1044542534
1294+1046375299+1048712198+1050730425+1052577853+1055056670+1057966131
1283+1059707097+1060029857+1060328712+1060748691+1061127081+1062148147
1271+1063706406+1064390138+1062913725+1059906956+1057624354+1056659095
1260+1055703612+1055059603+1055457454+1055823136+1055608615+1056658829
1248+1059419617+1061146276+1061180845+1060171865+1058661682+1059245885
1236+1061129214+1061254070+1060681598+1060764332+1060981697+1061599846
1225+1062843432+1063985266+1064587686+1064260750+1063087723+1062316192
1213+1062802198+1064952480+1068027052+1070010978+1070616508+1070918296
1202+1071068745+1071210663+1072361118+1073741823+1072671437+1069741093
1190+1068196075+1068384115+1068498396+1068596770+1069823915+1071007605
1178+1070074961+1067923257+1066800440+1067573216+1069097350+1068676305
1167+1066563347+1065556410+1065097686+1063506814+1061490364+1059940725
1155+1059650757+1060397139+1059786454+1057580810+1056044412+1055026278
1144+1053367602+1051715145+1050627163+1049295868+1046487092+1042047099
1132+1037124832+1033335690+1031301290+1029258358+1025622865+1020811591
1121+1015485341+1010966702+1008369071+1005822627+1000660512+993936494+988811169
1107+985639644+982232714+977380562+972731557+970016445+967623650+964360771
1094+962187384+961665210+960757892+958736376+956529043+954415730+952275046
1080+950449390+948785204+946212988+943121531+940959519+939286180+937247780
1067+935095366+933756516+933931670+934215329+932770641+930149194+928452394
1053+928237606+927835666+926876629+926119671+924953665+923401183+922561403
1040+922454586+922401533+921981910+920707666+918871258+918245111+919069161
1026+919301723+918789412+918788790+918781770+918526281+919128079+920263427
1013+920642350+920724106+921257389+921520786+921619694+922144978+922670085
999+923389541+923912071+923048209+921920148+922244686+923324670+923592333
986+923020838+922233577+921154393+919989543+919141320+918178817+916414301
972+914043544+911638040+909038454+906560881+905161780+904090594+902080009
959+900087287+899236398+898878270+898257810+897839519+898443450+899741244
945+901697443+904670353+907205512+908884806+911036509+913622676+916270516
932+918871880+921382956+924355689+927618301+930367448+932587133+934460421
918+935667216+936075465+936020013+936354503+937277728+937321361+936468606
905+936487801+937086400+936704011+935450562+934638952+934587765+934377243
891+933449574+931976893+930531494+929809372+929725216+929880375+930818086
878+932505644+933511069+933351111+933017687+933755983+936253907+939962980
864+943483747+946854332+952218083+958993376+962973312+963647446+964862328
851+967792939+970295483+971532226+972477757+974501582+978359594+981954920
837+983653853+985396063+986414286+984607381+983511579+985453293+988338226
824+992581293+998290732+1002506517+1004799517+1007010405+1009421151+1011384460
810+1013067486+1014449168+1014736382+1015287171+1017662372+1020663719
799+1024104241+1028066403+1030626266+1030726418+1029063653+1027955321
787+1030065080+1035516631+1041342572+1045011123+1047142920+1049058685
775+1050901225+1052097179+1052866933+1053500011+1052564256+1050817158
764+1050732114+1052039860+1053300775+1053942295+1054896623+1056766267
752+1056149362+1051015506+1047082047+1048512162+1052060921+1054823220
741+1055069200+1052267090+1050156620+1049700028+1048408900+1047600400
729+1049850744+1052590027+1050460007+1045073240+1043037506+1043890616
718+1043305436+1041726471+1039571036+1036184900+1034145967+1035122511
706+1037291632+1040189096+1043065410+1041365588+1036490509+1035471665
694+1037465365+1039143592+1040576995+1038668250+1033523019+1030579879
683+1031041180+1034258293+1039790445+1044345164+1045178723+1042721944
671+1039350738+1037834246+1039215484+1038151852+1030653815+1022115695
660+1022312710+1033105440+1047233830+1051343954+1039062369+1025620199
648+1023346217+1027616210+1028592043+1018177348+1008210357+1014734338
637+1026516409+1034592961+1043023021+1039625066+1020272177+1004442721
625+1005748424+1011891616+1009262437+1012698160+1027027209+1030242100
613+1020113197+1022289871+1044101583+1058638666+1053251454+1045639136
602+1036951810+1023975208
##END=
