##TITLE=Sample description
##JCAMP-DX=4.24
##DATA TYPE=INFRARED SPECTRUM
##DATE=24/8/2023
##SAMPLING PROCEDURE=Instrument type and / or accessory
##ORIGIN=Default
##XUNITS=1/CM
##YUNITS=ABSORBANCE
##RESOLUTION=4
##FIRSTX=4397.6552
##LASTX=599.8556
##DELTAX=-1.9287962
##MAXY=1.4475061
##MINY=0.54841572
##XFACTOR=1
##YFACTOR=1.3480951e-009
##NPOINTS=1970
##FIRSTY=0.69281298
##XYDATA=(X++(Y..Y))
4398+513919967+515083590+514541748+512606635+510923585+510884942+512108697
4384+512490308+511366212+510524820+510992515+512018102+512419388+511792434
4371+510811724+510183134+509958925+509799180+509781450+509855951+509336569
4357+508320355+507300781+506504177+506386436+506730420+507201211+508142128
4344+508821874+508347414+507605680+507266957+507036602+506873541+507058179
4330+508211544+509790470+510045186+508698561+506702654+505461877+506130702
4317+507471712+507655111+507208418+506983457+506501259+505882396+505645763
4303+505605440+505796710+506077557+505796400+504860081+504089431+504275483
4290+505043569+505530895+505466564+505157685+504980475+505107900+505368807
4276+505057629+503931852+502876332+502880046+503559482+503717547+503915582
4263+505161797+505660398+503776440+501716246+501470858+501773503+501286309
4249+500453539+500346629+500999139+501422134+501198191+500904345+501262610
4236+501847473+501825543+501454101+501344804+501414839+501011740+500206206
4222+500351184+502085123+503206655+501724293+499815487+499405712+498848660
4209+497606999+497475197+498501669+498688207+497499470+496834183+498076330
4195+500015025+500735934+500022408+498839640+497889172+497355421+497083417
4182+496981106+497350248+497810339+497421079+496591094+496347741+496386737
4168+496031345+495862757+496396685+496765607+496212711+495278381+494869933
4155+495021763+495181508+495266488+495711501+496227081+495775523+494597088
4141+493811671+493613637+493815164+494002720+493347645+492265552+492130435
4128+492626206+492565942+492520092+493657630+495139240+495140345+493723862
4114+492283238+491510024+491400860+491645894+491794895+491655444+491226347
4101+490279151+489022855+488658753+489639286+490622782+490898987+491437513
4087+492044129+491425885+490075457+489238354+488844319+488617280+488839632
4074+489215628+489170220+488756156+488368488+488328828+488437418+488301504
4060+488032727+488113197+488664015+489037755+488708538+487983783+487492919
4047+487469397+487695286+487739898+487193413+486276814+485767026+486035051
4033+486633488+487015762+487003824+486615227+486285922+486424621+486735180
4020+486646221+486204922+485796959+484822218+483180553+482344201+482830997
4006+484158566+485675415+486003792+485017599+484107676+484040603+484980725
3993+486345478+486867689+486274824+485537158+485333022+485349646+484908435
3979+484418677+484850161+485372196+485014239+484459708+483982020+483602354
3966+483835981+484465190+484673394+484907020+485739879+485645747+484136017
3952+483743706+485373345+486124187+485659896+485847938+484917101+482840061
3939+482157442+482884850+484519352+485408318+483579054+481580184+481740813
3925+482482635+482344378+482609353+483910835+483903628+481360440+478959223
3912+478283545+479447567+482300430+484866962+485046471+483732874+481562587
3898+479562214+479987729+481294164+479637466+476890938+478118008+480131424
3885+479575213+479282826+478391649+476906413+477876777+479124716+479047209
3871+477745063+475663160+475960411+476738223+475386823+474510723+475510135
3858+477891235+479680221+474923106+468848018+470305929+473722122+475850362
3844+476517197+476475061+475088997+472056361+471085422+472348703+472758125
3831+472582772+473193588+474240973+475586404+475377493+471430468+469913398
3817+470922493+470187966+470851176+473519711+475260061+473698866+472180292
3804+473206631+471965501+470802894+472489436+472700426+472337252+473427215
3790+474713444+475327753+475033597+474519035+474845025+474458506+473147694
3777+473634225+475404862+476253947+474826366+473093178+473502158+474246279
3763+475134007+476308065+476048794+475676468+477183767+478583493+476371424
3750+474212146+477804443+480971313+479915439+481963607+487941779+493393893
3736+494002410+489303349+487339143+490669163+494962030+496254405+494170335
3723+491254511+488738338+487500391+488515942+491614015+494117322+493209123
3709+493033991+496204797+500662052+504998691+509358499+514760607+521021041
3696+527221476+532699588+536627867+537839551+538291330+539871051+541044932
3682+541292574+541503961+542321832+540251247+535946176+536052246+535493027
3669+533366246+535291367+538725688+540526744+541719637+544106352+546788195
3655+550223709+555736352+560153284+559236286+558008066+560750482+563749826
3642+564784300+564079176+562940710+562058509+562486810+565075052+565813292
3628+560171854+556369717+556608384+557236223+555661896+551144952+548300136
3615+548082736+548345986+548827697+547567378+544478457+543811224+545527124
3601+546570264+546052563+544991516+543201690+541649470+543027221+545568597
3588+543644891+538558117+536354802+535871720+534364510+531808411+529983435
3574+530219228+532781472+537314378+540646122+536722131+529988078+527358407
3561+527049838+526998947+527924302+529406133+529271767+528859383+531779186
3547+535951128+535334211+530774998+528181052+528661702+529595325+529344808
3534+528917701+529523433+530865327+532847219+535175969+535168806+532225924
3520+529859326+529569327+530283427+531406373+532864285+533674683+532974113
3507+532722270+534217189+535364188+534444404+532226675+530082209+529018244
3493+529183648+529610800+529554029+529864278+531215325+532581448+532416221
3480+530713098+529628441+530220599+530897559+530695103+530399002+530415494
3466+530617906+530324679+529354447+529011966+529110740+528380192+527767386
3453+528285220+528997508+529458659+530440121+531450234+531026796+529984717
3439+529856585+529940371+529614646+529093142+528523136+528618771+529056180
3426+528990212+528998790+529356437+529503758+529654174+530363056+530800554
3412+529472056+527122437+526078191+526733000+527525271+527388251+526801753
3399+526753471+527223952+527494542+527138796+526582054+526559814+526968042
3385+527502235+527880530+527994646+528272000+528336022+527507364+526306026
3372+525699720+525845316+525896737+525287469+524977529+525785981+526673930
3358+526711114+525974023+524860715+524324886+524537511+524549184+523807450
3345+522536033+521716704+522485938+524250960+525303474+525512783+525441643
3331+524798860+523729854+523374109+523626747+522792385+520981558+519680252
3318+519515113+520060581+519961807+518922203+518025013+518048889+518524631
3304+518230299+517477246+517408759+517561032+516877351+515358955+513876814
3291+513407615+513916341+514855623+515992674+516341522+515231751+513902414
3277+513528187+513498917+513120268+512936338+513203700+513469780+513395235
3264+512631173+511189886+510174822+510263117+510617625+510383644+509587483
3250+509045243+509067085+508961237+508117634+506735328+506017603+506357564
3237+506653665+506206396+505685423+505555301+505122889+504579676+504562919
3223+504736326+505207249+505949955+505649256+504286493+503393105+503366400
3210+503481356+502590400+500934587+500200104+500752116+501351481+500728682
3196+499783564+500390888+502025080+502427472+501414441+501027790+501692105
3183+501904642+500823389+500308119+502006157+503492852+502160243+500205543
3169+501349933+503978940+503643489+500422103+499459786+503078876+505635771
3156+502715482+499100680+501514719+506799571+505968392+500092355+498909631
3142+505865153+510736605+505599515+499380510+502037460+509130532+508293782
3129+499973817+496997907+504861805+512324815+507157085+497793626+498589566
3115+508890362+513229167+504616594+496538126+500317316+510170975+509876068
3102+498946196+494129216+502226519+511370323+506320955+494180150+492229739
3088+503119553+511370766+503817382+492265199+490902259+498291918+502259193
3075+495870583+488911613+490933341+499244066+501402194+493255282+486362898
3061+488296022+495562633+497409672+490787523+485071408+485627929+489508678
3047+490201511+486439256+483150576+483148984+485172879+485806642+483945278
3034+482252369+482669705+484089725+484002491+482474677+482713432+490744592
3020+521235965+579746399+626570238+617020240+578458180+547034423+527240356
3007+513320116+502873900+496512659+493604484+491552425+488508337+485663875
2993+484873948+487797111+491792109+490037831+484148132+481712516+485811373
2980+492448510+492449659+485673514+481237526+483057505+489203204+492455584
2966+488084546+482515354+483140937+492277932+500955677+496169337+485298933
2953+481598621+487065989+495845160+496077063+487516043+482153949+485147102
2939+493747826+497566808+490493235+482304895+481485654+488608747+496816807
2926+494488587+484736266+479889972+483921447+492094179+493209477+484892739
2912+477918648+478258255+483848759+487826115+484786184+479303208+477584213
2899+480717746+485836796+486329870+480962559+476379205+476668630+480766293
2885+483915743+482130515+478240260+476946382+478897899+481112931+480320262
2872+477309600+475263598+475841298+478352342+479682299+477830441+475226237
2858+474720164+476002679+477084462+476195540+473872096+472579810+472976188
2845+473598102+473491104+472954612+472548948+472497749+472978399+473690686
2831+473941202+473779247+473737641+473993817+474287752+474255608+473837919
2818+473259423+472807644+472774086+473156449+473276136+472721692+472241971
2804+472448229+472925828+472998958+472521138+472012191+471865400+471955597
2791+472199746+472548064+472741279+472657317+472394067+472029832+471699421
2777+471777105+472440624+473059266+473008818+472542493+472169018+472110700
2764+472251079+472363559+472499473+472815205+473175372+473324152+473224715
2750+472941701+472722444+472956071+473593238+474061288+473964194+473669905
2737+473686132+473877844+473806350+473511487+473720354+474544767+474988013
2723+474703761+474271569+474047404+474160636+474578149+475036162+475224955
2710+474994512+474693371+474816860+475200549+475241138+475049470+475275138
2696+475698266+475786207+475786429+475901783+476046937+476320666+476655896
2683+476896067+477035429+477031583+477050860+477380917+477823322+478066676
2669+478232567+478344030+478340891+478426136+478596359+478845770+479368512
2656+480048789+480536601+480697496+480826468+481137160+481470577+481867928
2642+482536709+483267124+483558008+483420502+483412057+483852119+484461786
2629+484727290+484695987+484899106+485518279+486227427+486693000+487001304
2615+487382472+487884699+488450859+488909314+489093111+489112079+489313651
2602+489853105+490482093+490859106+490988432+491196945+491697314+492450013
2588+493100003+493330358+493447259+493734695+493990384+494166753+494495927
2575+495122969+495847680+496227346+496187200+496142013+496446912+497039512
2561+497588385+498074871+498720263+499234338+499235886+499198127+499798067
2548+500752912+501374162+501651163+501884347+502112182+502363494+502684930
2534+502927046+503073748+503373960+503965146+504654884+505020091+505034726
2521+505047415+505184213+505549642+506044352+506249726+506186190+506284788
2507+506649376+506994201+507225219+507476443+507714933+507959878+508300901
2494+508414796+508132003+508030311+508394281+508712444+508724338+508842389
2480+509303320+509784368+509996418+509959146+509906001+510059202+510332091
2467+510453370+510217444+509710531+509324410+509271000+509309908+509254906
2453+509269762+509307211+509094542+508837349+508905748+508985819+508699843
2440+508433675+508457816+508458347+508360103+508300414+508200004+508019037
2426+507742301+507340485+506914129+506370297+505676890+505304652+505332640
2413+505201678+504827804+504433327+504009271+503750840+503633452+503232653
2399+502715526+502670826+503381698+505299700+509545480+517554400+530436407
2386+548167008+568993162+590254823+610374437+629166704+646564462+663213588
2372+680846963+699648381+717523606+732811782+744174907+750735907+753660131
2359+752774968+745452426+731331675+713625658+696320882+685852559+688185245
2345+699037433+702022760+693075311+682975556+676284080+673971778+677302240
2332+682629980+683118588+679632228+679181732+682870459+684279117+678736276
2318+668197078+658219266+655038778+658526155+660109988+653960443+641581370
2305+626930361+614710414+606601438+599756716+591921778+583088401+573262773
2291+563044392+553746723+545515540+538085867+532018118+527422561+523717519
2278+520440998+517434889+514846647+512698688+510881936+509290940+507770200
2264+506405757+505315485+504440800+503668602+502952999+502453204+502104754
2251+501599344+501070324+500943695+501226488+501416431+501237011+501085445
2237+501193813+501259515+501301607+501592402+502080790+502665431+503275894
2224+503799829+504261291+504689370+505104274+505537085+505939476+506445373
2210+507160755+507870433+508518831+509255348+510045496+510798593+511594621
2197+512504500+513372023+514070515+514774623+515683751+516666981+517430822
2183+517948391+518496776+519193191+519833719+520474600+521363876+522335036
2170+523174085+523918913+524657331+525448142+526078368+526322783+526414881
2156+526614993+526842651+527034938+527283951+527585136+527553258+526949428
2143+526494289+526572327+526490531+525997191+525267440+524355394+523509713
2129+522755069+521823348+520606535+519207914+517690004+515952527+514238838
2116+512986654+511836781+510163547+508220520+506597602+505269812+503877381
2102+502441443+500983134+499250388+497408080+495958790+494995368+493971858
2089+492438164+490625302+488990800+487819041+486992107+486134754+485063405
2075+483770058+482360339+481114920+480279320+479823695+479398887+478570936
2062+477526691+476724870+476081380+475476267+474970769+474571871+474308355
2048+474241460+474445109+474947734+475538830+475757910+475708745+475914118
2035+476384113+477037375+477981255+479040798+479849605+480479654+481156968
2021+481837244+482508368+482699549+481956445+480927939+480181652+479509466
2008+478674353+477582533+476245325+474814959+473331801+471852004+470707657
1994+469974899+468829094+466734015+464523625+462804188+461490060+460283903
1981+458866668+457378691+456054880+454892981+453821721+452944781+452378002
1967+451619644+450310556+448975559+447906907+447003527+446294601+445618702
1954+444822408+444136959+443682395+443340399+443257454+443489445+443313871
1940+442451124+441584353+441040786+440787617+440566459+440316561+440302059
1927+440627563+441271451+441838141+442006773+441935589+441710142+441648552
1913+441898095+442222714+442401737+442284039+442220813+442588629+442971611
1900+443060481+443269657+443622264+443696985+443546879+443191841+442761683
1886+442769111+443036252+443490241+444271148+444545938+443987515+443773122
1873+444806889+446365210+446635977+445870367+446245169+447537721+448526920
1859+448730304+448462677+448280250+448563441+449793341+451967210+453875573
1846+454384078+453698010+452949954+452496053+452195133+452422304+453118320
1832+452783532+450404732+448401043+448303861+447908411+446575359+445650138
1819+445324369+444214598+442175140+440359803+438336483+435947646+434000551
1805+433206379+433760159+433023201+429739782+427347143+426202753+424256586
1792+421712381+420024291+419506899+419527194+418979161+417699742+416207343
1778+414713043+413378621+411584109+409234401+409261283+410997389+411063268
1765+410153963+409500967+409112724+409245145+409007274+408765556+410074688
1751+411449300+410296332+408772409+409015895+409200179+408037661+406807894
1738+407034800+407889765+408091691+408396988+408793941+408561508+408726073
1724+409570295+410282316+410626699+410699564+410971966+411580395+412063786
1711+412601516+413042330+413107368+413563436+414651232+414364814+412561326
1697+412552262+414031087+416262257+419007768+421565325+423063118+422927160
1684+422944536+425912620+428514392+429320015+429246133+429609793+430827004
1670+432318474+434352361+436832014+438778888+440372050+442825439+445842115
1657+448206988+448442516+446380641+447998740+450859473+452218699+454426656
1643+458051451+461023337+462747904+462811483+461953423+464187334+468092180
1630+470951144+472699276+474274929+475945731+478418487+481330021+482835684
1616+483579275+486537278+490410290+493259350+495234565+497441064+500125427
1603+502867622+505550172+508454102+511500136+514413748+517464159+520730688
1589+523880270+527121641+530961935+535135469+538998267+542182602+544371105
1576+546870123+551386979+555931336+559941809+564821661+570254321+575173701
1562+579271850+582440710+587319236+595847139+604350725+612638679+620492143
1549+627697385+634712419+641588046+645703350+647099849+654962641+665929344
1535+674127322+681007106+688205406+694980447+700899902+706067897+710730040
1522+716508807+724060068+732725830+742031855+750544991+758767376+766688045
1508+771017654+771114041+776108452+783358483+789173593+793708533+799718539
1495+807357476+813595803+818025336+821716495+826769357+833352022+839948571
1481+845359654+849333253+852732954+855422667+856123282+858061445+864752435
1468+871844092+876366032+880520112+886194799+890905975+891924488+893085017
1454+900673992+909215513+915003388+918244008+922231224+928025466+933692813
1441+938677762+942784268+945170850+947743219+952596587+958138102+963560416
1427+968130991+970823180+972996740+975327435+976834336+980848965+988417071
1414+994106172+996181488+997482352+998957595+999440235+1000322569+1002259583
1400+1002451118+1000642943+998936372+997870639+999415652+1001967506+1000960753
1387+996765466+994990010+996611071+999122778+1002161605+1005712695+1008127043
1373+1008515065+1008232803+1008455730+1009630495+1010752027+1009756859
1362+1008029773+1008509759+1009913907+1010299453+1009722549+1008952518
1350+1008245802+1007458086+1006122824+1005147729+1004427395+1001371148
1339+997292939+996078292+997760900+1000232372+1001095341+1000302496+1000055517
1325+1001089947+1001883411+1002006060+1003339289+1006193478+1008562551
1314+1010049644+1012184383+1016999816+1025534174+1033899901+1036708373
1302+1035861410+1036980908+1040943718+1044534777+1046572246+1048452755
1290+1050101052+1050527717+1050915031+1053549034+1057624944+1059862083
1279+1059742882+1059300742+1058971260+1058943317+1059818753+1060177948
1267+1059308878+1057718678+1055385683+1053367846+1052162396+1051632889
1256+1052369140+1054044673+1056009277+1058184074+1059877735+1059750929
1244+1058412749+1058876023+1061890001+1064144207+1063416533+1061498619
1233+1060871134+1061038528+1060153984+1059766669+1061667163+1064083280
1221+1065396435+1065345324+1065008501+1066140821+1067740660+1067404811
1209+1065738386+1065352044+1066788645+1068664378+1069369591+1068385034
1198+1067189046+1066818268+1067060207+1068187133+1069730289+1069911920
1186+1068844506+1068565870+1069986111+1072352355+1073741823+1073174027
1175+1071905528+1070849168+1069847898+1069006329+1067896558+1066025865
1163+1064523386+1063767592+1062187827+1059109296+1055948881+1054732377
1151+1055750448+1057380618+1057906057+1056672840+1054583111+1052850454
1140+1051116028+1048479106+1044948266+1040658361+1036310093+1032727700
1128+1029418372+1026165727+1022969233+1019192298+1015061563+1010961513
1117+1006876584+1003154474+999070341+993445085+987140349+982717890+981410394
1103+980466514+977646900+974695706+972284894+969580237+966745502+964099649
1090+961767981+959318261+956497763+954185726+953115748+952425568+950567608
1076+947999749+946480733+945343638+942950159+940190057+938242343+937125586
1063+936303383+934295184+931332583+929746097+929927462+930071069+929028327
1049+927018448+924955955+923687986+922764887+921108189+919173827+918603379
1036+919586786+920479466+920571254+920621128+920784012+920525007+920154936
1022+920192960+919969767+919283301+918852569+919001481+919838187+920683558
1009+920826723+921142057+922397911+923255131+922647012+922327080+923378400
995+924398063+924374718+923417485+922318856+921702248+921370643+921057785
982+920574349+920017253+919542837+918447834+916069564+913437595+912118957
968+911306569+908748879+904996085+902359075+901039995+900550016+900618106
955+900283317+899634079+899642126+900717587+902737282+904944355+906586904
941+907664752+908585995+909775262+911725187+914538788+917778788+921402742
928+925077808+927584475+928974298+930473063+932395752+934660303+936667264
914+937196417+936751182+936871268+937693471+938551841+938903430+938213427
901+936575388+935639289+936329204+936419931+934474605+932119061+930778582
887+930760896+931766499+933243953+934258487+934127083+933553274+932801725
874+932431477+933964022+937311727+940969638+943506017+945807885+950521095
860+957665985+964795666+969763548+971217834+969928201+969343515+971405390
847+974587028+976975113+978487939+980630902+983978696+986619066+986919632
833+986563533+987992087+990629008+992623589+994235189+997492874+1001887036
820+1004692059+1006530653+1009463455+1011993821+1012022560+1011767268
808+1013712772+1017025814+1021224019+1024475161+1024147447+1023017073
797+1025289671+1029421025+1031148996+1031713520+1034384486+1037107183
785+1038706579+1042041905+1046818252+1049738320+1050514806+1051709556
773+1054331180+1056382178+1055632220+1053755779+1054005411+1055345802
762+1055426890+1055016939+1055734620+1056955368+1056840853+1056306395
750+1056417549+1055489763+1055039399+1058073539+1060265226+1056223450
739+1050658413+1049973185+1053166584+1056349813+1056026963+1050692458
727+1044548837+1042642950+1043422619+1043824524+1043655096+1041761146
716+1038699770+1037328518+1037865187+1038920044+1039880460+1040213126
704+1039484215+1038375505+1038859736+1040736089+1038337835+1031500674
692+1029435439+1033643548+1038625049+1042115742+1042646752+1041379314
681+1039890187+1037798955+1037940970+1040007354+1040301112+1037641465
669+1030601980+1030976031+1047208750+1056260855+1050027214+1044207417
658+1042882501+1039337778+1039648514+1043709391+1041103331+1032369832
646+1026029990+1026591507+1026306504+1017751630+1011382695+1012656235
635+1014885946+1016867085+1017789654+1012622367+1001688869+987989257+978120963
621+982737344+994317692+998750232+1003297727+1009096214+1014417808+1028238567
608+1040220024+1032326591+1013753360+1003290919+1003872598
##END=
