##TITLE=Sample description
##JCAMP-DX=4.24
##DATA TYPE=INFRARED SPECTRUM
##DATE=24/8/2023
##SAMPLING PROCEDURE=Instrument type and / or accessory
##ORIGIN=Default
##XUNITS=1/CM
##YUNITS=ABSORBANCE
##RESOLUTION=4
##FIRSTX=4397.6552
##LASTX=599.8556
##DELTAX=-1.9287962
##MAXY=1.4397694
##MINY=0.53171194
##XFACTOR=1
##YFACTOR=1.3408897e-009
##NPOINTS=1970
##FIRSTY=0.6768344
##XYDATA=(X++(Y..Y))
4398+504765148+505267184+504831825+503590293+502612714+502807545+503989690
4384+504610145+503961508+503089857+502552438+501955409+501377494+500986765
4371+500137784+499299295+499577606+500229932+500094577+498942082+498160312
4357+499067124+499941353+499549557+499335078+500015809+500755350+500698185
4344+500057149+499670687+499438206+498880605+498387771+498142754+497825370
4330+497635295+497751802+497754869+497252167+496533963+496485155+497700639
4317+499123755+498584602+496205732+494699269+494927839+495060127+494521907
4303+493974220+493193828+492811411+493753429+494734341+494206301+493099857
4290+493093412+493762808+494158427+494575249+495217174+495712898+495535714
4276+495094843+495172545+494921660+494033207+493719690+494122065+494617789
4263+494774748+494148247+493304290+493667815+494829245+494725584+493287398
4249+492244209+492464200+493248681+493269662+492496827+491590015+490696050
4236+490532824+491400518+491758487+490650398+489532797+489421490+489195543
4222+488828240+489938195+491912645+492442196+491352911+489978513+489113308
4209+489351346+490340615+490754415+490837139+491201109+490895726+489719183
4195+488147553+486453904+485773039+486488354+487436372+487981304+488200984
4182+487976770+487817989+488383369+489061388+489071568+488351319+487472378
4168+487201802+487417347+487671699+487904581+488007708+487752112+487283637
4155+487169930+487153749+486319571+485079328+484627745+484961176+485222951
4141+484963532+484801373+485442587+485676580+484382239+483089632+482901024
4128+482736153+482011015+481318459+481252893+481787512+482321109+482599598
4114+482423170+481879794+482026039+483105412+484371748+485019674+484388862
4101+483114436+482351291+482165351+481897263+481258139+480647508+480360839
4087+480221573+480177166+480436940+480685025+480584742+480702850+480947600
4074+480312120+479197498+478825838+478687149+477769802+477060533+477733263
4060+478756360+478760539+478178090+477901512+478000506+478184891+478404082
4047+478853042+479400374+479867205+479853958+478808146+477720372+477486023
4033+477252875+476712833+476349352+476095445+475607545+474940949+474862670
4020+476136385+477870441+477966945+476615617+475899858+475837582+475534733
4006+475700226+476174480+475382487+473558772+472437037+472749620+474008889
3993+475527399+476555741+476324237+475496238+475196323+475407513+475831714
3979+476378024+477164372+477557991+476900552+475975026+474912811+473688304
3966+473680258+474947795+475409824+474398284+473261614+472403298+471622107
3952+471659801+472857949+473986752+474867248+475625503+474700155+473261614
3939+473155374+473596112+474681619+475641995+474409886+472640359+472291503
3925+472429302+472228070+472090804+472199310+471951270+471235689+470948799
3912+470988894+471212130+472067600+472608531+471469371+469489409+467994459
3898+467776957+468954524+469652680+467689610+465897279+467993481+470174319
3885+469422643+468442931+466573165+464802970+465744054+466691006+466545071
3871+465357814+463851795+465231839+466312234+464515413+464094634+466249068
3858+468680391+468161597+460729207+456560317+460832779+465489480+467728327
3844+467468686+465954932+463695148+459699708+457383426+458604111+460457074
3831+462231314+463989595+464819284+465326165+464195273+459665836+458509118
3817+460029850+460208456+462210199+465070346+465519351+463201247+462183039
3804+462554077+459906942+458542145+460513350+461736079+462926536+464696242
3790+465842381+466453545+466291920+465126977+464429444+463847217+463141815
3777+464299689+466536848+467768334+466899661+465176674+464457893+464417264
3763+465270200+465972313+465351991+465665375+467600129+468319089+465101773
3750+462995392+467086625+470617368+469798881+471591879+476564854+480477969
3736+480615769+477243718+476177103+479789770+484575114+486489376+484664506
3723+481183860+477309595+475446541+477404499+481521381+483386435+480947289
3709+481124428+485602879+490700406+495057904+499561514+505433744+511834546
3696+517708954+522453936+524711987+524079441+525154324+529144741+532302847
3682+533033541+531896470+529872146+524924554+520530606+522099835+523232505
3669+523095461+525691210+528593541+530336532+532187450+534554496+536487917
3655+538926263+542901033+545942942+544641089+543707829+547445316+551194939
3642+552345656+552534664+553451033+553733390+553062660+553402181+552083125
3628+546200539+544078955+545928095+547076679+545075648+541363009+540243629
3615+539879082+538295451+537395084+536705418+535510427+535938229+537133487
3601+536282551+534811204+535359781+535124276+532649524+531619493+531885846
3588+529398648+525535630+524835340+525897910+525501224+523824956+523557979
3574+524762128+526482048+529264004+530494068+525610308+520538518+519887792
3561+520104715+519430341+519723899+521153683+521413058+521156973+523481434
3547+526760670+526011795+522540350+521306552+522403884+523298293+522268484
3534+520246916+519389045+520091024+522698775+526520143+527151799+523358792
3520+519985496+519662333+520503268+520536829+520410320+520896887+521129057
3507+521902425+524158609+525668718+524931044+523090216+521145282+520110538
3493+520347688+520552743+520062620+519950735+520547364+521220850+521707239
3480+521523920+520880484+520700900+520627732+519976206+519118335+518842824
3466+519802578+521229962+521794542+521427461+520662894+520307815+520239804
3453+519830094+519913796+520316216+519969405+519599968+519307521+518592562
3439+518257575+518561624+519147673+519371665+518420979+517488519+518037184
3426+519042901+518957020+517887027+517029156+517092589+518140979+519356373
3412+519144073+517700953+516790007+516674655+516463955+516149149+516089806
3399+516201379+516763602+517777720+517762651+516292949+515435256+515852168
3385+515881239+514882279+513986091+514300897+515597016+516426749+515946405
3372+515300746+515595549+515809716+514887524+513522061+512854132+513212856
3358+513996315+514333035+514099576+513891098+513832733+513514682+512984197
3345+512505232+511824767+511219870+511705103+513001933+513608742+512924410
3331+511783472+511094117+510991478+511111586+511075803+510882661+510416275
3318+509449942+508275176+507459179+507222208+507433042+508158313+508803661
3304+508417066+507451222+506727906+506347445+506487068+507008618+507006618
3291+506189420+505147965+504242442+503448848+503033270+503271797+503518681
3277+503150133+502240743+501485511+501522539+502068227+502676991+502532079
3264+501198754+499616412+498765431+498706311+498831664+498972620+499213103
3250+499438695+499409445+499209769+499345524+499542222+499553646+499367261
3237+498483475+497351694+497052312+497051112+496494890+496126964+496076023
3223+495482728+494484657+494145269+494277112+493715200+493217209+493519169
3210+493544640+492980949+492975304+494023872+495221930+495364887+494195722
3196+493381636+494166873+495157431+494021649+491319128+490268159+491071977
3183+491020902+489937618+491092380+494890188+496697189+494509327+491995769
3169+493117460+496096515+495681071+491851613+490695205+494311340+496465996
3156+493524636+490579142+493210497+497920363+496708880+491660827+492082361
3142+499493415+503137287+496734084+490030388+492696504+500242912+500078397
3129+491978744+488916743+496938205+504646906+499457898+489600941+490028921
3115+500865412+505432455+495848253+487255855+491718569+502127836+501326953
3102+489855693+485029898+493220054+502700684+498281887+486619397+484571336
3088+494819999+502747625+495610704+484880674+484419712+492009816+495331459
3075+488646388+481958384+484128154+492446819+494442028+485991563+478982841
3061+480896970+488031935+489639081+483199561+478108968+478673458+481876860
3047+482400322+479249728+476624597+476632242+477879109+478029533+476522091
3034+474952907+474907122+476090467+476541383+475736499+475743478+482757401
3020+512429219+570684060+617846457+608511318+569474311+537827331+518747387
3007+505756506+495441299+488641499+485499840+483533748+480472902+477209135
2993+475994451+479095748+483784765+482877420+477650894+475246154+478906429
2980+485380221+485510464+478678259+474288756+476225466+481871437+484473009
2966+480130580+474618320+474550220+482757890+491480887+487794874+477674898
2953+473864421+479174872+488311802+488827173+479573291+472809408+474802705
2939+483255081+487550124+481272630+473504408+472418101+479241238+487713306
2926+485746902+475736410+470168318+473383100+481063796+482489580+474926280
2912+468469557+469009510+474637345+478528946+475402890+470006381+468478270
2899+471912331+477518295+478481961+473400036+468922785+469100236+472704235
2885+475021229+472856838+469341119+468249300+469973665+472155836+471431009
2872+468270103+466111313+466691050+469286844+470972491+469591826+467044440
2858+465927328+466616683+467873462+467477798+465265311+463457999+463201958
2845+464032536+464748828+464616807+464040492+463706039+464090456+464962640
2831+465482501+465170940+464481141+464429488+465137779+465495481+464821017
2818+463795787+463429106+463781829+464224344+464284131+463878422+463495827
2804+463609846+463895491+463828903+463399812+462984501+462909378+463211560
2791+463589042+463640739+463424083+463240764+463134614+463103587+463184844
2777+463332423+463415948+463325222+463248588+463335535+463391144+463315887
2764+463174309+463260101+463794409+464354854+464615473+464687129+464603783
2750+464352854+464027112+464003153+464564310+465169162+465121243+464709800
2737+464625697+464804970+464859512+465050521+465667553+466103623+465875942
2723+465515618+465457253+465457564+465474411+465796151+466292586+466452301
2710+466197727+466061127+466333704+466721988+466927533+467009990+467237849
2696+467481755+467307993+466976563+467162281+467816875+468326823+468447020
2683+468487649+468694527+468868110+468941855+469154245+469394905+469628543
2669+470143870+470654885+470657285+470367595+470367372+470910570+471625574
2656+471879792+471828806+472191442+472780292+472904712+472870618+473351628
2642+474070543+474437357+474515548+474652014+474983400+475403334+475841004
2629+476357665+476805025+477129211+477580527+478054959+478273038+478464225
2615+478919409+479444293+479831955+480108799+480287761+480569184+481047438
2602+481425143+481753907+482298261+482987038+483695018+484263331+484593206
2588+484776124+484863560+484957976+485266781+485793354+486296057+486652691
2575+486940249+487240474+487589775+488014865+488617228+489322363+489808219
2561+490095154+490445254+490788243+491147100+491748752+492305286+492583864
2548+492980060+493490764+493702087+493807971+494185898+494623835+494819777
2534+495032167+495686405+496568235+497162908+497517498+497798876+497899470
2521+497945300+498090168+498186227+498266418+498570556+498989867+499200079
2507+499310363+499666820+500115025+500420318+500758906+501130343+501295125
2494+501203733+501167949+501391763+501455062+501206711+501213023+501776713
2480+502387967+502384277+501979768+501860371+502127703+502439753+502586754
2467+502610447+502558750+502385967+502175311+502143261+502461001+502952502
2453+503021713+502528567+502102366+502090497+502164687+502052669+501852903
2440+501644692+501435370+501279523+501190308+501132566+501010146+500804691
2426+500570076+500266827+499818089+499278713+498929546+498829753+498648657
2413+498259661+497859375+497633650+497540791+497342403+496965365+496477732
2399+495879191+495455701+495903417+498127462+503040294+511460575+524366376
2386+542078501+562980204+584416615+604662657+623402103+641203309+658767233
2372+676286616+693867521+711017867+726123842+737941112+746352504+751358105
2359+750763966+741562714+725640742+707806375+691143307+681243632+683638060
2345+693438785+695155060+686685793+678044587+671920584+668929260+671072537
2332+675662650+676370941+673851337+674386801+678060945+678868096+673524885
2318+663688510+654313142+651709525+655443234+656885331+650460836+637529476
2305+622264231+609667947+601229663+594207694+586591674+578076799+568296478
2291+557727674+547898944+539651846+532670728+526447998+521140170+517081298
2278+513825176+510857857+508204543+505913776+504006626+502385878+500811003
2264+499279469+498059096+497307598+496761110+496136477+495553450+495189436
2251+494935396+494608410+494291337+494139802+494111486+494123443+494154693
2237+494297560+494622057+494909614+494959133+494983981+495328436+495954981
2224+496576014+497100142+497572751+498044471+498562021+499128823+499750389
2210+500391203+500994010+501593129+502339604+503265619+504131091+504878810
2197+505755617+506789916+507747625+508489611+509097530+509755369+510462993
2183+511050421+511614333+512398281+513373415+514383310+515241448+515859902
2170+516472889+517221454+517923477+518419423+518747787+519113490+519552227
2156+519840184+520000476+520221045+520362534+520263807+520069688+519830716
2143+519548982+519456967+519531512+519359440+518652305+517526436+516338423
2129+515175970+513909012+512654189+511426837+509978205+508411509+507120992
2116+506015970+504468567+502446865+500674581+499285737+497856486+496377093
2102+494968245+493361588+491441592+489652727+488368166+487440995+486365401
2089+484795105+482984504+481479330+480483392+479641257+478625273+477451440
2075+476175680+474930814+473813924+472849059+472207489+471629085+470459298
2062+469057963+468250589+467855237+467457395+467126320+466899439+466623617
2048+466258225+466050637+466357797+467094937+467647648+467919958+468328868
2035+468910739+469559510+470199390+470761835+471371889+472154192+472900267
2021+473481293+474060364+474252306+473655054+472726328+471918910+471328237
2008+470735742+469690731+468204404+466685894+465279535+463924563+462797227
1994+462045106+461053481+459236879+457078044+455051453+453268545+451740123
1981+450334653+449101344+448144836+447248470+446062102+444806568+443909002
1967+443082914+441990561+440852290+439845151+438998304+438274010+437476549
1954+436612455+435948438+435458315+434907071+434495539+434424238+434149039
1940+433498979+433045529+432921864+432927865+432831050+432603591+432444143
1927+432566030+433079490+433612153+433690699+433411321+433196264+433279966
1913+433390695+433412654+433513470+433633223+433748041+434039199+434452821
1900+434878667+435288199+435378569+435159689+434966503+434619959+434346315
1886+434593199+434872266+435165690+435858290+436209458+435802059+435754985
1873+436707537+437513578+436886099+436292271+437549005+439492339+440629410
1859+440639856+440284821+440358033+440851490+441875343+443576282+444855776
1846+444835950+444438687+444467891+444334892+443963588+444066138+444539103
1832+443667585+440801304+438920870+439172643+439074450+438071978+437325903
1819+437005274+435934213+433867082+431707181+429375296+427268159+425879714
1805+425271395+425454002+424129301+420522012+418015566+416652414+414387963
1792+411986645+411119973+411307603+411518748+410615448+408759862+407166051
1778+405900870+404276921+401667748+398822003+399333952+401911698+402613455
1765+401860668+400833348+400124701+400258322+400129502+400120567+401288443
1751+401847199+400055001+398662156+399140543+399286700+397871318+396536660
1738+396989443+397698223+397179163+397707647+399298080+400201869+400837393
1724+401466427+401753051+401405128+400036376+399313282+400893046+402523218
1711+403389535+403496574+402851582+402767257+403610993+402717561+400187600
1697+400396211+403113491+406418242+409171883+411215633+412246464+411218522
1684+410224763+413773198+417446986+418811249+418740171+418870770+419586351
1670+420336249+422639329+426160871+428468485+429874932+432581143+435975420
1657+438067711+437180013+434107121+436071480+439002127+440480986+443946697
1643+448659318+451654331+452328706+450725116+449648276+453738620+458677900
1630+461516310+463044377+464331028+465455697+467769534+470830202+472129121
1616+472947786+476658380+480822024+483353141+485162719+487762469+491035171
1603+494258309+497228385+500090443+502684948+505081065+508049096+511615711
1589+515142854+518663196+522645167+526902737+530714548+533475212+534872814
1576+537240615+542597962+547299959+550628537+555212382+560974016+566357812
1562+570459268+571845001+573906398+583366624+593802829+603271945+611535980
1549+618936276+625830936+631526604+633293642+632535876+642047133+655806625
1535+664863898+671801276+679480194+686746336+692700712+697114263+700100252
1522+704489711+712680845+722850073+733485599+742906619+751056546+757718768
1508+759774120+759867201+768576418+778616337+785513709+789470609+793853000
1495+800912441+807962637+813197787+817298621+823318163+830811363+837604984
1481+843470990+848691293+852561602+854016412+854187551+857904146+865830393
1468+873218865+877609969+880599514+884160973+886155693+885797235+890158645
1454+899951502+908268656+914439422+919538372+925269068+931467660+937244497
1441+942516452+945901794+946723259+949871052+956549188+962183691+967320869
1427+973786082+978536443+981407214+984104090+984474460+985322507+991170111
1414+997097726+1000343224+1002734274+1003766794+1002446316+1003020897
1402+1006688062+1007515750+1004394095+1002132222+1002748587+1006441178
1391+1010134570+1009467974+1004943427+1002554600+1004702944+1009147301
1379+1012425248+1012452630+1011182738+1012146181+1014346533+1014720015
1368+1014601685+1015115101+1013624373+1010780451+1010036599+1011517814
1356+1013537248+1013811603+1012398132+1011442513+1011328628+1010398879
1344+1008654866+1006650279+1003974205+1003036811+1004643735+1005915761
1333+1006059784+1006211630+1007354925+1008242889+1007782993+1007365593
1321+1007864340+1009074222+1011390060+1014533674+1017312342+1019508071
1310+1022406402+1028894730+1038087580+1043471197+1043937850+1044006750
1298+1045473829+1047951648+1049733000+1050027981+1051246932+1054172911
1287+1057106092+1060089148+1062821852+1064116282+1064844220+1065372216
1275+1064987710+1064376412+1064171846+1063177376+1060275044+1057479219
1263+1057613285+1058885666+1058087583+1057287277+1058731064+1060353812
1252+1060768101+1060710669+1060551977+1060536419+1061309965+1062118362
1240+1061603524+1061121935+1061735811+1061822136+1061552760+1062286922
1229+1063268146+1064092544+1064849377+1065062033+1065462008+1065743475
1217+1065104706+1065260731+1066952558+1068740578+1069076720+1068189912
1205+1068543390+1070531264+1072386495+1073517254+1073741823+1073206537
1194+1072472020+1071755994+1071217863+1071071707+1071915308+1073290106
1182+1073002594+1070565403+1068856507+1070248464+1072468730+1072330486
1171+1070921905+1069900230+1068953145+1067808073+1066381622+1065176362
1159+1064942280+1065136267+1064550040+1062581013+1060390974+1059642143
1148+1059170067+1057174903+1054344672+1052228600+1051484747+1050726404
1136+1048361670+1044798788+1040980399+1037302565+1033581347+1030036246
1124+1027026164+1023495732+1018623929+1013505510+1009443970+1006131973
1113+1002512371+998455455+994822429+991826571+988235418+983394110+978490302
1099+974912574+972677371+970841255+968592184+966233228+964985028+964405735
1086+962888959+960073397+955744348+950885881+948138241+947582063+946969965
1072+945921620+945253957+944041941+941667961+939647193+938403438+936999480
1059+935533378+933764028+931013277+928840840+928433486+927508093+924861891
1045+922573614+922059932+922661183+923138860+923109700+922637535+921802646
1032+920934685+920119354+919783656+920371217+921377156+921788955+921063683
1018+920139980+920199100+921239445+922321129+922537341+922432347+922706791
1005+922755154+922810719+924385637+926618439+926986854+926163255+925747456
991+925075703+924316915+924594471+924920034+923708196+922173372+921916620
978+921860433+920992205+919306335+916161031+911962403+908636093+906738456
964+904940479+902803959+901513708+901547313+902137986+902601615+902769731
951+903137435+903800652+903717350+903214514+904310156+907259161+910505904
937+913498294+916101733+917592105+918480069+920226127+922981946+925839915
924+928706240+931419297+933111746+934508592+936256427+937471111+937992350
910+937331888+935363751+934421645+935577741+936945604+937271879+936489798
897+934459962+932995550+933989664+934888831+933790610+933226342+933203405
883+931780244+930648151+931324882+932240051+932327532+932943275+935349349
870+938499275+940587076+941823274+943950904+948039826+954019894+960035169
856+964333902+967811081+970665405+972131595+973519373+975603262+977194628
843+978572715+981431395+985433814+988124200+988472434+989096267+990861350
829+990818321+990491068+993710517+998875344+1002795350+1004350888+1004362445
816+1005777161+1009638846+1012365683+1012398577+1013305211+1015989641
804+1018790445+1022644662+1027122713+1029546745+1029996240+1030880114
793+1032512109+1032426940+1031933794+1035521480+1041715805+1045864114
781+1047555496+1048660829+1051057746+1054649076+1056197858+1054668724
770+1053569970+1055377015+1057653380+1057130452+1055137155+1053792139
758+1052533182+1052415741+1055032338+1057375202+1056450521+1055172182
746+1055851047+1055895054+1055412399+1056519065+1055604429+1051754035
735+1050795037+1051414870+1048250363+1044039022+1043467197+1046576495
723+1050878695+1054797900+1056910950+1055069322+1050643457+1046506617
712+1042528469+1038366113+1037314567+1041238929+1044670501+1042975118
700+1039309820+1037758727+1038679319+1040158934+1040862513+1041146825
689+1040897096+1039541946+1036336633+1031521462+1029618223+1031887831
677+1034173709+1036821421+1040686574+1041540844+1035924389+1029725263
665+1033567923+1042649999+1048135500+1046717406+1043896154+1042504554
654+1040256283+1035948304+1031126909+1030166133+1030242323+1025425463
642+1016483587+1008129093+1009235226+1021443314+1035631898+1045648435
631+1052369600+1058055844+1057899908+1047203617+1035337984+1031093482
619+1027376798+1014516516+1004557232+1006447224+1005175465+995619801+992565356
606+1003385667+1017169208+1020389012+1016518259
##END=
