##TITLE=Sample description
##JCAMP-DX=4.24
##DATA TYPE=INFRARED SPECTRUM
##DATE=24/8/2023
##SAMPLING PROCEDURE=Instrument type and / or accessory
##ORIGIN=Default
##XUNITS=1/CM
##YUNITS=ABSORBANCE
##RESOLUTION=4
##FIRSTX=4397.6552
##LASTX=599.8556
##DELTAX=-1.9287962
##MAXY=1.5098581
##MINY=0.45390344
##XFACTOR=1
##YFACTOR=1.406165e-009
##NPOINTS=1970
##FIRSTY=0.69628972
##XYDATA=(X++(Y..Y))
4398+495169298+496671066+498163381+498373329+497186802+496298856+496613164
4384+496850113+496161137+495450077+495140813+494645763+493494290+491990446
4371+491292102+491701910+492148935+492261179+492410385+492721132+493758453
4357+495413877+495698217+493628661+491330760+491252257+492827060+493680035
4344+493436685+493510101+494043598+494166269+493798213+493533245+493578177
4330+493551133+493497809+493393873+492504020+491218644+490915018+491586445
4317+491864468+490918239+489142475+487890840+488353082+489713824+490843128
4303+491981121+492350066+491241109+489943949+489052231+488604867+489373024
4290+490608043+490460066+488990810+487979219+488486095+489815937+490753985
4276+491127848+491331311+490625168+488573754+486994628+487035278+487826071
4263+488503432+488226892+487247346+487506422+488896158+489158752+488023853
4249+486926171+486756322+487248363+487143453+486077520+485133791+485217211
4236+485958239+486208414+485939461+485795554+485500830+484828809+484416585
4222+484508185+484222574+483502528+483316614+483661102+484387083+485444835
4209+485970320+485572126+484850512+484232112+483859648+483990415+483994315
4195+483095517+482065063+481685393+481838711+482263439+482630181+482429304
4182+481565053+481125573+481439245+481474809+481288089+481357521+481472520
4168+481579931+482019538+482992599+483499688+482923337+482505899+482602671
4155+482216092+481351714+480578852+479381092+477591975+476877609+477668571
4141+478466908+479076194+479848675+480074434+479350445+478317575+477950239
4128+478556516+479264270+479183945+479066911+479510418+479433102+478813727
4114+478610010+478413626+477810020+477449043+477729101+478052819+477990890
4101+478027259+478135306+477733085+477062378+476990743+477642163+477892507
4087+477118627+476274765+476272816+476883543+477458029+477888268+478403792
4074+478525107+477899925+477472356+477402628+476802836+476109494+475885982
4060+475735758+475808030+476226655+476240813+475407420+474333688+474121535
4047+474769013+475145504+475206798+475589647+476063291+476068802+475331291
4033+474305754+473959316+474588271+475188952+475002360+474760239+474789572
4020+474376966+473401743+472650711+472777155+473552433+474124672+474112040
4006+474195079+474442922+473816468+472378283+471548027+472297830+473780947
3993+474113566+473108502+472327375+472385446+472674406+472776095+472452971
3979+471930198+471667053+471699734+472187155+472540163+471820328+471062429
3966+471446126+471757340+470878507+470157656+470623585+471152589+470896607
3952+470535206+470360271+470108062+470416520+470709633+469792440+469004912
3939+469203584+469386998+469188537+468715952+468493796+469357284+470359381
3925+469928633+468889022+468643553+468448992+467465291+466724263+467426422
3912+469019408+470476584+470938487+469698593+467352793+465355128+464261049
3898+465153996+467926474+469857039+468527876+466993046+468442379+468671360
3885+466094037+465024034+465467922+467244449+469649762+469677695+467890486
3871+465482758+463124709+463522691+464414833+464529535+465722675+467255979
3858+468379051+467568549+460986399+457146971+461084443+465173028+466944893
3844+466883812+465655701+463835430+462037624+461708692+462902214+463956702
3831+464709218+465755144+466660299+467657733+467124279+463528413+463040611
3817+464399234+464053347+465541932+468099841+468949722+467292518+466067544
3804+466381725+464701588+463819704+465681092+466878555+467613183+468682550
3790+469483261+469853182+469214054+467957120+467667440+466934211+465336562
3777+465986625+468049908+468795599+467594109+466404529+466500708+466743422
3763+467432864+467646755+465417904+463713395+464998898+466003750+462565398
3750+459134930+461299647+462744360+460961305+462168222+464983045+464873641
3736+461607893+459539312+460726052+463294643+465034377+464974101+464530425
3723+464864231+465595765+466764150+468186186+468991644+466852148+461762525
3709+460519367+463359624+465966279+466084415+464738974+465212788+467022548
3696+468282407+468823194+468087167+464488291+461438171+462851518+465895406
3682+467774046+467870310+466171141+460871612+456812190+458720502+459227294
3669+457646684+459017896+460746949+460702653+460241132+459811401+457889441
3655+456654209+458155044+457416474+450132802+445322432+447395040+450171502
3642+450250810+448082956+445312683+442039771+439070062+437335584+432660559
3628+424534042+422927915+424842246+424861787+421414915+416372512+414017133
3615+412656603+410230987+407972846+405549901+403447621+403098767+402535090
3601+399985786+396941601+394930795+393548349+392600509+392140726+390439861
3588+385757546+382098352+381983268+382385065+381556674+379891162+378056690
3574+376518214+375838860+375473941+372787215+367688224+365753208+366504071
3561+366146909+364787904+364236986+364337446+363923187+363057750+362427566
3547+361547462+360074985+358703221+357909716+357715960+357606387+357083615
3534+356380312+355463945+354012937+352520198+351563753+350763572+349902776
3520+349262334+348770060+348269627+347743675+347213633+346494201+345389314
3507+344212260+342985612+341884348+341519663+341538843+341346316+340843700
3493+340196815+339696000+339108882+338033730+337007832+336516236+336301307
3480+336317415+336356115+335929967+335116497+334395412+334061733+334012202
3466+333773769+332737063+331227750+330407668+330390076+330439459+330130555
3453+329569422+329101754+328461524+327600813+327274298+327476637+327716342
3439+327593671+326947464+326337161+325979617+325764709+325851202+325744363
3426+324973048+324096441+323610293+323510384+323828506+324203959+324340554
3412+324549485+324784125+324943207+325147030+324981420+324382773+324287251
3399+324822867+324800720+324209300+324296619+325286127+326438956+326995490
3385+326860251+327075476+328231039+329380922+329929085+330553207+331645993
3372+332882115+333924183+334700436+335497672+336534590+337793983+339237657
3358+340758881+342441625+344503339+346680794+348056287+348091003+347768960
3345+348244957+349343635+350438816+351090766+351405307+352097780+353064292
3331+353610865+353770562+353867482+354179183+354820769+355222121+354814411
3318+354132302+354148452+354776664+355013677+354548044+354249441+354671330
3304+355128040+354846032+354405896+354933394+355987628+356466487+356773165
3291+357574469+358399172+359038172+359745629+360339571+361030412+361957991
3277+362666889+363436826+364416076+365133070+365826073+366522891+366574223
3264+366228972+366395515+367246541+368319892+369149215+369805976+370511780
3250+370834099+370648100+370626143+371042140+371484883+371905670+372655981
3237+373425495+373725941+374032026+374734735+374995804+374732658+375068415
3223+375617383+375494330+375145518+374968124+375066761+375523493+375956021
3210+376122098+376333953+376621133+376590232+376513891+376816881+377231012
3196+377683209+378144433+378244300+378128199+378386385+379198498+379993232
3183+380157062+379930879+379927488+380412281+381365674+382348865+382736420
3169+382834379+383268433+383788026+384091143+384209194+384186431+384176513
3156+384428086+384907241+385039153+384949375+385408268+386113691+386380396
3142+386213133+385911881+385855081+386129671+386290364+386315288+386762398
3129+387292207+387294919+387278261+387602699+387921500+388080032+387971730
3115+387702990+387858893+388351061+388540282+388569445+388604711+388291845
3102+387761824+387550520+387855714+388427402+388936992+388887016+387989067
3088+387305432+387875848+389030034+389755675+389954263+390062904+390212110
3075+390220206+390490303+391212808+391474851+391014729+390657312+390575673
3061+390447194+390398872+390611872+390974078+391339845+391460609+391117901
3047+390722505+390828560+391292752+391665513+391838626+391728247+391294278
3034+391095012+391340523+391549709+391629313+391760759+391885507+391719558
3020+391426275+391663478+392226392+392390434+392200323+391874317+391564205
3007+391912084+392889384+393419829+393334883+393485785+394122030+394924648
2993+395810686+396651115+397086780+397275534+397681230+398464605+399541940
2980+400435693+400803283+400933456+401023743+401001532+400934135+400803791
2966+400541960+400409413+400470155+400502327+400592105+400686376+400621183
2953+400600371+400611519+400556923+400807776+401374038+401737982+402013463
2939+402369353+402219087+401679826+401572923+401774436+401729462+401583647
2926+401536639+401207877+400563875+400133848+399968364+399806823+399578648
2912+399350982+399479036+400029403+400474987+400760555+401226570+401517437
2899+401298036+401067191+401320714+401921735+402388894+402556327+402646741
2885+402882037+403288539+403622726+403854165+404124898+404323444+404389061
2872+404273595+404025413+403945596+404061146+404089504+403945130+403860566
2858+403937839+404033976+404074838+403916857+403517773+403271414+403346610
2845+403477462+403702289+404184241+404752878+405212407+405635101+406170378
2831+406606254+406796577+407131867+407722672+408306695+408817090+409130719
2818+409253857+409546335+410111495+410653130+410903389+410915639+411017752
2804+411421668+412117977+412951412+413625595+413977840+414100765+414262391
2791+414649776+415015542+415114391+415123759+415244184+415529159+416056552
2777+416701741+417079249+417235491+417480113+417604819+417502409+417601936
2764+418149675+418868026+419364348+419707777+420074688+420296505+420463726
2750+420811478+421133373+421367355+421715912+422040775+422223849+422389035
2737+422584741+422903245+423344590+423792123+424385217+425079958+425501932
2723+425759143+426188703+426675531+427128405+427703272+428374318+428913240
2710+429129123+429089532+429200631+429783298+430621734+431223433+431387645
2696+431442453+431844504+432409410+432594010+432507538+432562812+432734569
2683+432960285+433337031+433843611+434234598+434240406+434131765+434400548
2669+434956510+435373736+435469533+435508784+435827628+436224677+436354300
2656+436373374+436505159+436769533+437183368+437575967+437884849+438213272
2642+438318860+438193476+438351711+438869015+439210451+439236011+439455412
2629+440059739+440721036+441230201+441587448+441860173+442145063+442532152
2615+443074719+443805532+444643757+445233332+445461211+445726475+446218813
2602+446857093+447611304+448240343+448524895+448720685+449182292+449778268
2588+450088973+450167687+450489795+451123412+451605788+451754316+452007373
2575+452544854+452975517+453277193+453773133+454276195+454554685+454902055
2561+455359126+455710481+456153437+456681423+456908368+457010439+457437117
2548+458045090+458465325+458572779+458552560+458834865+459446821+459952299
2534+460183357+460294838+460441373+460870298+461717806+462478333+462659711
2521+462628768+462932140+463559102+464120320+464401480+464620245+465017422
2507+465542737+465907995+465892948+465845982+466263208+466881819+467159758
2494+467222280+467470463+467843308+468079325+468179192+468274395+468363622
2480+468288595+468061819+468074069+468454926+468605192+468269393+468027739
2467+468014344+467991116+468110184+468172876+467753446+467223213+467210200
2453+467516199+467576009+467339526+467074770+466920350+466770805+466583195
2440+466501301+466414830+466099717+465604200+465127631+464802896+464497277
2426+463964205+463255730+462738002+462618722+462585320+462313825+461905882
2413+461463180+461015223+460679255+460466297+460219260+459739045+459114329
2399+458632080+458309846+457919791+457257477+456502333+456002535+455576280
2386+454844280+453768513+452300317+450267469+447767886+445056744+442127600
2372+438882240+435550833+432382366+429243020+426598935+425238532+424581771
2359+424080659+424513696+426262416+428881152+431942632+434271518+434240999
2345+431808813+429231320+428028855+427736208+427756893+427856929+427976379
2332+428065860+428245628+428615167+429114075+429814665+430820153+432059750
2318+433377469+434518980+435488904+436562934+437499329+438033504+438510921
2305+439049038+439427945+439718345+440091954+440470988+440732650+440953365
2291+441329178+441895228+442410074+442661350+442674067+442632399+442749221
2278+443000667+443198111+443408652+443840672+444393285+444755831+444865573
2264+444947764+445220870+445688877+446139081+446485477+446967683+447678277
2251+448291845+448665030+449085138+449659454+450262255+450896635+451592817
2237+452324012+452964708+453477137+454105498+454853351+455406728+455823615
2224+456428281+457169861+457858285+458575831+459304991+460001385+460885007
2210+461873667+462657041+463281121+463892696+464594685+465479197+466408175
2197+467247968+468143204+469129999+469987001+470775208+471784807+472945223
2183+474014124+475078913+476247044+477294580+478253272+479437171+480663586
2170+481631179+482519463+483483072+484469358+485527534+486645223+487676356
2156+488564641+489369675+490192979+491037180+491701105+492041481+492298946
2143+492717317+493057778+493081600+493032430+493045146+492711001+491880534
2129+490982288+490251814+489532191+488619999+487487390+486137795+484521326
2116+482788416+481046350+479250028+477466125+475702187+473908493+472133322
2102+470391384+468721801+467199518+465654896+463842678+461882187+460029107
2089+458208157+456271996+454435235+452907611+451499352+449934680+448169301
2075+446416384+444880664+443420097+441906376+440449286+438913438+437243305
2062+435705423+434210988+432682516+431288584+429876128+428368553+426948128
2048+425585860+424158314+422748656+421484812+420257593+418957338+417682304
2035+416486112+415336759+414242341+413136733+411919771+410665634+409473639
2021+408354721+407246526+406037321+404777717+403622769+402631735+401757311
2008+400857539+399760027+398485883+397319151+396407553+395624688+394851868
1994+393920729+392628994+391279781+390369582+389788356+389232988+388643581
1981+388023952+387281016+386345299+385364481+384563940+383894250+382990918
1967+381856273+381025509+380585818+380192922+379665233+378952944+378165373
1954+377472201+376889788+376262996+375386622+374358244+373394000+372597782
1940+372193188+372020287+371693051+371147643+370528099+370011812+369495949
1927+368803625+367915297+367038288+366606438+366235034+365554027+365211319
1913+365095769+364550531+363819252+363538346+363638297+363591543+363212466
1900+362731277+362244322+361629186+361055124+360623190+360065490+359716805
1886+359855584+359963250+359926584+359855287+359588963+359203486+358949539
1873+358674440+357650895+355910694+355369123+356301004+357074544+357221715
1859+357051612+356748622+356486579+356335719+356195203+355847917+355144339
1846+353975529+352847455+353090678+354035911+354375249+354149066+353867164
1832+353135715+351588423+350714847+350959617+351059038+351239145+351680893
1819+351790635+351440743+350854516+350062282+349154732+348687425+348703553
1805+348765440+348514672+347540700+346360001+345920394+345712629+344608037
1792+343182971+343528540+344675943+344910540+344325139+343557067+342823732
1778+342486959+342181489+340711385+338154366+337656582+339459029+340894099
1765+341183970+340422447+339621799+339835711+340153134+340372577+340371624
1751+338879987+336580814+336167128+337019404+337371352+336868566+336196842
1738+336156277+335662752+333688209+333461835+335273608+336852162+337747674
1724+337813079+337401766+336547497+333934123+331000486+332047175+334653280
1711+336193748+336270809+334865898+333254473+332808677+331364600+328429161
1697+328073038+330113643+332637048+334142800+334090281+333224822+331051309
1684+327948607+328931481+331571305+332813170+332183538+330873385+329969417
1670+328688597+328623680+330395523+331137442+330242841+330053769+330761354
1657+330678485+328128396+323006156+322795297+324080673+323448052+324626335
1643+327873263+329874574+330069771+328708859+327852535+331351290+335906123
1630+339009101+341196517+343473605+346252801+350244848+354435122+357350321
1616+360568848+365756048+370719439+374526695+377980773+381742461+385457481
1603+389008119+392660319+396331975+399701998+402847787+406282409+410081950
1589+413895564+417552130+421165927+424885990+428599738+431647399+433564612
1576+436346203+441338545+445587315+448897020+453500154+458857457+463488059
1562+466872452+468036937+469771331+477305220+485258200+492181913+498300845
1549+503988267+508580508+511310004+512022463+512939021+521318595+532064780
1535+539802980+546619621+553931100+560385322+565579940+569905432+573443397
1522+577936364+584928322+592598023+600858740+609052994+615280779+618855621
1508+620435849+625706129+636122620+644420174+650138666+654226064+659133842
1495+665934333+671809322+675830468+680034730+686971838+694957542+701768290
1481+707414638+712707299+717438403+720834283+724071207+730289539+737824531
1468+743457060+747883817+754350120+761974890+767313245+770715398+778112289
1454+789511718+799363642+806779353+813077121+821072193+830516598+839343409
1441+847126286+853545962+858808358+865117910+872830423+880163816+887779175
1427+896468310+903741088+908655563+913256960+918238662+923364739+929900304
1414+936234271+939604802+941470556+944303861+947150645+948588873+949055481
1400+948437632+947736787+949221303+951212526+953218754+955110704+953381524
1387+948306398+947346732+952649736+958854081+961695270+961395671+959856559
1373+959815782+962558630+965597517+966878655+966026739+962610767+960071128
1360+962030559+965160326+966641027+965933146+963876052+961939934+960661933
1346+960499162+960846575+960321641+959173009+958598735+958584153+958899266
1333+959379947+959540683+959964225+960754084+961590571+963333315+965484765
1319+967175625+969675251+972861988+975679948+978951376+981943551+984180624
1306+988149760+993215730+996312943+998160809+1001028703+1004463240+1006876987
1292+1008965957+1011760180+1013978772+1014977944+1015736946+1016551984
1281+1017445779+1018253781+1018761081+1019794757+1021085559+1020467541
1269+1017754873+1015483465+1014812800+1014669783+1014180031+1013269704
1258+1012193895+1011677438+1012088603+1012558178+1012971716+1014028027
1246+1014810427+1014608914+1014146290+1014410114+1015765515+1017322175
1234+1018532355+1019412332+1019738805+1019261261+1017984786+1016860060
1223+1016702122+1017488252+1018624337+1019072888+1018438254+1017447220
1211+1017780475+1019829600+1021393975+1021801494+1022572533+1023629014
1200+1024151490+1023966847+1023393506+1023107895+1022689185+1021579126
1188+1020328508+1020165992+1021874063+1023903604+1023838581+1022025049
1177+1020923722+1021078862+1021383039+1020944577+1019391307+1018701908
1165+1020154886+1020943983+1019536444+1018481150+1018253611+1016637523
1153+1014491499+1013324555+1012344033+1011225496+1010256759+1009418068
1142+1008303516+1005915541+1001744468+997282020+994329774+992845767+991697559
1128+989525254+985886745+981469313+976880633+972613593+969373617+966706305
1115+962905789+958148489+954648419+953319977+951131564+945178751+938861061
1101+935689075+933658347+930635906+927251896+923596856+919210960+915893499
1088+914419072+912228455+908585114+905218737+902075067+898368144+894422406
1074+890252605+885811605+881786008+878603595+875736635+872476058+869025413
1061+866374632+864582294+862036720+858267486+854717992+851832974+848851650
1047+845666864+842986326+841147700+839935655+839140455+838587714+837850076
1034+836190837+833851439+831995095+830822470+829876962+829209943+828962566
1020+828849644+828604895+828142611+827392511+826793313+826752875+826915137
1007+827306294+828108785+828534955+828187796+827773326+827950593+828629650
993+829226644+829380258+829136018+829166622+829919604+830157486+828535972
980+825860267+823712716+821907577+819349117+816252243+813870881+812639337
966+811460863+809554078+807507835+805942019+804982098+804705728+805002360
953+806090208+808750230+811579635+812399251+812956993+815306480+818483044
939+821757269+825135006+828292241+831505088+835047885+838321856+841444162
926+845238405+849609634+853708817+856459465+857783499+858664069+859341515
912+860086698+861184804+861283907+859965299+858654744+857423539+855932242
899+854620585+853290107+851998796+851080501+849673471+847121538+844515688
885+843059573+842947583+843708873+844149879+843833070+843624012+843535930
872+842892479+842202909+842715042+844900063+848400641+852778483+857354786
858+861565534+865724314+870303414+875129552+879397609+883446943+888009767
845+891014065+891944398+894089066+898238012+902435959+905960698+908874540
831+910435269+910371687+910387032+912227184+916284826+921923374+926061469
818+926741374+927226632+929881314+934369958+939301982+941335253+941004287
804+942262620+945154844+947382592+950116624+955589011+963813572+975242333
791+983534206+980800344+975220376+976045757+980679368+984857562+988895875
777+994575540+999990873+1001474456+999594714+998747715+1001596110+1005826187
764+1008347854+1009809734+1011023729+1010736253+1009087696+1007942709
752+1007622933+1006275670+1004014096+1002187424+1000712996+1000687563
741+1002441582+1004718077+1006220311+1006014898+1004973423+1002881910+999827085
727+996389157+990552487+985275170+986074524+989479136+990307484+991274610
714+993249980+992359237+989990505+989793316+989288983+987026900+986690423
700+988043536+988130431+986902025+985851817+985690234+984860445+982967647
687+980050499+975730898+974139225+978626259+985162841+989107477+991268591
673+991967232+990887013+991594895+997075759+1003772738+1008984099+1011552817
660+1008551995+1001473693+996593213+996991068+1000328197+1000737920+996563965
646+992664600+989816629+984907665+978009173+973060788+985455912+1032621647
633+1073741823+1045047461+997281935+982016458+987711213+993142484+984895372
619+969267139+961492231+961895002+964910406+969416599+975943093+985284665
606+993895042+1002679973+1018734801+1029353865
##END=
