##TITLE=Sample description
##JCAMP-DX=4.24
##DATA TYPE=INFRARED SPECTRUM
##DATE=24/8/2023
##SAMPLING PROCEDURE=Instrument type and / or accessory
##ORIGIN=Default
##XUNITS=1/CM
##YUNITS=ABSORBANCE
##RESOLUTION=4
##FIRSTX=4397.6552
##LASTX=599.8556
##DELTAX=-1.9287962
##MAXY=1.3288773
##MINY=0.32496321
##XFACTOR=1
##YFACTOR=1.2376135e-009
##NPOINTS=1970
##FIRSTY=0.52630287
##XYDATA=(X++(Y..Y))
4398+425256263+425273312+426210621+426818460+426491736+426174885+425985324
4384+425208439+423985825+423303818+423922397+425475444+426281176+425211425
4371+423437802+422489465+422289886+422548847+423645616+425236758+426343063
4357+426466885+425636879+424483087+423397539+422653212+422742310+422767931
4344+422104851+421679301+421580860+421581919+421906813+421925692+421248790
4330+420874820+421216426+421375453+420967867+420329879+419740823+419359869
4317+419259117+419355101+419316476+419278718+419507435+419464571+418933356
4303+418544504+418738545+419286135+419655481+419620131+419509265+419512251
4290+419195014+418596904+418124348+417877042+418133354+418625848+418741049
4276+418779867+419255023+419863440+420032822+419606550+418479969+417095486
4263+416358479+416131400+415716301+415362992+415670066+416099421+416064167
4249+415851681+415614055+415681047+415987736+415693376+414998510+414514251
4236+413940654+413453554+413610078+414118031+414762088+415265321+415262143
4222+415165580+414931422+414263429+413366817+412738942+413109300+413793137
4209+413357859+412231326+412010508+412965443+413507736+412919546+412252565
4195+411907251+411797396+412273130+413107277+413590621+413328143+412676237
4182+412286326+412116221+412180709+412754161+413390319+413390993+412429171
4168+411039824+410538998+410914991+410758034+410120672+410246083+411216767
4155+411941397+411439801+410316735+409892534+409962415+410032200+410392926
4141+410456258+409849141+409824578+410255041+409715060+408741053+408254242
4128+408134803+408307364+408352057+408076528+407906472+407752309+407533225
4114+407646499+407650786+406830412+405912753+405656922+405703975+405784934
4101+405811230+405947525+406394314+406272660+405333955+405041762+405769715
4087+406167573+405693765+405139673+404930703+404617657+403933218+403143546
4074+402723896+402942330+403483418+404109896+404604364+404503949+404196297
4060+404281060+404358406+404005146+403558140+403388854+403306884+403036340
4047+402497299+401888809+401546337+401276370+400950561+400911479+401249063
4033+401506532+401162181+400647196+400585718+400604838+400339351+399758433
4020+399180454+399521915+400563516+401025259+400635276+399773749+399036284
4006+399157336+399773797+400058043+399941782+399715113+399397611+398777780
3993+398242591+398287694+398316976+397882974+397635089+397759031+397533975
3979+397187867+397425011+397508016+396980389+396584578+396379726+396358198
3966+396906366+397368398+396917635+396296335+396300019+396334406+395962098
3952+395562651+395135150+394736643+395175485+395905437+395681031+395211245
3939+395353440+395563542+395015085+393696727+393269371+394417311+395083618
3925+394028990+393139071+393472658+393025171+391599968+391727113+393105624
3912+393761383+394180745+394758026+393565681+390394716+388413808+388929515
3898+391142944+393703277+394772619+392919289+391017148+391834367+391600449
3885+389623563+389553127+389979328+391123343+393397912+393606738+391956238
3871+390064283+388503628+389040093+389346107+388621911+389496514+391326534
3858+392801704+391964643+385253101+382095837+387080159+392142934+394108864
3844+393013949+390760450+388394230+385954107+385539080+386600644+387367896
3831+388826451+391270643+393013155+393587522+391860157+387136988+386294581
3817+388313223+388789945+390236290+392487165+392951003+390721175+389582698
3804+390461828+389236758+388679199+390142906+390769480+391817150+393507214
3790+394503230+394788873+394533981+394325854+394855335+394663799+393716882
3777+394190738+395154752+395045475+393763864+392830576+393124984+393863966
3763+395376750+396168973+394302327+392837873+393626797+393130306+388430736
3750+385866623+389624044+392115964+390252448+390766302+393924167+395314237
3736+392530630+389831184+392318288+396576849+399445267+400379324+400328635
3723+400909263+402944449+406688963+411453334+416038931+419103027+422682734
3709+431564048+443389007+455248449+466672902+477313053+486671930+494016813
3696+498734997+500977949+500042519+493794743+486955358+485430341+485205044
3682+482881663+479041694+475112772+468250317+460875575+459306636+457013355
3669+453902302+455265594+457782775+459403246+461908001+466164129+470774240
3655+475456834+478915561+475454811+461636036+451203892+449211136+448143408
3642+445233042+440865036+436761771+433764185+431272818+428784968+423223871
3628+414475000+411434455+411984501+411347235+407226295+400977628+397985653
3615+396838001+394300545+391343390+388280522+385273473+384112914+383560387
3601+381301494+377907038+375216382+373287800+371959473+371584131+370157627
3588+365583998+362307344+362744019+363308128+362426542+361098817+359810680
3574+358690552+358388631+358028532+354878830+350155757+349668681+351729031
3561+352581408+352221067+351865543+351293704+349973059+349184616+349392984
3547+348977403+347635013+346635264+346514115+346927649+347216566+346990162
3534+346708227+346657923+346139615+345189640+344776034+344770351+344611853
3520+344664349+345244881+345564116+345044435+344176816+342997402+341764891
3507+341547540+341779700+341393233+341063475+341096296+340959519+340929202
3493+340826499+339908527+338855969+338448335+338302215+337958201+337317540
3480+336994091+337257001+337449380+337174044+336527628+335908711+335647944
3466+335607850+335249460+334471829+333903265+333591038+333357120+333273127
3453+332949365+332298663+331467140+330660829+330422095+330465825+330511578
3439+330864092+331050668+330360521+329153728+328561975+328748550+328803333
3426+328570644+328573919+328885520+328837431+328217094+328093537+328883618
3412+329492998+329127890+328141144+327409146+327695174+328613964+329135066
3399+329447245+329973211+330044778+329476334+329306567+329975113+330536550
3385+330561280+330548759+330420434+330233665+330317466+330296973+330450968
3372+331401159+332432069+332737674+332595455+332842352+333733040+334520159
3358+334975497+335746626+336789599+337343210+337485308+338071620+339176938
3345+340192099+340893442+341541954+342389298+343285982+344069489+344521672
3331+344341695+344118444+344782825+346128346+347108349+347373210+347585094
3318+347985889+348236832+348566397+349236244+349894267+350527247+351369991
3304+352300677+353287086+354189478+354838085+355351505+355650368+355755648
3291+355966882+356757348+358497138+360206418+360791935+361003747+361760428
3277+363199598+365132658+366506232+366778896+367113398+368417668+370122470
3264+371459201+372509255+373616379+374963874+376494236+377540629+377893119
3250+378483236+379474557+380092269+380654909+381661810+382460849+382876020
3237+383264462+383598820+384212944+385143920+385675424+385897590+386469357
3223+387355976+387954545+387799418+387470937+387857019+388336196+387956495
3210+387315642+386955759+386433453+385793876+385499444+385775454+386372722
3196+386316928+385439772+384982821+385609949+386625736+386950774+386305008
3183+385611851+385363221+384885343+384314106+384508099+385244191+385715036
3169+385476086+384734648+384141112+383984132+384051846+383998917+383845356
3156+383840251+383725339+383334657+383065726+382861548+382490733+382416204
3142+382719064+382788536+382496247+382061041+381619934+381524600+381847591
3129+381913524+381381080+380864530+380960707+381437067+381475548+380963453
3115+380704419+381015346+381457728+381620705+381552581+381421174+381258366
3102+381248036+381593663+382170438+382449724+382333945+382240729+382051047
3088+381894620+382312971+382947443+383215675+383315585+383543748+383693577
3075+383603130+383424381+383091107+382610244+382507733+382861765+383081764
3061+383052964+382983106+382866677+382755353+382662667+382519798+382311526
3047+382083893+381966621+381812626+381341131+380738348+380241568+379805278
3034+379388517+378868355+378243370+377921727+378132744+378424190+378248860
3020+377740401+377440190+377398386+377066870+376195325+375201187+374606158
3007+374552820+374744477+374671489+374282469+374178176+374550942+375028458
2993+375408207+375583272+375656958+375889648+376160481+376260270+376390787
2980+376679247+376891829+377021382+377051820+376670385+376057079+375800863
2966+375758939+375217803+374228239+373496939+373258519+373215776+373263046
2953+373375237+373228538+372962088+373061083+373391371+373406734+372748012
2939+371764542+371241923+371293576+371470977+371660755+371839336+371667473
2926+371102016+370515800+370014902+369546585+369329018+369338915+369216538
2912+369115184+369320277+369467553+369367499+369347849+369439499+369570858
2899+369879426+370205379+370262257+370125528+369980708+369841186+369872852
2885+370348176+370953078+370950188+370329538+369900809+369951619+370056658
2872+369911718+369512728+369316617+369671250+370101785+370107227+369752257
2858+369227375+368666661+368358334+368383932+368345355+368104935+367939936
2845+367878218+367846913+368034789+368514905+368989772+369151377+369069118
2831+369090886+369399815+369845039+370096054+369992122+369762780+369658752
2818+369691911+369722421+369712403+369968427+370517920+370773052+370504097
2804+370191870+370201935+370432819+370688313+370807463+370717450+370588355
2791+370626811+370908986+371256973+371388959+371462356+371704413+371966023
2777+372113540+372201097+372417508+372687859+372676999+372512192+372362219
2764+372133455+372185830+372734383+373216787+373341837+373437196+373638509
2750+373767146+373753083+373777790+373920852+374033645+374170230+374489272
2737+374997490+375534726+375758072+375679907+375659101+375722722+375795132
2723+376030157+376442728+376877357+377255878+377367467+377164830+377153608
2710+377551779+378007044+378277396+378427562+378708099+379122548+379416210
2696+379640206+379919925+380094701+380052416+379972637+380101949+380406158
2683+380662591+380723418+380642315+380834935+381554002+382268349+382459043
2669+382409750+382576170+382933452+383222153+383352742+383504111+383900019
2656+384424323+384776837+384934251+385115023+385449308+385793442+386060230
2642+386401017+386780621+387134460+387660931+388266146+388542759+388587885
2629+388815614+389189295+389556836+390069581+390832451+391692678+392364716
2615+392717832+393001090+393495703+394101375+394700281+395438275+396223154
2602+396698021+396938826+397334613+397877435+398348208+398863531+399715402
2588+400821249+401711625+402134382+402242383+402344388+402709688+403326269
2575+403926908+404399006+404884035+405324034+405538254+405750980+406194928
2561+406608631+406788319+406992233+407347083+407613654+407787996+408087557
2548+408497166+408883369+409223771+409603664+410050020+410517277+410991567
2534+411349354+411504481+411601525+411770955+412000105+412222994+412470686
2521+412823079+413229895+413535428+413729083+414046512+414479190+414759294
2507+414900936+415080865+415308377+415489366+415707921+416095279+416533207
2494+416850587+416923888+416813503+416804160+416887238+416843508+416792842
2480+416891669+417004799+417080556+417146199+417078292+416912282+416862531
2467+416888923+416875679+416947632+417071213+416956493+416598802+416324766
2453+416206627+415985183+415660723+415467116+415299371+414932385+414618135
2440+414546856+414318333+413886040+413682945+413535187+413019046+412428978
2426+412224102+412189522+411970920+411662786+411316123+410791024+410194021
2413+409691895+409274629+408961679+408718418+408382543+407928819+407512227
2399+407129780+406619226+406076982+405603174+405041281+404383787+403744932
2386+403161462+402547531+401642634+400311634+398533821+396172537+393404197
2372+390643106+387871925+385023132+382372498+380294015+379113253+378729820
2359+378712072+379106438+380211877+382116474+384729350+386815635+386663542
2345+384254435+381883110+380819764+380332592+380487237+381331547+382020200
2332+382151222+381946442+381927081+382459043+383381349+384456205+385541296
2318+386645747+387684892+388388668+388770102+389162157+389860611+390741475
2305+391497626+392048924+392305983+392240171+392206242+392531786+393022666
2291+393381779+393648374+393884338+394101761+394344203+394523169+394614169
2278+394720701+394885364+395075070+395184154+395231472+395354138+395634050
2264+396082573+396579666+397009912+397326811+397612815+398075569+398648275
2251+399063278+399329825+399674874+400131897+400526360+400827173+401279477
2237+402010127+402763340+403336624+403802774+404332159+404942406+405406678
2224+405757482+406319569+407082342+407767913+408350420+409034257+409940694
2210+410877907+411564248+412241440+413256384+414385324+415396416+416406736
2197+417458957+418495188+419597736+420798244+422025482+423338301+424780144
2183+426215437+427581859+428974770+430372401+431734489+433153889+434601704
2170+435999623+437490157+439239026+441078244+442625945+443731913+444611236
2156+445514687+446475498+447337290+447919556+448276718+448428954+448225715
2143+447710200+446853658+445543583+443984999+442378108+440591096+438387636
2129+435743359+432881539+430019333+427218292+424365141+421196921+417815733
2116+414731072+411992447+409240145+406401876+403585206+400732898+397815018
2102+395008174+392426289+390056530+387839657+385619678+383348070+381132738
2089+378929688+376638695+374382908+372337007+370530249+368757131+366756091
2075+364705567+362993974+361565810+360089724+358396024+356488465+354601182
2062+352984611+351516015+350059122+348652196+347232387+345730825+344187965
2048+342696781+341308277+339914403+338435476+337158440+336280707+335414676
2035+334302086+333152797+332108307+331106486+330108856+329148069+328239730
2021+327429711+326628144+325650573+324662527+323893324+323223742+322444450
2008+321537049+320598609+319646852+318658228+317604924+316523253+315513390
1994+314428685+313109099+311926940+311144469+310488373+309787775+309010602
1981+308159766+307365665+306665236+305954982+305244126+304554269+303643449
1967+302515086+301707138+301333144+300953732+300375921+299658852+298877754
1954+298176073+297608785+297086407+296521431+295771999+294682574+293659491
1940+293366455+293421720+293238130+292839117+292304819+291728911+291262472
1927+290792854+290012550+289142523+288675049+288210608+287747541+287949985
1913+288235893+287873771+287310528+287229546+287496020+287671254+287660442
1900+287492721+287079717+286497210+286151270+286017840+285684061+285578588
1886+286018827+286386440+286452998+286423428+286420104+286421333+286399925
1873+286267988+285455585+284042687+283893533+285250443+286434649+286832001
1859+286858827+287004682+287405887+287844922+288192163+288445489+288433112
1846+287895010+287496743+288570828+290166906+291075752+291653250+292263088
1832+292107865+290874680+290273800+290820450+291255681+291658499+292104951
1819+291997528+291314823+290406387+289206143+287758762+286818083+286439586
1805+285874754+284657799+282768637+281107084+280336605+279569474+277802256
1792+275959979+276107086+277036713+276994428+276130565+275218709+274544408
1778+274397734+274298980+273030276+270613992+269910867+271208708+272340466
1765+272698760+272163403+271617908+272020918+272516952+272868021+272706562
1751+270964869+268846004+268838828+269899982+270388816+270099874+269631148
1738+269641695+269045077+266811806+266234019+267882255+269496947+270377691
1724+270375957+269929216+268896428+266093027+263405863+264732240+267427736
1711+269079031+269170946+267741336+266337709+266251645+265337478+262918498
1697+262572462+264715817+267516352+269123122+269177255+268440898+266328197
1684+263553139+265028911+268018671+269583420+269428992+268805380+268589137
1670+268133414+269003394+271351385+272521792+272500216+273521662+275077790
1657+275462452+273569004+270650691+272464095+274566851+275350694+278509668
1643+283123198+286413675+287959088+287957547+289306342+295215210+301288162
1630+305788297+309773062+313986616+318686378+324585686+330296829+334767754
1616+340315776+347796665+354556970+360060972+365154258+370399155+375338879
1603+379904562+384383121+388568501+392215754+395749516+399659246+403721719
1589+407785684+411830819+415822014+419885835+423918159+427298962+429868204
1576+434217187+440961069+446572398+451709967+458510679+465985645+473039298
1562+478457020+481553432+488241303+500781452+512137902+522695939+532744529
1549+542611601+550990499+557520402+562845125+569381675+584203449+598738762
1535+608929186+619500757+631201509+640860669+649538262+658780879+667426492
1522+676665594+687860607+699215226+711141709+722663206+731660009+737443802
1508+740784535+749373223+763969411+774707955+781799270+786846105+792602880
1495+799885780+805657244+809406189+813896427+821570105+829776153+836221534
1481+841223819+846107822+850872770+853874065+855138771+858894459+865972096
1468+871780885+874742110+878627735+885153834+890004027+890137529+891538628
1454+899705088+908391590+915453431+921084795+926992699+933898980+941056468
1441+947921523+953485269+957710237+963342661+970780928+977139715+982605598
1427+988910348+994576677+999039078+1002531711+1003421725+1004881002+1010803547
1414+1016281470+1018371463+1018899596+1019294998+1019135585+1018959701
1402+1019759366+1019184998+1016158275+1013870437+1013683476+1015596333
1391+1017361624+1014949049+1009139008+1007207176+1010489827+1014590058
1379+1017739206+1019923594+1019526941+1017157711+1016755663+1018124686
1368+1018970296+1018227077+1015932015+1015817006+1018691252+1019415496
1356+1016984813+1014507028+1013608537+1012962892+1011969717+1011687782
1344+1011997746+1010934449+1007077045+1003321936+1003457268+1005417515
1333+1005585789+1004020558+1003057147+1003848720+1006433326+1009916422
1321+1012541676+1014065392+1016138143+1019001408+1021772012+1024694611
1310+1027796562+1030993968+1034414936+1037759040+1041065868+1044547231
1298+1048025896+1051041543+1054023573+1057248237+1059436960+1060640695
1287+1062179149+1063469573+1063375081+1062853980+1063079951+1063733591
1275+1064093643+1063281264+1061139257+1058672742+1057160584+1056373634
1263+1054364937+1051836295+1051258267+1052332449+1053847689+1055358980
1252+1056247356+1056489799+1056375272+1055936911+1056765472+1059374640
1240+1061390561+1062059228+1062308990+1062555382+1062624348+1062010489
1229+1061514720+1062343763+1063911691+1065267036+1066164467+1066161481
1217+1065908251+1066260308+1066600228+1067013545+1068068655+1069615007
1205+1071035755+1071597794+1071485579+1071609834+1072238527+1072294972
1194+1071655876+1071749501+1072687869+1073476649+1073741823+1073707532
1182+1073159846+1071997722+1071111368+1070582753+1069946932+1069140622
1171+1067568359+1065345346+1063470055+1062337791+1061696383+1060549574
1159+1058646061+1057390601+1056860734+1054953175+1051658581+1049433737
1148+1047582430+1043936261+1039948245+1036792354+1033275256+1029569174
1136+1026184422+1022084191+1016803150+1010727357+1004204148+997539250+991204640
1123+985695893+980254283+974235416+967729931+960270763+952760351+947161543
1109+943220051+938832299+933208545+926761719+919826927+913470067+908674584
1096+905570033+903119025+899962556+896390458+893143062+890553447+888849320
1082+887780243+886983757+886112140+884767583+882965978+881286702+880177748
1069+880032494+880792667+881065739+880327335+879584116+879237549+879583923
1055+880882246+882264851+882955093+882979559+883166520+884654597+886227919
1042+886063690+885760469+886726770+887476829+887616111+888476939+889894798
1028+890902325+892223573+894277059+895551013+895720251+896298375+898222790
1015+900903910+902652731+903125094+903733848+904735981+905458107+905701319
1001+905405996+905108940+905091505+904931418+904610955+903495066+901357105
988+899475842+897992966+896298760+894323487+891732235+888678349+885972955
974+883852910+881914624+879668494+876675483+873451396+871391359+870136189
961+868370993+867065254+867159553+867311934+867257994+868282281+870290689
947+872550690+874823213+876695325+878022545+879296884+881255686+884234345
934+887360761+889672198+891936148+894784869+897069624+898610197+900605698
920+902757144+903706300+903534654+903472430+903527815+902625665+900836485
907+899165782+897790305+895814646+892801504+890376311+889847504+889395273
893+887719560+886215783+885576398+885377686+885136688+884068767+882719779
880+882487354+882661408+882424263+882971661+884735026+887460840+891499039
866+896440738+901793925+907886960+914027481+918456652+920958806+922859141
853+924986506+926777034+927284940+927414011+928656853+930474832+932111823
839+934400721+938512703+944848084+951022415+952948275+950333231+946216337
826+944335459+946903208+951001224+953128782+954975466+958982361+962986173
812+964420503+964407211+964308384+965483415+968833876+973209010+977307604
799+979517517+980199187+982234373+986258028+991098011+995853616+999246267
785+1001278177+1004872140+1011074115+1016681784+1021115482+1026387276
773+1030985106+1033372926+1035232517+1038258662+1042683113+1046580875
762+1047714295+1047305890+1047106985+1046338818+1045199234+1045531737
750+1046624027+1045490800+1043457637+1044547423+1047187510+1048299643
739+1049207188+1050481142+1049308519+1044678806+1040639932+1039984943
727+1040112185+1038560920+1036114248+1034371110+1033490342+1033134144
716+1034068659+1035609039+1034906275+1032312133+1030933092+1030079295
704+1028793494+1028992495+1029687265+1029070901+1027878147+1025475493
692+1022201993+1022379418+1025631920+1026068643+1024091251+1023394265
681+1023466025+1023608293+1025202131+1028691970+1031432521+1031650401
669+1031218012+1031911723+1032847779+1032422710+1030182937+1029145935
658+1031132382+1031388887+1028209590+1027694075+1032035978+1033341718
646+1027884215+1022243122+1020190888+1023440500+1028078111+1022399453
635+1011309815+1012128455+1025786420+1034182993+1027414357+1021418221
623+1027403761+1034830277+1035472551+1031470568+1027056424+1029732151
611+1037288412+1035023595+1023130440+1015555589+1012398638+1004421547
600+1000037744
##END=
