##TITLE=Sample description
##JCAMP-DX=4.24
##DATA TYPE=INFRARED SPECTRUM
##DATE=24/8/2023
##SAMPLING PROCEDURE=Instrument type and / or accessory
##ORIGIN=Default
##XUNITS=1/CM
##YUNITS=ABSORBANCE
##RESOLUTION=4
##FIRSTX=4397.6552
##LASTX=599.8556
##DELTAX=-1.9287962
##MAXY=1.3458611
##MINY=0.29545325
##XFACTOR=1
##YFACTOR=1.2534308e-009
##NPOINTS=1970
##FIRSTY=0.55783224
##XYDATA=(X++(Y..Y))
4398+445044305+444565159+445014108+445284829+444752613+444312984+444738585
4384+445609475+445718038+444989571+444600919+444727696+444672914+444304472
4371+443876065+443397252+443021725+443038891+443175797+443321405+443430825
4357+443317315+443425499+443360066+442763320+442749387+443029713+442552898
4344+441540347+440287796+439556951+440154980+441220362+441528221+441235293
4330+440935375+440829189+441003900+440888108+440065104+439407016+439366928
4317+439335448+438923828+438090077+437270308+436940669+436890500+437430990
4303+438606553+439240056+439478108+439736750+438961204+437616305+437328275
4290+437861109+437716404+436364752+435195467+435533617+436442454+436751407
4276+437173917+438172867+438336022+436744512+434880855+434549219+435256858
4263+435384110+434897403+434599768+434566052+434611751+434608803+434686219
4249+434643802+433999551+433428960+433745474+434588593+435150671+435050572
4236+434587927+434101220+433578182+433216730+433352447+433539902+433424633
4222+433572476+433950001+433969545+433662161+433281117+432883002+432639530
4209+432688034+432794696+432752944+432419977+431794700+431215311+430910258
4195+430858567+430873404+430973170+431254590+431429681+431376374+431394539
4182+431532539+431284311+430817624+430962328+431312700+431158628+430808827
4168+430437959+430159202+430076650+429645247+428979550+428815492+429038944
4155+429588231+430762795+431655987+430930277+429276995+428417519+428491654
4141+428731180+428827142+428516953+427616057+426850879+427061207+427818919
4128+428245757+428088831+427775456+427645398+427395078+427188364+427353516
4114+427455185+427385044+427243906+426553719+425425947+424952222+425397605
4101+425773656+425782025+425752780+425196170+424277775+424084947+424349676
4087+424319384+424241254+424402079+424487057+424012999+423175682+422565099
4074+422404940+422717888+423134739+423163509+422936537+422670239+422185434
4060+421612371+421537427+422052904+422548170+422522016+422264896+422364329
4047+422470706+422129417+421948382+422189714+422323529+422214680+422202078
4033+422358385+422356816+421978911+421120433+420204891+419977587+420127807
4020+420212214+420259244+420105980+420037171+420085770+419934028+420081728
4006+420571669+420487072+419653940+418902029+418538009+418241562+418199858
3993+418389928+418470293+418577002+418641389+418522982+418389262+418143888
3979+417767885+417580906+417450277+417032950+416664175+416837602+417435298
3966+417978355+418021534+417343758+416595318+416772834+417651712+418268905
3952+418167379+417174944+415990204+416001569+416276521+415394267+414917689
3939+415802749+416720668+416306670+414278383+413082088+414538547+416030338
3925+415655144+415623854+416795517+416498880+414510205+413718159+414754819
3912+416366825+417808353+418058863+415703886+411718547+409212494+408593161
3898+410039396+413108385+414958204+413625003+412335407+413659383+413475257
3885+411136163+410999162+411726726+412663619+414245144+413804468+411863537
3871+410143015+409249014+410759114+411713839+410907242+411382203+412986363
3858+414468596+413329745+405291114+401299927+406476710+411753832+413872041
3844+413350763+412418625+411161699+408446649+407481462+408811573+409621166
3831+410203312+411077340+411471508+412215383+411845419+408362290+407440376
3817+408202797+408226811+411087421+415081509+416571351+414185988+411848082
3804+411472840+409477793+408729543+410601332+411912945+413207961+414889727
3790+415919397+415982262+415279283+414526801+414169392+413160027+412328845
3777+413665280+415816729+416930663+415823149+413611640+412648355+412678171
3763+413607741+413909038+411888740+410787979+412253093+412561808+408046870
3750+404510338+407652416+409936681+407803064+408721507+412528901+413484721
3736+408782613+403906032+405121730+409560250+412977708+413176386+411519204
3723+410995786+412013377+414153842+416516237+417712723+415808931+411600568
3709+411391143+414614537+417272143+417775588+417669497+419711479+422860690
3696+425385289+426360986+424724347+421238888+421122763+425092314+428681962
3682+429588802+428435827+426692812+422990700+419965413+420588836+418791230
3669+416460885+418953766+422079961+423235932+423984657+425603321+427585813
3655+430930182+435420155+436310161+429123636+422103500+420930505+420471332
3642+418106273+414036385+409584312+405661411+402516290+399745555+393652374
3628+384835796+382503883+383306699+382494467+378370701+372447427+369492376
3615+367594552+364563344+362002034+359049979+355801311+354346754+353019282
3601+350269923+347731485+345881809+343147714+340369703+339378742+338313123
3588+334760566+331613852+330897439+330470792+329215126+327505802+325787562
3574+324408710+323757421+322718954+318706843+313384903+312454525+313580561
3561+313134346+312058383+311455195+310310898+308397524+307121814+306652702
3547+305424022+303254574+302055092+302342599+302833990+302503733+301442536
3534+300545516+299921974+298916510+297690897+296718791+295785179+294942513
3520+294636389+294453832+293705059+292653848+291834578+291218051+290659515
3507+290232035+289410696+287967813+287164069+287451077+287968075+287979749
3493+287193576+286000490+285040106+284468374+284091324+283531623+282678661
3480+282088455+281906326+281711667+281355446+281030301+280789111+280198191
3466+279143604+278075274+277302843+276821296+276472232+276375580+276459654
3453+276336301+276011631+275342653+274507857+274163072+273820332+273402839
3439+273659198+274116732+274343346+274354450+273682737+272514854+271445740
3426+270614676+270214088+270296260+270373534+270051432+269497271+269328529
3412+269828883+270252202+270093208+269681873+269291413+269186487+269473827
3399+269884758+270184605+270157833+269740767+269545704+270306175+271623137
3385+272506247+272779155+272862254+273292373+274491332+275990470+277107376
3372+277990582+278887506+279835194+280931509+282109687+283401945+285029644
3358+286884052+288614157+290098411+291281558+292349841+293863435+295534193
3345+296752601+297947233+299240252+299962086+300005502+299976851+300184088
3331+300420594+300768421+301269989+301599794+301862692+302202317+302047507
3318+301164254+300447295+300384643+300268138+299896010+300096518+300880433
3304+301161092+300848572+300914909+301557662+302312902+302659493+302332042
3291+302291812+303326926+304499279+305049469+305430799+306243221+307630728
3277+309294948+310792731+311805043+312495635+313311743+314264162+314872795
3264+314880499+314901850+315570115+316487916+317058293+317468629+317982489
3250+318426850+318874682+319419785+319862243+320167440+320340795+320500193
3237+320836632+321337938+322077343+322780250+322987107+323161413+323707086
3223+324209628+324637560+325124076+325153393+324291824+323153496+322936962
3210+323693153+324362345+324537579+324623555+325049085+325927773+326698396
3196+326796927+326560064+326495225+326643306+326802585+326937827+327523016
3183+328548644+329024937+328762990+328655187+329080146+329762059+330259632
3169+330370526+330472884+330948107+331693693+332293957+332587028+332793385
3156+332881905+332799876+332811122+332961509+333176022+333535120+334085215
3142+334654546+334736004+334352607+334207284+334313827+334279018+334070997
3129+333940178+334370725+335030050+335127914+334988346+335071207+335195915
3115+335378044+335583688+335465803+335079172+334898208+335086139+335298963
3102+335298678+335392548+335891262+336425522+336440620+336229104+336374212
3088+336693247+336837047+336945493+337231121+337621556+337836782+337669989
3075+337357636+337535961+338253015+338637269+338363149+338193645+338558045
3061+338930006+338764307+338324821+338161333+338036862+337549228+337160195
3047+337435362+338076498+338506640+338684442+338755201+338734444+338487762
3034+338003694+337926372+338475968+338935380+339038451+338854516+338279954
3020+337749736+337910822+338462035+338560780+338177548+337949317+338027898
3007+338231640+338704414+339353349+339739695+339947883+340347591+340861760
2993+341373314+342085518+342891331+343449130+343957140+344951692+346333754
2980+347133005+346968066+346740239+347019590+347353342+347399231+347367703
2966+347341692+347171428+346910575+346673522+346371107+345981789+345895361
2953+346275692+346598316+346727091+347060890+347568211+347857121+347653070
2939+347191424+346810784+346388369+346143803+346356960+346537092+346371250
2926+346113155+345917283+345649226+345199801+344846100+344886663+345070218
2912+345195497+345408084+345580583+345907273+346661206+347198366+347263324
2899+347381660+347545124+347534591+347615693+347872814+348072585+348384034
2885+348874165+349127196+349148975+349360777+349669682+349705347+349682522
2872+349784381+349678123+349339639+349091317+349161648+349542597+349916888
2858+350057550+350006169+349780909+349386337+348935960+348734834+349036393
2845+349558194+350053556+350661737+351211429+351524543+351885424+352363690
2831+352614795+352694470+353090921+353778231+354366227+354818933+355216454
2818+355533491+355808373+356175317+356725246+357356491+357808460+357902283
2804+357831286+357955923+358354894+358826764+359197275+359472679+359615339
2791+359730798+360125561+360590631+360893236+361409212+362146786+362574979
2777+362573719+362530136+362767355+363244694+363663139+363911723+364220415
2764+364646539+365036285+365335109+365530791+365777092+366168764+366466352
2750+366612222+366803909+367119567+367596074+368193627+368754065+369289538
2737+369899384+370515888+371080986+371590352+371991630+372324811+372726041
2723+373280084+373976120+374753567+375480014+375887021+375922068+375939877
2710+376114492+376373182+376822678+377345193+377540351+377515814+377765587
2696+378285652+378641469+378686312+378689236+378939556+379231271+379221095
2683+379105588+379077128+379195821+379556630+379895661+380011833+379974647
2669+379872788+379898752+380108248+380379776+380722682+381179217+381593857
2656+381811556+381946321+382216043+382571931+382803111+383036502+383520950
2642+384125946+384593275+384915519+385217125+385511622+385795681+386179650
2629+386754830+387409233+387968696+388451528+388928938+389460012+390034431
2615+390505612+390983950+391685977+392387910+392898299+393577406+394548751
2602+395201181+395242600+395267375+395781425+396598437+397422867+398235741
2588+398996022+399494617+399608697+399604465+399810037+400209246+400774274
2575+401405162+401818589+402118793+402626756+403249703+403752958+404214082
2561+404706115+405117117+405455268+405741966+405987673+406334812+406753518
2548+407096138+407435668+407837826+408248780+408730922+409218295+409532860
2534+409869631+410352106+410683362+410869627+411244632+411783933+412238684
2521+412583492+412921073+413259841+413505834+413697188+414087933+414694569
2507+415236628+415657426+416010842+416144942+416109895+416312567+416792236
2494+417056346+417010077+417066095+417231913+417229915+417237048+417509718
2480+417816341+417874784+417670591+417288596+417006843+417060578+417186309
2467+417053018+416784342+416596459+416471394+416301297+416013790+415676971
2453+415385184+415106903+414842460+414594232+414258316+413772085+413250093
2440+412863105+412586583+412358423+412180717+411834197+411170259+410475221
2426+410000640+409657924+409335133+408956705+408380693+407639719+406928704
2413+406359872+405987769+405736783+405393116+404901653+404346327+403686527
2399+402910696+402224408+401763428+401398980+400901336+400147903+399217144
2386+398191065+396986709+395399787+393222493+390420539+387057125+383396955
2372+379911900+376538286+372997261+369579066+366788715+364854703+363600036
2359+363147947+363828053+365521613+368441879+372380282+375230145+374854903
2345+371576966+368372926+366990412+366735408+366927428+367209418+367420150
2332+367732195+368440547+369412511+370198589+370797759+371633697+372818176
2318+374224752+375701992+376904303+377801466+378685384+379651238+380727580
2305+381775130+382459373+382797666+383137862+383571642+383920278+384262376
2291+384802580+385380637+385759517+385987963+386222020+386531924+386836716
2278+387031993+387250691+387668826+388182234+388662783+389086292+389406420
2264+389782090+390465215+391287838+391865515+392256711+392789473+393483369
2251+394205798+394985361+395824604+396595298+397267653+397857004+398357549
2237+398987890+399922168+400942992+401812312+402563795+403324076+404168050
2224+405049354+405896371+406847197+407978250+409039067+409855936+410638994
2210+411704567+413021648+414266162+415337679+416435397+417686283+419125386
2197+420726169+422297565+423790878+425245197+426554575+427861099+429429689
2183+431206419+433022523+434823410+436660295+438492235+440202533+441984066
2170+444091529+446378648+448567854+450569606+452455281+454332776+456275372
2156+458284019+460184625+461775470+463152183+464501695+465665845+466411146
2143+466841455+467194062+467572680+467873835+467823619+467175469+465941273
2129+464426371+462848888+461145961+459208643+456932272+454414472+451975279
2116+449642414+447158140+444324064+441196062+438008619+434810666+431543999
2102+428243141+424968866+421765207+418704825+415880403+413090600+410089993
2089+407099515+404229204+401308581+398530214+396041090+393568751+391073873
2075+388742363+386462568+384098009+381826036+379742635+377664084+375524571
2062+373455983+371528794+369713404+367911732+366013123+364029964+362104107
2048+360320315+358619123+356908611+355171921+353530717+352057138+350569223
2035+348953341+347301248+345667320+344110000+342716026+341366894+339870918
2021+338356562+336916842+335360640+333825170+332566794+331366646+330021889
2008+328714367+327541491+326323511+325043878+323909377+322901678+321768604
1994+320359793+318762457+317350602+316282248+315346045+314460557+313579776
1981+312662214+311661005+310518182+309453799+308629869+307795263+306598776
1967+305206752+304246724+303731319+303138853+302267512+301240102+300259198
1954+299434982+298656988+297836006+296980286+295924510+294539428+293369048
1940+293045187+293028354+292680763+292082782+291369056+290571042+289811237
1927+289088381+288065797+286890615+286246697+285765030+285175632+285103756
1913+285171067+284650978+283836225+283425651+283389439+283281160+282987828
1900+282605168+282090381+281400883+280880176+280609574+280105677+279604918
1886+279550517+279576172+279509835+279448563+279338263+279095861+278751742
1873+278213654+276895194+274999248+274562020+275711547+276638858+276757384
1859+276443533+276135412+276017100+275883856+275525495+274911726+274049444
1846+272719191+271396356+271624136+272557106+272785147+272637970+272496475
1832+271540703+269538571+268405545+268642835+268888186+269190981+269562157
1819+269465648+268980178+268398531+267537604+266464756+265980189+266118093
1805+266126914+265461574+264058968+262876867+262588528+262316667+261013329
1792+259508127+259919225+261081663+261266264+260650712+259903508+259260946
1778+258959007+258486803+256841843+254307828+253756068+255336665+256787632
1765+257308768+256655577+255791631+255878558+256182209+256502836+256280549
1751+254288641+251947525+251896667+252897543+253296800+252944145+252437585
1738+252471347+251822104+249387023+248906498+250983004+252986515+253966705
1724+253812015+253252813+252184150+249117515+246030124+247382061+250237227
1711+251905559+251963717+250418000+248687611+248189729+246815631+244054907
1697+243777600+245990369+248604084+249874348+249491450+248393613+245948998
1684+242673058+243819138+246578864+247845705+247244490+245936420+244966525
1670+243705819+243778076+245460817+245839745+244620837+244323654+244874700
1657+244423373+241230080+235715645+235819025+237160097+236437288+237670961
1643+241002610+243109478+243360131+241932750+241130456+244964314+249901596
1630+253405269+255977207+258550596+261592051+265891954+270301396+273415893
1616+277242879+283200153+288709453+292948607+296699698+300769705+304904218
1603+308849755+312942326+317113122+320894719+324506693+328469111+332640763
1589+336916675+341376856+345898452+350374017+354689588+358173027+360436678
1576+363914124+369715401+374490479+378353534+383563677+389433287+394447701
1562+397765583+398412259+400425709+409161374+418057959+425763099+432377797
1549+438501317+443462210+446535478+448062887+450654726+460967921+472055806
1535+479445716+486839097+495666920+503056164+508893890+514405306+519253735
1522+524923931+532862652+541045940+550054228+559402188+566784394+571145165
1508+573308408+580747820+593703452+603422184+610531483+616603313+624087378
1495+632968984+639825918+644657371+650788975+660304703+670451367+679463792
1481+687624492+695050352+701404125+706381804+711190098+719559461+730123784
1468+739150428+747049442+756163108+765442829+772310890+777109769+785895318
1454+799261904+811208979+820988485+830105004+840745318+852348584+863477459
1441+873508045+881360981+888513933+898119394+908331538+917546397+927227278
1427+936552365+943292650+949154533+954742320+957769556+961564777+969629134
1414+977315348+981664468+984964090+989279067+992841277+994469689+995579580
1400+996074419+996706591+999114780+1000519407+1000534434+1000914193+999701872
1387+996050738+994909841+998701258+1004349437+1009249318+1012060568+1012072361
1373+1011291062+1012022906+1012724506+1012367952+1011395775+1009377807
1362+1009198722+1011976684+1013366094+1012251352+1010315841+1009190447
1350+1008802223+1008885822+1010008648+1010847391+1008819532+1003582023
1339+999746287+1000757648+1003929637+1006424944+1007793905+1009012694
1327+1009863230+1010079122+1011109124+1012897790+1014204932+1016008530
1315+1019154745+1022475955+1025743241+1029026028+1032212092+1035907356
1304+1039842098+1043251473+1045914357+1048613476+1052160659+1055724201
1292+1058191832+1059676062+1061233239+1063188912+1064712231+1065662344
1281+1066716694+1067793013+1068196359+1068098590+1067867291+1067265172
1269+1066161463+1064718223+1062795457+1060237190+1058633506+1059289740
1258+1060139991+1059472915+1058774644+1059401966+1060442144+1061138799
1246+1062314694+1064007588+1064883042+1064909767+1065128988+1065422866
1234+1065202600+1064443746+1063808721+1064263234+1065478694+1066027553
1223+1065799012+1065902393+1066484729+1067034825+1067262224+1067425046
1211+1068302403+1069715113+1070963290+1071786340+1072134240+1072576294
1200+1073271902+1073452319+1073295869+1073559219+1073741823+1073527358
1188+1073526122+1073507766+1073011311+1072501921+1072222974+1071767985
1177+1071087594+1069890109+1067723110+1065920273+1065858739+1066235741
1165+1065203931+1063457207+1062497584+1061958140+1060725466+1058708355
1153+1056875369+1055445254+1053359000+1050559924+1047896945+1045464503
1142+1043219517+1041244632+1038427961+1034192778+1030194981+1026615556
1130+1022090489+1016973289+1011949484+1007144423+1002265751+997040890+992400649
1117+988214256+982659757+975644709+969153982+963423537+956551624+948752899
1103+942063591+936989854+932029865+925770533+919146372+913130227+907166105
1090+901307550+895478765+889021325+882749154+877736381+873295958+868520095
1076+863363807+858207708+853366602+848137177+842318568+837336134+833595694
1063+830095874+826727395+824250254+822161622+819162823+816258273+814736951
1049+813370748+811763260+810676669+809574196+808231864+807368108+806982832
1036+806377860+805535122+805214138+805688338+806483523+807304006+808056678
1022+808308520+808268575+808771688+809709912+810405616+810643667+811086387
1009+812714133+815037488+816704417+817666609+818627849+819695894+820626415
995+821270666+821554653+821409997+820878827+820092393+818936089+817215044
982+815054226+812795449+810664400+808155969+804881931+801591916+798571241
968+795598833+793027727+790981275+789512927+788549452+787627586+787067552
955+787690166+789388386+791165829+792975418+796060527+800315017+804299500
941+808044885+812458012+817277529+821990621+827052945+832796991+838182581
928+841858063+844239717+846895848+849851565+851910524+853331603+854974852
914+856068480+855790389+854675742+853159271+851261517+849330477+847347889
901+844744256+841839231+838983377+835545280+832172237+829637556+827134356
887+824888038+823744193+823402190+823027376+822040172+820598739+819099482
874+818183988+818615961+820468063+823178976+826220859+829982697+834762269
860+839619543+844071854+848570387+853193889+858153403+863248443+867149041
847+869934327+873186205+877437747+881783919+885834976+890797247+896702689
833+901441175+903184856+902182054+901111917+902629625+906895051+912465528
820+917887544+921359403+922793132+924918189+928228558+930490949+931539021
806+933898706+938300896+942630995+947516326+953800196+958263634+960794035
793+965047288+971995857+980754205+989958887+996921056+1000574283+1003358143
779+1007892245+1013935496+1019302350+1023402577+1027224808+1030610976
768+1033554234+1036279222+1037618701+1037917620+1039719316+1043916837
756+1047981019+1048556983+1045745828+1042286333+1040117241+1039632389
745+1039388060+1038023284+1036970456+1038096515+1040348064+1041245393
733+1039042158+1034771596+1032799945+1033933899+1034013122+1031675217
721+1029415584+1028701430+1028402225+1028237120+1027420061+1023344087
710+1019459846+1020572496+1022284791+1020206146+1019227216+1022310470
698+1024076691+1021275142+1016357000+1012080541+1011235996+1013981813
687+1015816510+1014863829+1013635625+1013059946+1013707906+1015907242
675+1017817073+1018559284+1018030872+1018254943+1023982441+1032462983
664+1038963791+1040057514+1033830328+1027861070+1026709522+1026869110
652+1027928215+1029964062+1029657630+1027875146+1027570995+1024705059
640+1015156472+1006604409+1012274367+1037497916+1058503210+1042882079
629+1012159003+998941877+1003599523+1011924091+1010382796+1002995977+999823133
615+1000553550+1004518441+1006876033+1004471934+1005262743+1013009160
604+1022912589+1024006598+1012087198
##END=
