##TITLE=Sample description
##JCAMP-DX=4.24
##DATA TYPE=INFRARED SPECTRUM
##DATE=24/8/2023
##SAMPLING PROCEDURE=Instrument type and / or accessory
##ORIGIN=Default
##XUNITS=1/CM
##YUNITS=ABSORBANCE
##RESOLUTION=4
##FIRSTX=4397.6552
##LASTX=599.8556
##DELTAX=-1.9287962
##MAXY=1.2851429
##MINY=0.34268245
##XFACTOR=1
##YFACTOR=1.1968826e-009
##NPOINTS=1970
##FIRSTY=0.48811892
##XYDATA=(X++(Y..Y))
4398+407825228+407516020+407817982+406988938+404772867+403592236+404726553
4384+406538099+407247524+406731846+406228618+406591834+406809285+406556725
4371+406745018+407016154+406568577+405683259+405076721+404932899+405161829
4357+405541329+405691974+405472332+404855485+404368517+404293369+403740540
4344+402744591+402753580+403825598+404342297+403839144+403129619+402515562
4330+402386356+403269333+404181941+403806699+402662247+402008250+402098936
4317+402202021+401831137+401195391+400830806+401141059+401698345+401951304
4303+401562516+400572394+400091377+400688328+401400791+401219718+400624883
4290+400735763+401162025+400728118+399600449+398983976+399206880+399522238
4276+399432549+399262183+399463176+399643426+399113406+398287948+398153861
4263+398193552+397702824+397424592+397225218+396755181+396930178+397613981
4249+397726329+397318269+397004878+396915686+397068099+397592118+398643793
4236+399464296+398518372+396224613+394851779+395355779+396349760+396501725
4222+396307978+396387484+396343485+395746260+395075854+395062308+395493002
4209+395764238+395794690+396126482+396978584+397463236+396918923+395886297
4195+395050231+394582785+394622425+395083971+395363797+395215019+395038155
4182+395022468+394894059+394338342+393730534+393798162+393871393+393126760
4168+392606176+393070561+393765219+394008890+393876921+393725529+393782948
4155+394064666+394292352+394335155+394516800+394817068+394558383+393495852
4141+392662948+392998625+393484348+392802612+391879646+392042790+392808140
4128+393133059+392759012+392283199+392216119+392177175+391877728+391619441
4114+391497855+391347210+391096891+390759023+390238490+389432777+388684633
4101+388245373+388167286+388785004+389555135+389571046+389299662+389226680
4087+388818545+388024311+387705118+388156081+388539466+388053444+386940092
4074+386033734+385872282+386264731+386505613+386616592+387158788+387675139
4060+387584802+387320788+387120866+386631831+386011324+385798529+385924772
4047+385828334+385279215+384678155+384477287+384658833+384823173+384495937
4033+383628672+383058637+383435946+383930484+383647397+382695920+381641755
4020+381266911+381658687+382136791+382430461+382629512+382265076+381020452
4006+380078586+380391230+381488247+382645472+383085778+382554463+381716903
3993+381109245+380981906+381421615+381795014+381393727+380436971+379659420
3979+379487461+379868057+380490755+380740850+380291107+379822091+379668409
3966+379273272+378751692+378744172+379108683+379406188+379494981+379034879
3952+377941746+376616546+375757473+375733444+375575703+375439301+376632606
3939+377976084+378194182+377445515+375795570+374719070+375601649+376599589
3925+376139264+375745720+376260477+375996711+375243139+375639297+376397028
3912+377060911+378003399+377861419+375104969+371258823+369406341+370111308
3898+372730784+375326305+375802392+373860968+372846469+374255657+374160240
3885+371915260+370941896+371054842+372740644+374755249+373992589+371821064
3871+370312649+369928841+371438625+371706823+370652584+372017599+374264073
3858+375210894+373184411+366075026+364436907+370191735+374921656+376485572
3844+375161816+372544382+370135685+368587406+369623195+371964985+373323726
3831+374509188+375754410+375928386+375592510+373576660+369630391+370056628
3817+372449115+373709651+376704343+379677248+379305019+375692857+374068434
3804+374706221+373215461+372959664+375296400+377372932+379772117+382157906
3790+383314136+383268195+382248692+381303639+381226026+380443619+379884267
3777+382027157+384707139+385278892+383394314+381616532+381938637+383325689
3763+384721531+384248058+381926636+381653608+383476334+383444960+379473442
3750+377453558+380501835+382662180+382824951+385456254+388666879+388648428
3736+385666435+385481752+390595928+397064439+401673968+403468981+404901226
3723+409471264+417341343+427127250+437442853+447384657+457583729+471595780
3709+490564117+509306512+524613361+537072302+549569042+563034390+575077551
3696+584143227+589234670+589191045+584175746+580219243+581059815+582163581
3682+580855436+577559180+572920419+564294526+555615697+552997317+548716418
3669+544520277+546256103+548592017+548027237+545723891+543341962+539597905
3655+536607470+536522163+532968989+522711702+519288705+524315109+529061688
3642+531260354+531737935+531631463+531387692+531255822+531156222+527912705
3628+522679083+524258138+528927577+531382712+530228699+527703296+527252657
3615+527510819+527815844+528780368+528385854+527348073+528443671+529951314
3601+529657992+528562942+528184712+527932226+527777647+528315536+527614702
3588+524895627+524954690+528072313+529811326+529134844+528553530+529873725
3574+532045549+533610412+533480285+529498483+524770629+526878261+532155308
3561+534997688+535955440+537451827+539077047+539504928+539276695+538861065
3547+538340208+539520466+542360854+544842333+546599324+547608619+548614726
3534+550368779+551493012+551794251+552669634+553419521+553214943+553868766
3520+555990491+557310438+557307450+557532197+558067596+558227403+558514450
3507+559879217+561494776+562297600+563768639+566076716+567037655+566539008
3493+566449817+567317630+567879074+567532616+567222910+567216337+567495764
3480+568893648+571105760+572704685+573232216+573300392+573231867+572730830
3466+572472170+573067577+573268221+572978186+573235303+573949832+574894985
3453+575782121+576510594+576824333+576455615+576336742+576612385+576631856
3439+576659246+576838825+576799134+576515723+576256465+576511390+577454152
3426+578124658+578143383+578154837+578086313+578070775+578575099+579232906
3412+580001318+580985813+581299751+580563858+579926469+580487316+581550793
3399+581755669+581479031+581853825+582846337+583572818+583468936+582870590
3385+582345201+582308448+582992151+583938648+584278632+583897414+583611413
3372+584046316+584981508+585602463+585328514+584713435+584820157+585577713
3358+586363107+587221558+587913627+588115068+588331847+589003100+589730328
3345+589807319+589445473+589758814+591539609+593742010+594153755+593091872
3331+592554531+592481176+592110365+592004690+592524651+592959703+592854177
3318+592261309+591314314+590714175+591017257+591692544+591984571+591612964
3304+590991262+591197981+592642378+594001965+593742607+592329784+591229505
3291+591031849+591600663+592568126+593636583+594040510+593124939+592209119
3277+592941526+594807230+596227473+597095585+598158913+598858602+598960841
3264+599752809+601387441+602637170+603133376+603207379+603365992+604116775
3250+605266107+606547359+607504264+607732398+607917554+608326710+608795178
3237+609598151+610134646+609642224+608727848+608105150+607924476+608354897
3223+608867487+608798564+608606536+608778943+608749661+607898779+606895660
3210+606500746+606150255+605192802+604124992+603803783+604172053+604929559
3196+605687365+605271137+603812647+602813611+602210733+601217424+600141248
3183+599105062+598025748+597440450+597209777+596692953+596128621+595962139
3169+596247493+596578712+595826335+593472742+591259285+590889570+590995594
3156+589882118+588538268+588217158+588282595+587335849+585183148+583077907
3142+582066620+581641279+580830188+579849429+578991924+577905887+576499289
3129+574914556+573487888+572506581+571693897+570904618+570550690+570330076
3115+569530339+568573484+567556819+565631903+563281198+562052783+562042226
3102+562160501+562065134+561777290+561142242+560483788+560077570+559555617
3088+558582029+557521440+557050034+557190918+557137981+556250546+554930301
3075+554076133+553819315+553497109+552524417+550871857+549439114+548904910
3061+548678420+548242322+547609913+546783434+545606114+544067945+542891123
3047+542458511+542025302+540980848+539547159+538386323+537615470+536393928
3034+534447748+532426668+530600456+529061738+527737060+526298590+524945925
3020+523792260+522625498+521422332+520078183+518654802+517466626+516599460
3007+515846336+514993562+514049456+513042551+512046354+511211409+510332689
2993+509150489+508058377+507562569+507407193+506945200+505862002+504622134
2980+504072940+504139473+503895603+502630785+500680122+499308682+498836729
2966+498290125+497016393+495260747+493701262+492392272+490994289+490036089
2953+489797448+489429576+488771868+488450908+488093743+487019858+485634623
2939+484564324+483714687+482784525+481791813+480838792+479925761+479041514
2926+478152087+477120482+475720856+474082439+472779872+471799212+470583547
2912+469420022+468862562+468582387+468243250+467780410+466914140+465792298
2899+464919355+464268968+463567835+462882339+462451819+462207202+461841472
2885+461214989+460270533+459162685+458215789+457524865+456977564+456165278
2872+454955837+453868904+453143569+452548510+451877655+451183146+450554123
2858+449791985+448785330+447674891+446590299+445532001+444550594+443858973
2845+443438562+442987973+442419656+441948151+441400999+440481593+439657903
2831+439240928+438731326+437812169+436988677+436880661+437056853+436745704
2818+436166132+435913697+435961803+435738949+434951961+433954518+433088597
2804+432489405+432287616+432097778+431399932+430570216+430033622+429560274
2791+429125471+428919200+428823833+428523788+428035102+427739290+427437005
2777+426759427+426173830+425963127+425709048+425303477+424992128+424706874
2764+424311463+424003301+423844987+423610729+423243753+422823691+422380173
2750+422021215+421875700+421784815+421438257+420821087+420154565+419715878
2737+419673448+419699493+419475344+419249651+419118129+418884817+418550161
2723+418211074+418028507+418027611+417927712+417536111+417037912+416751339
2710+416627362+416495591+416450099+416409363+416181254+415816171+415448100
2696+415294442+415327360+415148902+414781578+414512484+414266547+414078951
2683+414108507+414115554+413899472+413688171+413569448+413362928+413170875
2669+413073466+412861816+412592573+412455101+412503307+412710250+412829621
2656+412801957+412884002+413010768+412967019+412963483+413159495+413239922
2642+413078720+412987810+413105662+413223663+413184619+413109521+413187632
2629+413361932+413483021+413725895+414244088+414687556+414817484+414955230
2615+415343944+415832605+416288548+416676016+416966898+417319357+417803710
2602+418174072+418449914+418847965+419247460+419675390+420256356+420760680
2588+421163760+421501752+421527399+421427650+421707276+422303331+422758552
2575+422928619+422966567+423039125+423232498+423447086+423553708+423501169
2561+423332148+423379458+423745288+423917147+423747529+423631893+423590062
2548+423504406+423424029+423200477+422898191+422869556+423030012+423066864
2534+423005660+423055659+423247438+423356151+423250127+423130757+423145299
2521+423151573+423186483+423434088+423633935+423556496+423594892+423956788
2507+424147970+423944687+423786174+423840256+423920783+424071826+424286165
2494+424398961+424461859+424497167+424418632+424302599+424130938+423928950
2480+423996777+424354789+424594078+424426401+424096925+423993142+423918990
2467+423528808+423090120+422862784+422627628+422336697+422153982+422033914
2453+421757773+421263808+420810878+420496192+420207203+420002924+419874690
2440+419642323+419212450+418715447+418361121+418119492+417811380+417353544
2426+416684632+415899885+415343122+415111204+414916411+414551826+414119339
2413+413736751+413296619+412848097+412556095+412195494+411612138+411079627
2399+410624580+410071204+409631321+409376346+409011910+408532760+408027789
2386+407296826+406138082+404489505+402365265+399959258+397467743+394703798
2372+391566877+388558863+385977236+383268893+380313617+378332501+377858431
2359+378003249+378606949+380153311+382765191+386066203+388356402+387978694
2345+385481552+383185154+382047898+381806817+382214877+382537357+382361289
2332+382046429+382235793+382999923+383689777+384060636+384563317+385451498
2318+386479767+387318746+387932878+388632293+389584716+390518788+391109092
2305+391409136+391731092+392073790+392215944+392319727+392580579+392828384
2291+393023126+393282235+393526155+393705335+393904236+394110059+394209111
2278+394126493+393994249+393979185+394003163+394050897+394212721+394424321
2264+394664456+394952947+395130509+395115519+395201872+395605127+396076931
2251+396432951+396805678+397216428+397551532+397894827+398325970+398718941
2237+399129093+399671588+400213137+400790841+401530370+402247713+402859032
2224+403463752+404123999+404980010+405924490+406699576+407460867+408444764
2210+409662770+411089214+412544093+413881246+415305872+416880794+418461667
2197+420202074+422257565+424411262+426399025+428377177+430659208+433145917
2183+435580983+438058230+440884524+443957328+446810913+449410269+452136067
2170+455141989+458241835+461202688+463959561+466613498+469194080+471550562
2156+473567059+475253085+476629405+477665642+478302134+478423298+477987299
2143+477147723+475922545+474067997+471464457+468305898+464729916+460631085
2129+456070807+451310584+446420979+441381727+436381019+431522689+426676062
2116+421928438+417404763+412870507+408343247+404269440+400614624+396951891
2102+393269511+389718105+386331512+383207639+380270042+377320518+374469174
2089+371878632+369456938+367189597+365163314+363228338+361108008+358815593
2075+356740780+355101491+353607394+351948410+350137212+348348997+346767999
2062+345416106+344113340+342756542+341408060+339997129+338377511+336719548
2048+335300972+334076965+332872779+331657885+330499688+329500652+328595066
2035+327642394+326776921+326045211+325224235+324334360+323538707+322817729
2021+322114430+321316461+320379251+319528046+318771362+317852130+316797567
2008+315799179+314911470+314083472+313205350+312233704+311314572+310454901
1994+309275540+307814908+306786092+306314537+305945445+305485443+304969864
1981+304483294+303957059+303332294+302747195+302182564+301364027+300144253
1967+298991709+298595949+298646521+298391023+297792179+297128470+296505872
1954+295949034+295414482+294857445+294215101+293320371+292087475+291259750
1940+291560268+292038048+291957970+291700131+291455638+291140255+290794968
1927+290301874+289337698+288387590+288207265+288178630+288199695+288842463
1913+289326443+289049655+288712261+289020174+289593744+289917643+290128172
1900+290288951+290027053+289365959+288986783+288766667+288185577+288105299
1886+288805511+289341508+289619267+289838984+289925611+289957757+290033726
1873+289754672+288271532+286312503+286748601+289150774+290890310+291520029
1859+291857548+292331643+292885916+293339967+293546687+293342109+292676234
1846+291584022+291244810+293132999+295405941+296570188+297349955+298119115
1832+297796611+296524821+296730644+298313932+299693614+301171152+302529221
1819+303110734+303106128+302783524+301843924+300550322+300137655+300557667
1805+300572557+299456143+297637774+296704225+296973070+296929993+295628173
1792+294730132+296541080+298863649+299673669+299489061+299146587+299113694
1778+299844408+300265740+298898907+296482715+296575268+299081473+301431954
1765+302530665+302181568+301936901+302728470+303422208+303936168+303405998
1751+300471190+297482573+297816531+299480022+300354757+300367257+300036187
1738+299877525+298571273+295685742+295944876+299218797+302463360+304428390
1724+304941528+304924646+304096025+300841676+298201360+301540966+306656264
1711+310114220+311371344+310973069+310961267+312247698+312706081+312340874
1697+314925962+321413546+328407196+332857938+335527936+337344437+337870100
1684+340068940+347527199+355413064+361587805+366475716+371404189+375906051
1670+380499669+388484885+397260800+403551997+409269425+416735079+423960174
1657+428621994+430472658+435075365+444932161+451738066+458743768+470615817
1643+482174824+490545193+495812828+498727468+504008150+514096118+522528737
1630+528061656+532499973+536851440+540828809+545512441+550137010+552431839
1616+554030715+558158530+562365876+564685854+566042105+567807561+569690596
1603+571437875+573402980+575366889+576916612+578520867+580991589+584241532
1589+587944155+592096919+596738869+601977470+607623535+612466676+616297833
1576+623211006+633323177+641432544+649055715+659135914+669939905+679959149
1562+687565537+691696987+699478771+715025157+729899095+743234814+754765634
1549+765727790+774533758+779673806+782509712+787299567+802714880+818721666
1535+828208648+835624552+844991716+853814268+860785956+866418724+869652133
1522+872883151+880406623+888956470+897764580+907377756+914105425+915620238
1508+911798593+911804768+923733938+933574102+937956394+938729587+939708952
1495+942962380+944751193+941315298+935996070+937398635+941861902+943755394
1481+942385797+939836042+937444152+933156878+925276540+920000937+922170022
1468+924573166+922532964+920230216+921632980+921728695+915562570+911904069
1454+919632418+928624987+935058537+939673196+944983261+951949770+959145459
1441+965470047+970351434+974155151+979427468+985855540+990919892+996164819
1427+1002616995+1007182850+1009881009+1011691534+1011045331+1012101786
1416+1017724494+1022650901+1025227249+1026447048+1026380814+1025205935
1404+1024283939+1023881257+1022004100+1019051064+1016853195+1016363164
1393+1018814615+1020846550+1018384642+1012285149+1008707623+1010281101
1381+1013583333+1015162887+1014700744+1013221387+1012937329+1014951934
1369+1016317448+1015846640+1014461505+1011656973+1010701811+1014166092
1358+1017003790+1016655490+1015344955+1013899264+1011323613+1009203630
1346+1008527248+1007381551+1005187666+1001990612+998796645+998232910+999486473
1333+1000696411+1002095092+1003653231+1004522439+1004875520+1005817237
1321+1007616906+1009690873+1012176486+1015125636+1017752781+1020492274
1310+1024190316+1027791347+1031158319+1035495094+1039923900+1043556006
1298+1046386633+1048079730+1049889559+1052666999+1055280499+1057115625
1287+1058405343+1059377438+1060090971+1060757692+1061237464+1060963565
1275+1060242860+1059150848+1057395003+1055803398+1054727321+1053738096
1263+1052959922+1052297285+1051703969+1051748589+1052720982+1054365375
1252+1055843337+1056481672+1056577487+1056984651+1058446378+1060521242
1240+1061732376+1061476404+1061076710+1061769925+1062369018+1061729686
1229+1060929402+1061122626+1062335453+1063975065+1064947757+1065034209
1217+1066212575+1069102065+1071288978+1071688772+1071639072+1072063466
1205+1072475212+1072260475+1071514572+1071333101+1072483080+1073031776
1194+1072327605+1072848512+1073741823+1071753611+1068126385+1066437869
1182+1067054392+1067831470+1067709660+1067640736+1067333073+1065906006
1171+1064790787+1063857238+1061740244+1059969359+1059274551+1057607648
1159+1054391570+1051278080+1049208694+1047194089+1044228106+1041252163
1148+1038457790+1034510152+1029710735+1025048069+1020867168+1017306275
1136+1013537816+1007984031+1000610258+993444549+987727917+983032583+978294121
1123+972353889+965121348+958089601+952710812+948317664+943356198+937884284
1109+933012359+929517899+927296624+924921865+921560471+918531939+916599902
1096+915227715+914533305+915008895+916014653+916451797+917230966+919445170
1082+921954388+923788917+925323950+927257581+930070180+933506672+936810797
1069+939425193+941024268+942062197+944125308+947552837+950434259+951987020
1055+953759100+956268418+957916895+957794287+957197784+957770981+959803515
1042+962467511+964626337+966304096+967872594+968528758+968150577+967996496
1028+969347767+971669239+973051386+973303872+973278275+973702869+975149656
1015+976578714+977106692+977263662+976744946+975645264+975407021+975489490
1001+974611119+973756055+973309350+972141442+970515973+969066497+966971016
988+964381521+962950869+962561135+961256278+958670965+956520904+955271424
974+953397752+950294122+947366186+945720897+944449306+942690971+941304741
961+941385715+942924333+944426697+944527094+943865651+943341557+943135983
947+943770035+944784559+945180867+945900476+947822254+950036458+952010128
934+954246243+957090714+959902417+961352292+961406175+961523803+961808957
920+961130583+960278705+960801604+961775691+961644020+960511171+958745765
907+956991015+955991531+955137363+953734200+952146380+951009050+950388344
893+949980781+949965841+950441530+950348603+948965760+947686898+947558016
880+948034103+948842654+949573916+950591826+953616772+958322764+963339109
866+968985722+974137821+977558577+980827244+983706276+985320988+986592778
853+986386308+983964937+981671153+981253232+982146543+982841849+982829698
839+982947325+983284770+983745618+984975476+984833348+981758801+979365218
826+979350178+980070883+981480419+983573709+985406146+986414893+987161892
812+988874809+990604858+990730454+990128871+990238430+991926448+994592935
799+996405552+997480433+999053114+1001455163+1004799924+1009523445+1014691182
785+1017445316+1017645611+1018859235+1022194534+1025835107+1029649083
773+1033292743+1035096595+1035782938+1036612704+1037199645+1038041961
762+1039916231+1041673669+1042296069+1041790799+1040382656+1039643028
750+1040747391+1043445749+1046347291+1046474381+1043613774+1041157443
739+1040795099+1041482338+1041139914+1038251519+1034695806+1033490249
727+1033741141+1033486763+1033170235+1033358977+1033024122+1030272279
716+1025280834+1021375923+1020773743+1020829320+1018808439+1017038949
704+1017277291+1017953275+1018910430+1019130545+1016412864+1013455049
692+1012852271+1012015433+1010103216+1010365562+1013459730+1015321151
681+1014252943+1012939321+1012538631+1013250769+1013545087+1009484601
669+1004007109+1007508043+1015923829+1020962983+1025443779+1029068316
658+1029154570+1026736983+1023579470+1022142344+1023509850+1025349857
646+1027899114+1030575461+1028983358+1026687482+1029896389+1033096033
635+1031818466+1029985033+1025605330+1016656486+1010336678+1008895170
623+1005703095+1000544721+999040365+999894235+1001008657+1007384738+1018814714
609+1026059904+1027229504+1027655094+1025350952+1016070938+1003975038
##END=
