##TITLE=Sample description
##JCAMP-DX=4.24
##DATA TYPE=INFRARED SPECTRUM
##DATE=24/8/2023
##SAMPLING PROCEDURE=Instrument type and / or accessory
##ORIGIN=Default
##XUNITS=1/CM
##YUNITS=ABSORBANCE
##RESOLUTION=4
##FIRSTX=4397.6552
##LASTX=599.8556
##DELTAX=-1.9287962
##MAXY=1.4424686
##MINY=0.54088348
##XFACTOR=1
##YFACTOR=1.3434036e-009
##NPOINTS=1970
##FIRSTY=0.67921627
##XYDATA=(X++(Y..Y))
4398+505593598+505927026+506735640+506031425+505142593+505514755+505533346
4384+504024377+502508354+502712138+504122298+504949458+504674329+504522146
4371+504591937+503546663+501858623+500944013+501169804+502262642+503041351
4357+502488654+501485086+501384103+501870159+502035342+502179495+502649845
4344+502874837+502590347+501804316+500537155+500013564+500897382+501382240
4330+500569012+500292419+501486018+502024162+500405248+498996818+499721931
4317+500894676+501124859+500944147+500548292+499632750+498666407+498569018
4303+499362591+500239266+500498022+500120536+499437219+498206573+496495151
4290+495445972+495752247+497083476+498613342+499258858+498905730+498578868
4276+498792857+499193326+499403499+499508386+499388680+498834874+498738461
4263+499713989+500668663+499921278+497551429+495950485+495885796+495657698
4249+495250618+496000888+497224568+497464201+497023623+496317367+495422102
4236+495045281+494607499+493344508+492444540+492806630+493698479+493994860
4222+493821868+494375940+495542429+495872929+495202212+494750986+494466585
4209+493325474+491939362+491427750+491481657+491587875+491744096+491666407
4195+491386620+491705230+492484294+492556348+491646663+491014591+492095405
4182+493586582+492996527+491492705+491454770+492399284+493000875+493028872
4168+492473734+491411955+490655385+490629252+490611771+490188541+489845795
4155+490243025+491195392+491454282+490421120+489115669+488642170+488587818
4141+488198885+487855563+488158954+489111986+489639260+488825234+487906719
4128+487969146+488260468+488136193+487667441+486718090+485495253+485402257
4114+486600692+486777322+485191596+483965920+484376771+485463042+485852374
4101+485478881+485431718+486058732+486377962+485864265+485185296+485007334
4087+485144299+484959328+484270242+483499209+482738113+481839299+481417710
4074+481875814+482531179+482631230+482434367+482825652+483466687+483299285
4060+482578210+482151652+481952305+481524461+481362161+481704064+481697364
4047+481310649+481020036+480959385+481433328+482210751+482505978+481896756
4033+480913597+480679065+481151811+481179097+480507138+479822135+479768759
4020+480530831+481270851+481095596+480443736+480239464+480350961+479998588
4006+479582545+479584409+479240864+478448711+477967048+478167016+479048128
3993+480392135+481266148+480652578+479268728+478350435+478363036+479156698
3979+480020949+480575465+480255747+479168278+478593308+478322572+477640985
3966+477566047+478662079+479396287+479319086+479334127+478768164+477668493
3952+477898588+479862776+481610801+482220112+481645631+478997016+476327237
3939+475935376+477155240+478776460+478825310+476911835+476050334+477052483
3925+477702169+477291406+477521767+478323903+477735534+475462187+473619923
3912+473319682+474459861+476967029+479295926+478882190+476590741+474284384
3898+473106802+474454359+476263835+475077823+472883674+474227770+476386691
3885+475899260+474564925+472152793+470369362+471768341+472792852+472120005
3871+470912653+469734273+470913496+471678274+469697270+469299685+472093029
3858+475881424+476782279+469173146+462834501+465021996+468258625+470326546
3844+471324303+471566155+470944154+468635934+467148572+467499837+467360919
3831+467395305+468558600+469644250+470908393+471298037+468346119+467149016
3817+467734324+466658346+467501656+469849542+470294202+467549529+465964780
3804+467644034+467545758+466909294+468250151+468423808+468237018+469009338
3790+469993251+470974014+471115106+470356850+470241448+469730768+468159195
3777+468032036+469415885+470521767+469509636+467364780+467057085+467717331
3763+468818687+470106257+469929716+469633069+471347241+473001694+470741746
3750+468631941+472417495+475846328+475663175+478254999+484061312+489158440
3736+489364442+483979984+481440205+485061774+490069767+491758472+489896597
3723+486754605+483141511+481244141+482712956+486361369+488767377+487485930
3709+487338627+490776466+495604234+500589599+505737751+511350706+517139848
3696+522807643+528125060+531801779+531791619+531455262+534404473+537588082
3682+538991276+539123627+538489559+534421023+530106730+531372160+531471723
3669+529276376+530330613+532512250+534057956+536413207+539831924+542854476
3655+546287879+551652770+556580145+556240505+553727170+555097132+557812211
3642+559265852+558976349+558425205+558211038+558295338+559672577+558941076
3628+552396518+549318417+550959958+552561036+550899040+546678675+545227386
3615+545048182+543684608+543541698+543507534+541116833+539231265+539041901
3601+538898813+538995181+540088462+540128216+538281604+537874436+539069853
3588+536754223+531367901+529276420+529497463+528562843+526690320+526041521
3574+526936254+529166786+532845590+534989337+530690973+525423292+524612282
3561+524807326+523912371+524074848+525409627+525325815+524621201+526585832
3547+529786967+529319990+525469258+523062894+523828471+525082277+524089756
3534+523291436+525085959+527192526+528452055+529936355+529855072+527382644
3520+525407497+524886923+524407922+524182708+525512251+526913360+526011617
3507+525271464+526966558+527954952+526222899+524156619+523237573+523552544
3493+524927520+525913563+524995315+523470950+523806331+525822120+526897565
3480+525601387+523898528+523407903+523707922+524585129+525345736+524762957
3466+523813696+524259155+525281890+525204867+524116555+522797926+521991886
3453+522026715+522761455+523776382+523823102+522781377+522447194+523782106
3439+525071761+524244513+522690111+521991620+521343664+520795271+520909874
3426+521558407+522147353+521343220+519649501+519520789+520615845+520512156
3412+519515198+519429656+520040697+520910540+522290929+523107085+522533047
3399+521061170+519515110+519561519+521062501+521465810+520443962+519337991
3385+518529643+518477111+519350148+519802927+519095518+518601831+518942891
3372+519125112+518597172+517585751+517119439+518072205+519284882+519275787
3358+518773182+518949191+519456366+519168770+517980274+517030391+516308030
3345+515290530+514922228+516027089+517638859+517671248+516153938+515055688
3331+514715782+514608765+514703847+514685833+514033396+512829859+511728858
3318+511436515+512163491+513042650+513276560+512925961+512033669+510886435
3304+510256049+510406503+510618450+510051955+508854807+507923781+507804341
3291+508294124+508854319+509181270+509127540+508707770+508229257+507684857
3277+507046751+506693401+506830855+506854547+506199093+505632376+505497186
3264+504878779+503851917+503526165+503567205+502770127+501923579+502231362
3250+502916099+502741332+501573823+500047816+499105432+499248343+499820650
3237+500546650+501622495+502066844+501252551+500815966+501786835+502219161
3223+500992064+499290182+498269310+498091792+498018939+497616163+497344318
3210+497990366+498620042+497407232+495442157+495296096+496594048+496849877
3196+496149699+496249084+496633359+495416822+493576999+494012740+495991127
3183+496362889+494709590+494383128+496843709+498246061+496439380+494852989
3169+496710515+499234056+497867820+494120422+493694131+497579692+499401635
3156+496021785+493399126+497088490+502586132+501376871+495571845+495106953
3142+502079977+505302186+498433606+492010262+495771015+504160899+504076288
3129+496281518+493666001+501270653+508226329+502933492+493208075+493400190
3115+503831375+508390403+499158230+490947018+495788274+506340229+505078703
3102+492541174+486748128+494852589+504770387+500582056+489369234+488205984
3088+499082715+507126969+499754187+488159308+486475573+493577930+497286151
3075+490729702+483716791+485747310+494243678+496829689+489277392+482802226
3061+484662503+491598657+493406934+487253883+481767067+481494157+483774559
3047+483512697+480481981+478506612+478834627+480178723+479998410+477852711
3034+476441086+477595995+479898936+480308856+478685328+478107385+485142081
3020+515531849+574654360+621685023+612184776+573944777+542497000+522531006
3007+508831381+498768543+492438328+489205160+486786906+483497922+480562155
2993+479872271+482854713+486560361+484649015+479228397+477448958+481801231
2980+488237086+488310516+482120772+477926229+479401744+485060266+487896470
2966+483426001+477945973+478213026+486716937+495451607+491442835+480850815
2953+476626102+481931363+491444255+492172340+482937416+476248794+478175801
2939+486345573+490456792+484309553+477049599+476688573+484080301+492787729
2926+490639767+480290842+474694481+478011328+485481810+486516480+478675034
2912+472002784+472327206+477813267+481895336+479256881+474195203+472840725
2899+476287572+481457864+481789207+476359094+471925184+472444959+476611017
2885+479535604+477301123+472969127+471363791+473106581+475317501+474724296
2872+472128302+470605979+471059024+472711480+473589885+472060507+469631294
2858+468818332+469970668+471386773+470997840+468563613+466017445+465443939
2845+466795045+467995165+467814009+467059747+466891058+467387141+467879763
2831+468016019+467910422+467840409+468067442+468510460+468706124+468298512
2818+467549884+467134729+467374851+467894494+468123789+467870357+467209357
2804+466456736+466213420+466476835+466609630+466517743+466364317+466110618
2791+465910162+465841391+465887224+466105560+466450480+466768957+466766782
2777+466518142+466501593+466601377+466577329+466728049+466963334+466910713
2764+466772151+466850994+467054955+467214992+467260336+467165299+467053136
2750+467124613+467374186+467585734+467712938+467914592+468120506+468181468
2737+468190165+468263328+468357078+468437208+468679060+468921001+468768462
2723+468570135+468615835+468536948+468289062+468246557+468657186+469155665
2710+469243337+469172614+469274173+469466421+469595311+469733208+470128530
2696+470569197+470662548+470449048+470173431+470139312+470542399+471151532
2683+471599919+471859385+471977317+472103678+472501174+472831585+472750702
2669+472687566+473011322+473497067+473824816+474056330+474507202+475170509
2656+475548483+475481487+475343856+475278590+475402201+475845973+476369831
2642+476802378+477132346+477420119+477855151+478346797+478631154+478815549
2629+479131896+479497802+479789701+480219320+481011252+481839520+482216962
2615+482179072+482118331+482483971+483358827+484150936+484407784+484370470
2602+484390924+484685486+485294753+485983705+486603709+487050365+487286715
2588+487526882+487799348+488022920+488237929+488463365+488755442+489167136
2575+489689885+490184814+490429905+490499741+490789289+491437733+492145009
2561+492652317+492948787+493165082+493427521+493777987+494236446+494748368
2548+495250884+495705305+496004925+496257115+496744990+497338949+497773848
2534+498157502+498526913+498747690+498910167+499254155+499733910+500085308
2521+500376320+500747284+501097173+501315643+501479540+501912398+502436699
2507+502483951+502251683+502277017+502661114+503230361+503694676+503817931
2494+503670362+503518267+503473366+503647290+504054548+504336730+504457324
2480+504640432+504684091+504502757+504341300+504326126+504525340+504800646
2467+504870881+504850206+504920574+504988280+505020802+505048444+505068853
2453+505083007+505073556+504989034+504724111+504279362+503874944+503714331
2440+503727109+503667611+503348780+502791602+502290106+502229987+502615992
2426+502913082+502757083+502310072+501791583+501340401+500970501+500521981
2413+499977138+499599119+499536471+499416277+498853331+498202314+497962148
2399+497996799+498083983+498485295+500086151+504413754+512937808+526311059
2386+544016395+564468578+585860970+606769482+626131799+643784825+660750540
2372+678164775+696386382+714559760+730948508+743294721+750408658+753682690
2359+752800025+744948508+730785543+713517635+696103622+685164065+686699743
2345+695908312+697640587+689596555+681051737+674469244+671161936+674263863
2332+680562531+681344657+676897792+676067570+680279505+681865054+676303078
2318+665990002+655943980+652584096+656361753+658409975+652122576+639029511
2305+623875800+611584117+603406669+596348369+588402347+579544333+569554170
2291+559101778+549613378+541410596+534208675+528096088+523166938+519096805
2278+515466539+512346998+509885219+507705045+505643690+504024909+502836813
2264+501784217+500772618+499799620+498941402+498435824+498287013+498044584
2251+497438246+496897395+496831952+496853204+496589700+496310623+496240432
2237+496360715+496653946+497087203+497479996+497657825+497782811+498038994
2224+498363726+498678298+499091234+499780231+500632947+501406376+502064892
2210+502730196+503495772+504170349+504599125+505174849+506103080+506933701
2197+507505387+508135507+509008322+509975597+510834303+511700817+512601939
2183+513353317+513983482+514602997+515300690+516099454+516911041+517704702
2170+518495879+519161849+519658774+520247321+520967597+521611072+522179608
2156+522628350+522773391+522633408+522441515+522361874+522285383+522094022
2143+522030886+522199042+522193584+521742757+520938004+519974722+518956467
2129+517844729+516666659+515431133+514084553+512652208+511210369+509843912
2116+508468714+506870742+505027191+503088249+501269322+499743937+498495944
2102+497483856+496452070+494967947+493221386+491692940+490381588+489096635
2089+487685144+486015694+484307290+483037866+482137321+481082330+479801903
2075+478566864+477505750+476577830+475788383+475357078+474982831+473939153
2062+472522338+471387661+470535477+469930958+469547216+469293695+469187211
2048+469230248+469352217+469629652+470218776+470813534+471202378+471594772
2035+471982375+472387990+472989892+473797662+474690487+475564456+476288370
2021+476955227+477746626+477951741+477049377+475946867+475239945+474615638
2008+473781690+472667955+471391166+470107722+468816824+467501523+466442361
1994+465731846+464565179+462571574+460445797+458438926+456723644+455379992
1981+453964241+452449949+451110733+449921084+448736626+447812033+447456731
1967+446981767+445680487+444193569+443164045+442484588+441930250+441204117
1954+440200593+439361631+438887732+438500574+438345373+438546983+438326472
1940+437510626+436868172+436508699+436249411+436013903+435829198+435844904
1927+436246749+437127195+437846096+437814017+437482142+437245969+437165751
1913+437246856+437539865+437893792+437853638+437661922+437858696+438254995
1900+438680354+439274048+439588664+439283143+438991554+438829831+438521205
1886+438458867+438562024+438723702+439196536+439485374+439283809+439353068
1873+440395503+441861700+442132969+441366860+441735029+443157878+444173116
1859+444180658+443835295+443848250+444327828+445486863+447430509+449205466
1846+449870238+449443858+448556623+447785279+447384721+447776760+448655919
1832+448359139+445993772+444119519+444278491+443964362+442366036+441236949
1819+440899395+439752960+437632994+435805727+433878276+431678669+429877756
1805+429063907+429556351+428749157+425234472+422679873+421689837+420090668
1792+417689806+415721580+414963280+414951655+414308580+412950464+411665156
1778+410461442+409295485+407602033+405282986+405283519+407023869+407026664
1765+406013201+405373143+405025162+405148994+404925777+404571717+405655592
1751+407066285+406329237+405051295+405257297+405410590+404246940+402785668
1738+402621726+403397552+403944969+404425922+404678423+404301025+404417315
1724+405253792+405985959+406549349+407017923+407155687+407161499+407329345
1711+407796677+408309842+408419964+408873320+410203307+410415343+408989743
1697+408989432+410241863+412064161+414395941+416677053+418160732+418291441
1684+418373611+420935309+423273034+423982884+423924140+424367025+425521180
1670+426679506+428357074+430909055+433200060+434999065+437288119+440109637
1657+442547192+443230509+441776025+443459628+446344948+447661313+449368919
1643+452564108+455351729+457065059+457488067+457109649+459089588+462592605
1630+465318421+467059348+468789271+470830128+473339381+475751690+476989169
1616+478300122+481730552+485353141+487825392+489751823+492051835+494806446
1603+497766927+500628066+503283159+505821163+508561710+511794301+515158268
1589+518365259+521609475+525271641+529347853+533336615+536773212+539387486
1576+542362519+546977363+551582935+555807115+560604358+565773141+570575486
1562+574602671+577751362+582805631+591381595+599779243+608076131+616196876
1549+623832186+631278088+638572960+642790530+643551802+650931418+662104841
1535+670710709+677959571+685058069+691841285+698446006+704170104+708632632
1522+714388276+722330704+731039020+740291469+748844140+756628041+763525993
1508+766825936+766958331+773552715+782693844+789807693+794238852+798609049
1495+804994990+812036785+818628151+823862201+829003520+834652059+839526281
1481+843627073+847552610+851370775+854464139+856613521+860661692+867880516
1468+874033435+876662616+879517811+885728497+890930335+891154750+892199182
1454+900272186+908696411+914953861+919405075+923759831+928912420+935004554
1441+941838084+947215443+949527302+951520241+955487662+959917490+965507196
1427+972455551+977771238+981014389+983558738+984794664+986522546+991725893
1414+997833023+1002233657+1004679064+1005272802+1004152234+1003205235
1402+1003911225+1004342131+1003603575+1003019687+1002736262+1004118425
1391+1006588768+1005966191+1001043608+998438651+1001083894+1004636648
1379+1007032718+1009049705+1009401546+1008199784+1008955378+1012028687
1368+1014929847+1015719160+1013969715+1012395258+1013700044+1014883615
1356+1013553362+1011366888+1009366140+1007637637+1007553248+1008459783
1344+1008540711+1007446409+1005186017+1003107092+1002890930+1003994105
1333+1004712429+1004379844+1004182848+1004271408+1004360144+1005875413
1321+1007946796+1008272548+1008941002+1011936578+1015480103+1018563883
1310+1022854306+1030531811+1038814855+1042109651+1041028482+1040230384
1298+1042022600+1045212776+1047783569+1049709511+1051487885+1052961891
1287+1054518600+1056705784+1058226555+1057568305+1056751927+1058081026
1275+1059711298+1059823107+1059787079+1060234934+1059846977+1058026276
1263+1056027746+1055584240+1056541621+1057488087+1057896543+1057813751
1252+1057433869+1057984126+1059936690+1061151762+1061249373+1062313415
1240+1063442413+1062800580+1061373160+1060512946+1061014131+1062720451
1229+1063602760+1062778396+1062074625+1063008668+1064707178+1065948428
1217+1067110880+1068174922+1068449651+1067967012+1066949734+1066442869
1205+1067646761+1069358582+1069747959+1069702969+1070656446+1071912337
1194+1072138350+1071350278+1070860274+1071007488+1071188689+1071252934
1182+1071213358+1072001074+1073565326+1073741823+1072329844+1071013522
1171+1069987814+1068976393+1068415399+1068153004+1067662379+1066645366
1159+1065139770+1063573477+1061999908+1060083815+1058003116+1056740835
1148+1056646242+1056388816+1053968699+1049667894+1046726270+1046251972
1136+1045701982+1043082295+1038885578+1034070544+1029147162+1025249755
1124+1022594662+1020608822+1018633542+1015153907+1009629955+1003062990
1113+997529809+993458922+989207454+985213590+982202397+979880599+978104001
1099+975950714+972832416+969275669+966236257+963384080+960222478+958689994
1086+958977678+958296713+956365801+953852065+949858645+945858924+943994920
1072+942996276+940936873+938630427+937820083+937517313+935839745+933725946
1059+933016851+933379429+932826954+930664350+928212909+926186338+924036690
1045+922502077+922822416+923377110+922596315+921479297+920724945+920472134
1032+920176730+918837248+917595910+918157791+919515286+919782916+919414303
1018+919255908+918942224+919197076+920637007+921492785+921079360+921745329
1005+923975994+925508833+925915869+926093431+925854285+925152200+924723513
991+924595377+924122321+923475430+923011159+922139764+919868813+916864985
978+915184222+914742224+913981839+912294154+909898794+907999738+907390028
964+906962228+905288919+903061538+902111699+902239214+902350224+902776515
951+903432368+903385693+903216649+903716681+904269866+905197165+907550287
937+910789711+913610653+915832444+918523830+922199218+925982687+928987935
924+930814227+931444701+932126289+934173623+936812832+938486319+938934351
910+938829020+938541513+938035270+937439225+936965371+936262575+934823797
897+933740588+933773864+932972039+930806418+929610158+930226523+931883505
883+933536848+933101328+930430706+928618347+929734478+933197075+936558956
870+937723804+937938369+939878865+944117820+949614796+955179834+959676037
856+962911734+965035649+966140776+967592953+969832581+971750271+973992116
843+977718173+981578400+984302796+986376663+987653851+987971085+987959106
829+987878710+987608773+988030006+991409901+997116474+1001541155+1004322786
816+1007649794+1010922228+1011722456+1010673321+1010757444+1012915699
804+1015372199+1016198072+1016479457+1019283095+1024405336+1028957443
793+1032502210+1036175114+1039971450+1043168636+1044503414+1044699434
781+1046316839+1047895288+1048175164+1050301652+1053643212+1056437533
770+1060333254+1062753106+1060314620+1056335574+1054101715+1053406107
758+1056188005+1062194419+1064499800+1059735080+1052667374+1050632906
746+1055672622+1061002241+1060460591+1055979119+1052706862+1052152701
735+1052711565+1053049829+1052377915+1050769827+1048999351+1048842908
723+1050619773+1051151573+1048800048+1046135017+1045720616+1047201988
712+1048357873+1046749253+1043132431+1040834504+1040771501+1042223234
700+1043736462+1042666208+1038390605+1035030232+1035215071+1035832856
689+1037283436+1040399339+1040144043+1038164060+1039191809+1039403002
677+1038188107+1042328742+1049637812+1051635987+1049300879+1049549696
665+1052087213+1050477617+1042602051+1035645622+1038828432+1048309689
654+1050864953+1043107141+1034461873+1028966139+1023777168+1021013817
642+1023556746+1030364719+1041773960+1049025528+1039579411+1026951903
631+1023456917+1022136603+1028247460+1039057373+1028570906+999353882+975656286
617+968716627+979108678+998362693+1015877023+1027304543+1034783544+1040998046
604+1038565327+1020612371+1003000963
##END=
