##TITLE=Sample description
##JCAMP-DX=4.24
##DATA TYPE=INFRARED SPECTRUM
##DATE=24/8/2023
##SAMPLING PROCEDURE=Instrument type and / or accessory
##ORIGIN=Default
##XUNITS=1/CM
##YUNITS=ABSORBANCE
##RESOLUTION=4
##FIRSTX=4397.6552
##LASTX=599.8556
##DELTAX=-1.9287962
##MAXY=1.4841391
##MINY=0.52556199
##XFACTOR=1
##YFACTOR=1.3822122e-009
##NPOINTS=1970
##FIRSTY=0.77266294
##XYDATA=(X++(Y..Y))
4398+559004557+559529489+559111328+558175481+557425406+558679369+561175221
4384+561076815+558716756+557584830+558146632+558812445+558444005+557320790
4371+556492922+555452890+553711425+553258939+555035807+556542987+556642730
4357+557001424+557415099+556509265+555399374+555222313+555178802+555028692
4344+554122168+551519716+549281522+549495324+551401690+553563342+554754863
4330+554332305+553127544+552480403+552536505+552324169+551879446+552123433
4317+552768764+553350057+553868305+554121607+554215744+554242610+554167274
4303+553720222+553071657+553188994+553575761+552443231+550347427+550282700
4290+551962974+552382040+551780220+551499406+551565297+551536577+550942563
4276+550712029+551193709+551101082+550173600+549255433+549129903+549941816
4263+550905564+551253089+550426730+548769613+547731737+547281321+547058852
4249+547698748+548653354+549264618+549257416+548329546+547839846+548935808
4236+550240569+550381537+549497911+548012552+546663848+546085660+546456989
4222+547186150+546932718+546242195+546698217+548061324+549042191+548678926
4209+547178862+545869874+546104332+547596073+548241318+547392923+546492651
4195+545681514+544540920+544198095+544479729+543928536+543129042+543109033
4182+543661865+544528587+545432136+545907822+545801223+545159083+544008011
4168+543240816+543799168+544449802+544087701+543957557+544647951+545438432
4155+546033395+545830762+544584172+543565098+543458111+543437628+543072034
4141+542695358+542177972+541328542+540647032+540217962+540086006+540913142
4128+541845022+541656231+540889597+540254098+540504986+541731351+542630544
4114+542929384+542932575+542191901+540992703+540332970+540508220+540880929
4101+540875711+540791148+540783515+540419560+539893766+539463962+539058178
4087+539102206+539637013+539770694+538864385+538103012+539076074+540462510
4074+539985703+538149713+536917656+536855862+537206621+537794771+538826696
4060+539519418+539290997+538556403+537589507+536968929+537136159+537169363
4047+536674315+536379486+536801527+537922759+538571496+537890503+537044566
4033+536843097+536458702+535710956+535494049+535754509+535569082+535041304
4020+535281368+536334940+536824167+536287031+535676199+535546874+535543079
4006+535415134+535288224+534965796+534521849+534763810+535903067+537042798
3993+537326761+536917398+536514115+536287850+535933641+535349286+534681618
3979+534212185+534113995+534034865+533724554+533483326+533354734+533233042
3966+533259347+533238734+533111868+533179958+533201821+533131100+533105097
3952+532860592+532410090+532172829+532627730+532916910+531871315+530833526
3939+531426592+532799875+532963439+531687829+530841676+530948448+530624769
3925+529611430+530028857+531869763+532031947+530311483+529917558+531082645
3912+531524954+531434440+531791539+530846376+528035254+526305002+526166147
3898+527471598+530149946+531440951+529094821+527192595+529218842+530494323
3885+529174727+528773385+528196102+528211152+530107384+530601655+529231994
3871+526683316+523775427+523784656+524634085+524886267+526282535+527849439
3858+528516417+526803887+519822892+516978134+522021371+527309759+529846578
3844+528881407+526135659+523447480+521122565+521849570+524699847+526064550
3831+526295730+526486073+526390729+527047875+526090553+521735640+522124003
3817+524716579+524522700+526228502+529275979+529705610+526288097+523693839
3804+523541616+521776865+521285267+523228373+525207573+528109598+530777380
3790+531647595+531458804+530527614+529350624+529022375+528202613+527080692
3777+527924257+529466883+529714191+527980446+526303578+526475163+527194147
3763+528318010+528411931+526215263+525249790+526211425+525098516+519679725
3750+517373138+521734174+523241181+519554971+520285943+524143996+524990968
3736+520466454+515460347+516556956+521321145+525408094+527061157+526710570
3723+526045619+526078392+527123383+528705122+529419664+526798152+522099207
3709+521995368+524816882+527093844+527595102+526178264+525931085+527434340
3696+528558332+528361262+525645009+520200129+518400664+522000931+525720905
3682+527189490+527022045+525680758+520666328+515837497+515989979+515065041
3669+514551623+517885435+520547051+520455415+519024476+517422298+515187165
3655+514147650+515164482+513237633+505477886+501527033+503873293+506181561
3642+506031020+504211331+501926909+499442657+497576826+496407469+491299032
3628+482810038+482109553+484803123+484109280+478768583+472941679+471668138
3615+471389394+469101177+466012086+461934323+459109962+460068708+461197357
3601+459678750+457312869+455203223+452430653+450112164+449307754+447475128
3588+442590497+439663591+440790601+441711744+440624967+438689493+436747896
3574+434947311+433721722+432499756+428968270+423794070+422021730+422868788
3561+423604287+423910544+423794286+422658910+420674319+419630493+419825666
3547+419307892+417719599+416366195+415618966+415115336+414266683+413231308
3534+412655405+412018699+410904540+410154292+409820135+408679239+407029841
3520+406417327+406504176+405988213+404980955+404255157+403824060+403168984
3507+402229471+401051490+399740389+399083373+398930934+398436102+397969730
3493+397676065+396609340+395122817+394516685+394564810+394238457+393571264
3480+392918818+392046965+391174723+390702961+390650222+391063165+391334234
3466+390699468+389241794+387614388+386753229+386696652+386637100+386295957
3453+385872320+385622769+385352778+384767518+384089112+383295871+382724496
3439+382810914+382873356+382564554+382261488+382062564+382015560+382151353
3426+382271062+382059674+381256343+380324462+380232482+380792429+381110416
3412+381029561+380887213+381086138+381696107+382229017+382288914+382145618
3399+382159331+382104220+381874808+381881966+382370416+383048865+383365471
3385+383314112+383734040+384890719+386036056+386909506+387756822+388570892
3372+389086078+389332481+390123997+391653772+393029126+394115903+395569697
3358+397547689+399626071+401136010+401926405+402798388+404180426+405471000
3345+405985195+406145611+407191292+409016889+410277062+410188747+409276272
3331+408854403+409102401+409381793+409763213+410461541+411344261+411776997
3318+411389928+411126449+411570138+411838878+411384020+410723209+410347093
3304+410348732+410905057+412176528+413553736+414202042+414248183+414307089
3291+414634088+415304041+416299872+417235720+417842930+418202659+418394598
3277+418773991+419684396+420892218+422114055+423458619+424777655+425448298
3264+425289305+424730953+424361004+424639317+425669862+426919211+427485972
3250+427607319+428173778+429021311+429447794+429369224+429460903+429869533
3237+430085146+430210245+430465962+430956439+431494437+431375376+430911937
3223+430727846+430830780+431792242+433073761+432978158+432143778+432183494
3210+432818604+433427410+433946132+434234019+434407846+434484001+434398877
3196+434656448+435339770+436035510+436797056+437462741+437643769+437742089
3183+438183406+438676169+439002348+439168543+439291270+439654880+440166875
3169+440524103+440881504+441520279+442276737+442803825+442828060+442334952
3156+442006573+442382085+442910467+443050486+443236431+443903107+444585092
3142+444834988+445069187+445508693+445568719+445024037+444664222+445348406
3129+446496072+446702672+446054453+445685194+445878124+446118921+445909173
3115+445430080+445485751+446422116+447419629+447406348+446414441+445519775
3102+445632756+446375156+446809789+446879303+446910006+446883399+446784390
3088+446731608+446933206+447534379+448078543+448141028+448344998+449115815
3075+449570846+449262519+449137247+449337983+448917710+448123218+447936411
3061+448434047+449022714+449199172+448938970+448488855+448182253+448331932
3047+448754534+448856562+448550693+448432796+448763374+449199905+449378648
3034+449158205+448930431+449320864+450203972+450922482+451185487+450937488
3020+450291425+449915266+450173657+450707084+451261900+451708047+452043024
3007+452424918+452628069+452337896+451816112+451686313+452341562+453670127
2993+455055701+455928848+456400912+456941670+457750823+458615303+459345800
2980+459976253+460352886+460400192+460572682+461249363+462009270+462000387
2966+461116373+460163750+459507079+458836651+458274246+458306889+459126910
2953+460188934+460550949+460492819+460982348+461608186+461555491+461209345
2939+461087308+460892696+460612312+460951601+461647169+461646221+461217409
2926+461147723+461349882+461338239+460716885+459945075+459569477+458988917
2912+458372134+458912719+460161077+460936422+461322025+461511721+461379938
2899+461106411+460987393+461276832+461744626+461933461+461986674+462258045
2885+462646364+462882029+463076211+463197213+462853310+462416865+462673359
2872+463355300+463614726+463369100+463199283+463334084+463397000+463401830
2858+463935602+464560751+464089420+462765296+461833977+461562735+461587531
2845+462269429+463567722+464502966+464949717+465182665+465159422+465368826
2831+466079832+466743403+466948193+467147549+467846308+468649424+468998502
2818+468928773+469037873+469638916+470172473+470290715+470329827+470603440
2804+471015650+471437475+472165860+473223486+473891973+473730005+473447896
2791+473826599+474387927+474554984+474631268+474730364+474668483+474725577
2777+475270173+476165485+476926686+477135917+476758206+476354362+476668425
2764+477536052+478083494+478293286+478791525+479523014+480127033+480570463
2750+480838298+481026140+481325713+481498376+481382333+481396262+481752584
2737+482223785+482580798+482749709+483001114+483653603+484527181+485160265
2723+485285665+485050992+484957459+485314687+485984468+486701942+487287893
2710+487795921+488330512+488784594+489040095+489183262+489520266+490118506
2696+490575477+490761982+491058580+491594379+492034488+492178561+492211507
2683+492413019+492763779+492941616+492917080+493009017+493332954+493784103
2669+494143272+494144781+493989367+494210586+494834485+495439625+495773825
2656+495896164+496027602+496271590+496462020+496436448+496379655+496691087
2642+497384672+498011675+498437252+498930360+499375860+499459000+499461113
2629+499704842+499936756+500180054+500746082+501444927+501995086+502387761
2615+502758012+503321495+504080971+504714270+505019234+505317858+505916357
2602+506452803+506520635+506597781+507322069+508338513+509002300+509230289
2588+509328781+509658066+510123230+510525866+511043769+511593367+512032054
2575+512659186+513361740+513584339+513397877+513318574+513536689+513839798
2561+513939799+513974987+514411561+515205751+515748147+515853668+515971954
2548+516339143+516764030+517192670+517790522+518420414+518720419+518755089
2534+518809726+518995541+519477005+520084302+520397286+520762664+521509807
2521+522054230+522192223+522507018+523202025+523841793+524204627+524610497
2507+525114213+525479289+525761052+525879295+525819354+526026688+526524065
2494+526973877+527284705+527305662+527175216+527316572+527556722+527645684
2480+527749351+527824385+527824040+527898426+527980575+527962895+527868456
2467+527787558+527899936+528201363+528271265+527830422+527374400+527385224
2453+527546244+527424379+527109627+527039380+527305619+527348052+526792029
2440+526026559+525518617+525323660+525357856+525295414+524835296+524272028
2426+523912299+523613243+523207157+522852258+522782830+522828713+522643285
2413+522178121+521584711+520954905+520437260+520175247+519942040+519475022
2399+518975446+518712872+518464874+517912602+517245797+516723668+516166351
2386+515317395+514118284+512440037+510244663+507679815+504592665+500911586
2372+496991738+493187545+489701381+486360411+483342732+481230930+479790763
2359+478862591+479182475+481224547+484871645+489251482+492050142+491337670
2345+487692814+484182459+482824786+482940742+483363215+483511471+483430357
2332+483666410+484555470+485728362+486628418+487250419+488094071+489426172
2318+491125118+492870335+494298168+495171445+495590727+496153175+497246507
2305+498457563+499167189+499385907+499602987+500052670+500578550+500924006
2291+501125949+501532035+502138598+502492204+502525236+502721228+503123433
2278+503175827+502837487+502676036+502879747+503203296+503544224+503948628
2264+504346865+504682230+505101080+505634637+506148055+506644052+507130605
2251+507527721+507857782+508318116+508932743+509408903+509689459+509960269
2237+510213184+510522114+511171972+512093029+512860439+513330606+513766489
2224+514419323+515238912+516070963+516878349+517652271+518319292+518805241
2210+519293907+520047432+520871678+521519897+522198518+522947257+523538727
2197+524139770+524996790+525941607+526792072+527678458+528693522+529676200
2183+530523647+531324218+532193873+533181985+534223526+535066272+535654680
2170+536382418+537368806+538379126+539348997+540193037+540920818+541729152
2156+542494837+543119210+543885154+544655109+545047568+545242224+545482158
2143+545728044+545862414+545822655+545760601+545755685+545611397+545206260
2129+544653169+543938325+542971386+541944592+540999344+540022099+538821694
2116+537349961+535849767+534377000+532773139+531150262+529652612+528180060
2102+526618374+525032840+523495173+521999896+520552225+519033101+517395087
2089+515832409+514406300+512990497+511525406+510043712+508525018+506971956
2075+505583838+504391152+503177595+501879302+500442929+498886504+497460050
2062+496142912+494773466+493483582+492303832+491065566+489719234+488289287
2048+486873829+485623143+484481385+483242903+481939090+480748991+479622584
2035+478442231+477238635+476155696+475231147+474218886+472965138+471697031
2021+470712972+469895065+468887073+467775932+466829476+465965730+465045492
2008+464121072+463233263+462168910+460838835+459687763+459030315+458466831
1994+457455347+456078052+454968895+454231196+453469564+452741912+452169502
1981+451533961+450707127+449867012+449229142+448715810+448012264+446916302
1967+445767989+445155216+444944303+444589663+443935751+443145831+442470573
1954+441986435+441425323+440685209+439946820+439125507+437922169+436809044
1940+436686059+436954368+436661479+435980184+435375777+434864860+434302972
1927+433704732+432771385+431513411+430740610+430231289+429749350+429946981
1913+430146208+429371251+428251313+427902623+428105774+428106033+427915387
1900+427828840+427523963+426668065+425833771+425288787+424619136+424305289
1886+424640869+424915129+424921727+424836646+424663250+424387351+424079413
1873+423563709+422110260+420030800+419692719+421092264+422131132+422323588
1859+422270547+422265933+422174211+421901978+421519394+420904982+419880777
1846+418294941+417043824+417860696+419267141+419470939+419070804+418854328
1832+417920421+415865282+414874453+415406587+415812069+416310351+416959261
1819+417069525+416688278+416091719+415060183+413735412+413258432+413703544
1805+413947015+413278786+411637754+410211257+409972746+409802411+408349006
1792+406816901+407717906+409442768+409985682+409420301+408333481+407254467
1778+406813408+406284768+404131266+400884649+400570198+402970706+404873622
1765+405459832+404701304+403697452+403635399+403776151+404161150+404162487
1751+402021836+399033825+398735804+400185803+401058907+400678954+399814043
1738+399581439+398577760+395743696+395672889+398470082+400867529+401982594
1724+401864136+401253692+399843452+395929814+392182197+394000420+397597323
1711+399610073+399509036+397410732+395206345+394484990+392516613+388981937
1697+388754292+391765934+395389660+397253593+396962989+395652665+392516010
1684+388406853+390026367+393713224+395387245+394486801+392809244+391803322
1670+390340602+390530557+392921190+393749835+392695141+392916447+394010037
1657+393501362+389529724+383128728+383401263+384770450+383795663+385765160
1643+390249182+392912522+392954438+390532066+388964386+393533747+399120717
1630+402335294+404110524+406025256+408601791+412775372+417175693+419652442
1616+422629629+428794658+434588789+438401865+441609543+445344827+449071744
1603+452701463+456681036+460679195+464041123+467074758+470596196+474434801
1589+478225324+482054572+485870452+489465888+492627037+494731292+495342599
1576+497644356+503697697+508591729+511578791+515821628+521120021+525598049
1562+528275146+527239340+526698711+535829845+545774487+553711339+560050540
1549+565742254+570072069+571722243+570739220+570457543+580122621+592629955
1535+600693415+607381047+615131652+621807555+626486016+629980417+632587051
1522+636504441+644060132+652060417+660116072+668592086+675154490+678088900
1508+677566771+681694427+693874202+703401676+709141386+712390806+716698844
1495+723957334+730104380+733320295+736578642+743921479+752881502+760079275
1481+765202417+769586610+773259107+774849815+775625074+781177890+790639084
1468+798366231+803434780+808950942+815709036+820439073+822631342+829343899
1454+840644187+849780840+856848728+863568529+871314563+879540294+887516258
1441+894710408+899771799+904285791+912589142+922052751+928618346+934224549
1427+941466479+947675105+952451455+957572614+960997932+963274117+968343960
1414+974322742+978754111+981490501+983626625+986373106+990180749+993487393
1400+993208993+989953061+988712164+991306595+996304251+999411496+996663721
1387+990956008+990208692+994370200+998993292+1002121926+1002883386+1002168326
1373+1003980254+1009043973+1012735530+1012236342+1008978944+1004929383
1362+1003563948+1006478779+1009213186+1009708148+1009566188+1009342899
1350+1008467423+1007211174+1006145528+1005777002+1005165867+1003194214
1339+1002364534+1003910136+1005716371+1006574425+1005837115+1005003899
1327+1006513105+1009315387+1010499793+1010694449+1012759592+1016092973
1315+1018078684+1019369862+1022730065+1027854156+1032164351+1035104797
1304+1037096718+1038440679+1040627773+1044707261+1049147169+1052227678
1292+1054525597+1056722954+1058594563+1060311880+1062251105+1064860542
1281+1068286291+1070854676+1070844240+1068973666+1066700844+1065457187
1269+1065417256+1064685550+1063055860+1061712417+1061002877+1061371317
1258+1062127170+1062399274+1063137706+1064434318+1064457432+1063188505
1246+1063183848+1064631475+1065006383+1064181274+1063876397+1063983686
1234+1063750220+1064176186+1066033133+1067545617+1066883253+1064865027
1223+1063795844+1064219308+1064689000+1065101425+1066050900+1067023574
1211+1068051359+1069597392+1071119966+1072054693+1072581738+1072671950
1200+1072668587+1072760610+1072306356+1071947576+1072344218+1072858844
1188+1073369502+1073741823+1072826588+1070501846+1068638086+1068665857
1177+1070424657+1071453218+1069394716+1067006670+1067751915+1069774540
1165+1069287944+1066708347+1064849330+1063765141+1063011961+1062817736
1153+1062246879+1061123706+1060268153+1060009245+1059173269+1056602125
1142+1053934817+1052066140+1049909663+1048117917+1047291860+1046060191
1130+1042857041+1038466121+1035504113+1033577393+1030593910+1026359784
1119+1021391366+1016979488+1013731836+1010479267+1006460409+1001421011
1107+996774201+994921739+993692485+990069665+986632187+984981366+983864920
1094+983562113+983008850+980277030+976021602+971679841+967684615+963792193
1080+960264243+957770547+955695140+952775220+949162663+945631264+942520310
1067+940044122+937503508+934218425+930855463+928136063+926408656+925320585
1053+923057940+918681165+914072303+910926937+908908711+907670833+906812174
1040+905421383+903734770+903092415+903475172+903003238+901223997+899297536
1026+897463962+895595026+893669428+891925376+890814019+890287319+890126816
1013+889689294+888637792+887748775+887341180+887283223+887670723+888241840
999+888910672+889646775+889825648+889511111+889533276+890307500+891222477
986+890562873+888328516+886608354+885571858+884287407+882905067+881478053
972+879900627+877825651+875229409+873190485+871810474+870045205+867844139
959+865864896+864314637+863557231+863483147+862679944+862204301+864854533
945+869418116+873439216+876843921+879742280+882457799+885528994+889266951
932+893962231+898413867+900864613+902155188+904924351+909326915+913388033
918+916755049+919571561+920679554+919678936+918429759+918421739+918448906
905+917808190+917534965+917115036+915395133+913118430+911371790+910252499
891+909823170+910406533+911255359+910994726+909514757+906987770+904471046
878+903933307+904649488+905321252+906695743+908864726+910802140+912239677
864+913762768+915605571+918105046+921838863+926627374+931914814+937300746
851+942125134+945298961+947258626+949555338+952050069+953999817+955718426
837+958172364+962132230+966618451+968935948+968200275+966777142+968242018
824+974179144+981066175+985497199+988929675+992709806+996179454+998218896
810+998090563+997049669+997515652+1000282573+1004498760+1008731506+1011881184
797+1014397390+1018927165+1028475036+1037052561+1035811405+1031137600
785+1031060238+1033359106+1035193457+1036529397+1038957288+1042855144
773+1047209151+1051704255+1053711787+1051528228+1048967002+1048813831
762+1050477330+1053565170+1055781760+1054562338+1052049236+1052610434
750+1057165479+1061661187+1062872330+1060772774+1056570473+1053277197
739+1051662081+1049137595+1045216626+1042126457+1041450380+1041605708
727+1040407244+1039385151+1039503566+1039520297+1040706515+1042734142
716+1041564483+1037395645+1034688836+1034096331+1034211555+1036341555
704+1039206364+1038618172+1034725491+1031393059+1030270749+1029428995
692+1029332055+1032712698+1036055652+1032531238+1025403065+1024317237
681+1030183038+1035795191+1038014713+1040059503+1041743011+1038185738
669+1029808733+1026432834+1032199797+1038275347+1039523747+1035804333
658+1031798843+1030977702+1033387912+1037429367+1040153941+1042163974
646+1043867060+1043875080+1044549346+1043321558+1036450827+1029399844
635+1026847846+1026954532+1031081282+1039739360+1044555728+1037828337
623+1024027539+1004198627+979743862+968870401+992918692+1033091401+1038638870
609+1018884043+1018064195+1039730477+1057318996+1052610952+1040318325
##END=
