##TITLE=Sample description
##JCAMP-DX=4.24
##DATA TYPE=INFRARED SPECTRUM
##DATE=24/8/2023
##SAMPLING PROCEDURE=Instrument type and / or accessory
##ORIGIN=Default
##XUNITS=1/CM
##YUNITS=ABSORBANCE
##RESOLUTION=4
##FIRSTX=4397.6552
##LASTX=599.8556
##DELTAX=-1.9287962
##MAXY=1.4617759
##MINY=0.5347541
##XFACTOR=1
##YFACTOR=1.3613849e-009
##NPOINTS=1970
##FIRSTY=0.67577195
##XYDATA=(X++(Y..Y))
4398+496385669+496690219+496123150+494676756+493838936+494513141+495570660
4384+495545310+494381969+493184872+492975986+493074540+492652435+492802564
4371+494356138+496128272+496359356+495119789+494045327+493708027+493124189
4357+492045699+491850867+492278008+491681123+490970973+491270751+491381870
4344+490917077+490925089+491317729+491422106+491114842+490634462+490583236
4330+490240070+488702828+487452841+487504505+487834492+488159664+488911757
4317+489328303+489127429+488973096+488663730+488157431+488106074+488395826
4303+488207080+487974508+488529056+489067053+488943368+487981032+486623209
4290+486337179+486832533+487072854+487104903+487228019+488085409+489018455
4276+488663205+487623811+486496766+485147525+484403356+484859831+485689200
4263+485544412+484571218+484491359+485841913+487345268+487681473+486341908
4249+484038080+482701448+483386949+484590132+484491008+483463874+482964755
4236+483545397+484018597+482964712+481317707+480503836+480445606+481234914
4222+482535688+483328149+483768118+484127440+483821313+482962260+482350095
4209+482251103+482508149+482617649+482537746+482880299+483196627+482825308
4195+482197207+481725277+481383380+481120380+480905934+480862414+480990346
4182+480724281+480279277+480623362+481220028+480841749+479602226+478336215
4168+477500454+477366918+477899618+478444051+478402414+477941517+477985913
4155+478620888+478716027+478169273+477704786+477426724+477342881+477300587
4141+476904488+476438075+476408434+476576427+476480675+476420781+477024802
4128+477722518+477359125+476477698+476374284+476406070+475486859+474519882
4114+474613445+475090235+474701885+474103162+474545320+475056304+474680301
4101+473874049+473055143+472844287+473240474+473251595+472712371+472515964
4087+473165825+473982366+474207845+474285253+474403421+473777990+472809831
4074+472407515+471983395+471250040+471095532+471471667+471473374+471034062
4060+470943389+471714703+472493065+472035715+470740063+470135911+470751228
4047+471482656+471411948+470972986+470828723+471081741+471326791+470728768
4033+469277776+468689210+469450629+469626678+468758518+468311631+468768106
4020+469459123+469645548+469207812+468641049+468436454+468400728+467885541
4006+467459933+467800341+467646489+466735904+466683628+467791759+469164205
3993+470116252+470234946+469437013+468432208+468124855+468219163+468185188
3979+468719683+469891123+470055482+469083470+468411323+467724422+466428508
3966+465943837+467408313+468556812+467535019+466528113+466381661+466004257
3952+466458280+468472750+469642440+469475454+469421426+468139873+466389542
3939+466327590+467072415+468229101+468881371+467133141+465189861+465322171
3925+465807718+465381584+465638061+466840325+466656570+464402085+462699914
3912+462733539+464210625+466886559+469164161+469132682+467446535+465306059
3898+463702881+464034532+465345770+464248847+461568097+462442387+464638860
3885+464663904+464548668+463011864+460591049+461248442+462998072+464010058
3871+463360722+461494192+462768171+464233304+461914240+459790971+460083437
3858+461538719+462157057+457615162+453311488+455275958+458454864+460823621
3844+462323386+462917994+461558727+457904695+456298233+457142707+456967315
3831+456640874+457530575+458485862+459791540+460320562+457123530+455247500
3817+455207133+453900930+455110111+458026979+459053719+457188766+456531943
3804+458346284+457655880+456096309+456291534+456128751+456694989+457868006
3790+458528419+459424512+460218680+460064260+460146790+459601130+457363808
3777+456416489+457411618+458752978+459108053+458748206+458956698+458906698
3763+459419346+460854094+460827868+460222183+461813190+464137464+463768379
3750+463324076+467731953+471444215+469577510+469522082+473788410+478141165
3736+478291251+473616170+471278630+473782543+477987708+480718895+479910761
3723+476456901+472971782+471527139+472547268+475324514+477494149+476801644
3709+477100327+480562023+485357199+490011351+494177024+499076795+504836584
3696+510672641+516373324+520852960+521657723+520822312+522008639+523552974
3682+524332475+524814125+525227124+522264766+517419109+518374177+519677622
3669+517441657+517261186+519268782+521076337+522947376+526101064+530046380
3655+534594097+540432650+545365828+545541833+544006342+544679977+546019061
3642+547072902+547340806+547092604+546987833+547818516+550209514+550497646
3628+544477484+540534488+540806683+541627208+540589654+537140479+535104031
3615+534261351+532806507+532520827+532175910+530159426+529857415+531595662
3601+532014966+530612048+529689028+528566974+526374572+526169802+528444164
3588+527539008+522198961+519390497+519499691+519525303+519019573+518458896
3574+517441832+517510176+520739038+524071270+520626911+514961693+513902291
3561+514344712+513348006+512848712+514064899+515011867+515084677+516597840
3547+518597336+516740964+512136680+509769017+511041595+513338068+513339206
3534+512308263+512909789+514600269+516958037+519415672+519022726+515837734
3520+513500763+513104270+513225197+513177299+513543845+513972912+513879787
3507+515033758+517920942+519204291+516980366+513915294+512292063+511880290
3493+511831560+511996182+512626779+513427252+514028953+514915502+515385462
3480+514188146+513081284+513552820+513986047+513903473+514429212+514813840
3466+514103734+513162457+512625291+511884975+511248730+511610459+512233351
3453+512298981+511917987+510952498+509935872+509580052+509423925+510008332
3439+511915053+513353567+512774895+510945843+509921073+510274835+510535340
3426+510646547+511260595+511424034+510681704+510091343+510262444+510658193
3412+510839408+511068084+511375304+511084852+510229651+509837274+510005092
3399+510175361+510196027+509850233+508996653+508013870+507743164+508480240
3385+509093499+508662024+507969081+507565757+507017340+506562003+506674261
3372+507056087+507216068+507081218+506919792+506562791+505677643+504992143
3358+505456761+506604866+506920975+505695419+504211328+503896489+504276914
3345+504497752+504648320+504991705+505438767+505637932+505322437+504482122
3331+503642070+503437256+503200262+501927684+500805367+501083866+501448179
3318+500698450+499568165+499438088+500317938+500742758+500609178+500791444
3304+501102868+501058911+500570956+499822146+499351836+499293606+498925659
3291+498340639+498019145+497594675+497181764+497197262+497380842+497196431
3277+496527743+495646185+494810642+494450313+494987654+495952749+496269733
3264+495470442+493636968+491858573+491551089+492223543+492618635+492701646
3250+492927738+492975636+492511849+491931208+491985410+492448190+491821971
3237+490555829+490143793+490160036+489660567+488594116+488061241+488501692
3223+488457165+487140586+485908900+485417268+484863728+484578617+485529307
3210+487345487+488170259+487453279+486690678+486501013+486039328+484955320
3196+484869989+486456005+487447894+486048916+484061460+484087204+485427119
3183+485982717+485113243+485011055+487045622+487741411+485212498+483103983
3169+484661716+487613041+487475477+484525553+484262070+488370476+490057542
3156+485949705+482617736+485653211+490594226+489465254+484042195+483558751
3142+490732403+495283754+489728605+483018783+485670155+493503520+493303128
3129+485407811+482925264+490967295+498263976+492935575+482987041+482732052
3115+492453882+496610272+487615931+479751349+484725813+495505512+494908715
3102+483130559+477330141+484295082+493158953+489435876+478808715+477033252
3088+487156873+495025876+487617551+476227963+475386948+483360504+487327274
3075+481045074+474232495+475914920+484236677+486914712+478958626+471954542
3061+473744234+480551515+481573308+474588051+469034565+469494193+473065301
3047+473933330+470941112+468196659+467965925+469504131+470167565+468877343
3034+467521272+467784272+469130580+469145028+467436115+467007530+474275533
3020+504022976+561045824+606071428+596630113+559269354+528471134+509281194
3007+496627391+486967995+479994210+476371219+474535425+471991538+469483816
2993+468984741+472024288+475901610+474168266+468657599+466564365+470539409
2980+476819463+476971957+470749301+466421371+467929849+473792832+476824104
2966+472280852+466491160+466687612+475309103+484131030+480471087+470308457
2953+466212661+471087301+479646446+479857784+471047284+465147042+467694387
2939+475957388+479847801+473652773+466077286+464831897+471231477+479049868
2926+476723142+467144393+462108415+465563675+473488282+475249690+467958789
2912+461443799+461751063+467427008+471647103+468520385+462400049+460175905
2899+463510107+469057288+469848304+464821914+460479361+460804839+464758605
2885+467524161+465563018+461910475+460698973+462586649+464940739+464116361
2872+460812369+458688662+459080514+461030756+462351626+461426373+459596664
2858+458747768+459135636+459785892+458838354+456424414+454891243+455289049
2845+456674630+457487975+457133381+456297226+456079978+456997174+458158458
2831+458384944+457810519+457315603+457151726+457061972+456901860+456603264
2818+456205327+456043113+456466138+456894986+456548361+455907869+455684579
2804+455783702+455963123+456225904+456284003+455772100+455150434+455072283
2791+455403015+455600473+455561376+455500387+455300871+455030427+455140014
2777+455474117+455601436+455681996+455725122+455511420+455361640+455463829
2764+455695481+456121615+456521961+456511453+456335492+456557556+456943147
2750+456867710+456515218+456391270+456773797+457656931+458402063+458344795
2737+457771509+457520943+457651764+457608157+457526109+457615644+457377380
2723+456906326+456981019+457511004+457833199+457913058+458010123+458071812
2710+458181443+458642253+459140233+459193517+459175960+459489266+459944209
2696+460246220+460155721+459905374+459941582+460135406+460377392+460789909
2683+461139161+461240780+461258818+461248485+461153697+461111753+461286313
2669+461593928+461889372+462219359+462524697+462577543+462543524+462847286
2656+463494083+464012116+464161851+464223015+464410885+464745032+465150501
2642+465623919+466209508+466628112+466908363+467362473+467848545+468217499
2629+468413075+468427786+468584745+469011580+469509166+470083547+470764582
2615+471385459+471888168+472320738+472566751+472459878+472293549+472607031
2602+473343757+473991473+474364936+474776097+475440888+476156554+476733081
2588+477085091+477153654+477177559+477501592+478026061+478341469+478530390
2575+479094920+479873370+480266842+480324591+480460623+480938727+481701196
2561+482297293+482655827+483146365+483753801+484211677+484477655+484689561
2548+485022001+485484693+485845022+486051499+486331050+486770406+487259630
2534+487709099+488127965+488448102+488702740+489148707+489612844+489697125
2521+489671863+489981711+490399744+490680433+491069045+491475521+491515231
2507+491329726+491320575+491640580+492195347+492733519+493107640+493312147
2494+493327865+493260353+493226728+493303128+493565341+493814944+493862141
2480+493872736+494103601+494545584+494936867+495123555+495099825+494935247
2467+494791684+494813619+494978504+495034808+494861255+494654821+494624348
2453+494742692+494780651+494657710+494421505+494102419+493960039+494027420
2440+493937885+493732983+493627555+493497040+493250108+492952475+492668590
2426+492483610+492476123+492450817+492158964+491724643+491293211+490870843
2413+490489630+490038540+489494938+489163637+489053612+488828089+488416491
2399+487937819+487757216+488436719+490508806+494981525+503303326+516369252
2386+533844894+554472296+576435849+597699147+617283215+635815107+654267402
2372+672891411+691346201+708742641+724140241+736838658+746115439+751996111
2359+752926924+744473688+727013108+706607331+688221936+678101424+681108703
2345+691588581+694489731+687166825+678096346+671181666+668483797+671381576
2332+676217820+676145666+671695496+670246256+673696481+675446725+670044988
2318+659133505+648956207+646284564+649807862+650411971+643435076+630645767
2305+615831305+603667514+595464976+588385412+580399378+571368391+561123100
2291+550343007+540640179+532477220+525384697+519326488+514307497+510110344
2278+506564148+503460942+500715569+498338143+496351125+494782227+493446515
2264+492153316+490991682+490073259+489256193+488480151+487871269+487413218
2251+487080735+486823514+486615285+486605171+486735861+486780563+486709417
2237+486680739+486861167+487363000+488095917+488640044+488822748+488943543
2224+489131063+489352208+489827203+490645889+491429900+491941146+492406947
2210+493026117+493800671+494653507+495414226+496013869+496598276+497355448
2197+498257584+499066594+499745702+500430502+501208208+502070108+502776449
2183+503309718+503980814+504817582+505690646+506617256+507520311+508271967
2170+509020514+509814770+510391165+510832184+511390628+511895045+512178448
2156+512372754+512508786+512497359+512480503+512606245+512643066+512397929
2143+512052355+511768207+511572675+511292468+510516470+509270030+508028362
2129+507009546+506095896+505085924+503898722+502507537+500890742+499329026
2116+498031316+496626034+494890545+493156676+491566457+489968182+488399810
2102+486900439+485387277+483949202+482541292+481056501+479764002+478588927
2089+477019767+475187038+473677641+472565700+471580334+470548165+469352250
2075+468089830+466877102+465728472+464801643+464196790+463679939+462808232
2062+461713367+460829007+460083087+459483356+459163263+458961689+458766770
2048+458659766+458643566+458772330+459119086+459381649+459572497+459993683
2035+460520516+461076815+461684558+462291031+462974780+463870305+464783473
2021+465535129+466386696+466829729+466130175+464985091+464068288+463227536
2008+462321153+461189379+459722845+458224832+456973444+455746225+454633365
1994+454072469+453293449+451427401+449200718+447191633+445486835+444115922
1981+442830691+441540819+440226166+438943036+437835386+437054003+436634962
1967+435917631+434432096+432885002+431847141+431198331+430664142+429930218
1954+428963022+428144599+427704586+427508091+427524859+427698281+427302576
1940+426290109+425619013+425361704+425103476+424722307+424395471+424310052
1927+424616441+425531492+426423383+426529423+426178814+425736218+425494277
1913+425514198+425684687+426077633+426436605+426548031+426685639+427064269
1900+427615401+428158434+428343765+428055326+427795784+427592547+427236552
1886+427105950+427183050+427541540+428352696+428764469+428347004+428177173
1873+429255182+431007483+431544299+430744658+430893649+432125772+433131497
1859+433288282+433012015+432980929+433477859+434748423+436760223+438473339
1846+438954157+438315635+437428998+436778962+436294466+436302872+436814250
1832+436579796+434709764+433125543+433023311+432378134+430808624+429815158
1819+429411616+428156858+426071591+424420558+422782354+420748401+418883535
1805+418022336+418652495+418137658+414847720+412276689+411226788+409717084
1792+407393336+405407412+404685659+404715563+404047444+402550000+400991960
1778+399618245+398609718+397325100+395349771+395212864+396558778+396408166
1765+395521354+395078277+394878016+395039136+394780163+394431393+395622273
1751+397204129+396491440+394941370+394868122+394983007+393981003+392801550
1738+392968887+394030872+394565191+394707046+394811993+394353154+394290194
1724+395007174+395762333+396477824+397380047+398269573+398606435+398550612
1711+398710768+399169432+399504148+400071217+401234909+401257938+399565400
1697+399111245+400014475+401890462+404516397+407061290+408682858+409039246
1684+409415205+411713473+413594494+414136038+414160250+414709149+416058390
1670+417580265+419437250+421822119+423876782+425570721+427845302+430543303
1657+432885834+433806971+432648709+434069797+437006805+438675001+440095388
1643+442814097+445646028+447632915+448067937+447449117+449252513+452627169
1630+455447279+457552072+459427358+461213503+463511464+466086392+467522848
1616+468329188+470952189+474413535+477113987+479147415+481471295+484333874
1603+487174911+489667178+492277876+495191417+498149397+501266877+504695824
1589+508323017+511906866+515515715+519311821+523161735+526807930+529881802
1576+533178176+537756366+542102378+545746822+550067046+555336910+560553797
1562+565070561+568568509+573156331+580925029+589119468+597607072+605772307
1549+612817283+619522552+626734032+631826621+633876686+641350423+651970929
1535+660583226+667852630+674404398+680752534+687279345+692901044+696931430
1522+702303482+710750500+720019839+728825347+736843036+745120792+753566409
1508+759116874+759508113+763418929+770593544+776940761+781323638+786029629
1495+793041199+799994801+805368122+809580598+814931153+821224079+827062983
1481+832623780+837868644+842017373+844713754+846705151+850606772+856894357
1468+862553139+866340576+869917683+874269299+877904899+879970463+884042485
1454+891928302+899347573+904562052+907432599+910871791+917002722+924090824
1441+930305380+934198682+935851029+939874628+947271482+953808627+957997373
1427+961365812+964819453+969071508+973125579+974670571+976888060+982271277
1414+986243738+987529713+988620332+989961561+990464182+991597358+994099082
1400+994598638+992730708+992017493+992843141+994959317+997117262+995658347
1387+990087917+987955366+992428522+998196498+1001057762+1000850059+998838084
1373+997810775+999987546+1003140227+1004158692+1002741720+1000137545+998979764
1360+1000429661+1002077629+1002935500+1002837428+1001119408+999532735
1348+1000443934+1001575620+1000375721+997425665+993639542+991124420+989962261
1335+988645288+988018150+988445028+989372425+990322503+991349637+993157936
1321+995403971+996764377+997623999+999654801+1002916499+1006928364+1012063247
1308+1018737605+1025537093+1029318751+1029639851+1029228384+1029463320
1296+1030038358+1031531512+1034552319+1038521716+1042125705+1044150113
1285+1045284339+1046653501+1048002085+1049168185+1050055741+1050323339
1273+1049973868+1049437972+1049215120+1048729923+1047317417+1046140722
1261+1045929691+1045372955+1044271916+1043971394+1044470250+1045098264
1250+1046524956+1048458735+1049174840+1049138325+1049479565+1050034288
1238+1050822720+1051043121+1050160030+1050119488+1051691100+1052753610
1227+1052643191+1052344070+1051727439+1050652232+1049525011+1048658821
1215+1048807593+1051012385+1054664973+1057544539+1058533845+1058268261
1204+1058036652+1058498556+1059720434+1061213063+1061912880+1061567525
1192+1059686722+1056466004+1054529860+1055270133+1057052162+1058392253
1180+1059715268+1060872699+1060555452+1059111509+1058064148+1057277992
1169+1056111629+1055392198+1054893517+1053706489+1052766394+1052743452
1157+1052681807+1051367110+1049226503+1047484578+1046040723+1044799668
1146+1043511241+1041186398+1038169793+1035235324+1032482464+1030583448
1134+1029793177+1028785832+1026136561+1022334414+1018382092+1014238180
1123+1010381041+1006543342+1002244264+998631957+995681902+992454091+987653793
1109+980089952+972152210+967326956+965292390+963633301+961859240+960246648
1096+958033362+954934009+951892711+950075217+949278116+948676896+947306946
1082+944136665+940412538+937744966+935782728+934316282+933206136+931500638
1069+929330084+927926071+927304099+926415142+924485040+922034541+920716342
1055+920678164+920423526+919303223+917702189+915567974+912823433+910907517
1042+910552705+910466454+910688518+911914161+912905219+912752769+911640521
1028+910096668+909651314+910229241+909970312+908988098+908567613+909376098
1015+910697274+911064170+911182383+912013810+912893923+913491377+913400485
1001+912722997+913014850+914435675+914969382+914259320+914484448+916058074
988+916962005+916246689+914407304+912034037+909673205+907779618+906346971
974+904990419+903613726+901961730+899755274+897935592+896844623+895222924
961+893198515+891742489+890401786+889395229+889891021+891491003+892955874
947+894178540+895557859+896625974+897334723+898690925+900851234+903738856
934+906869733+908713233+909952974+912014335+914069742+916157548+919594813
920+923751861+926399293+926945696+926658922+926154549+925753941+926392463
907+928039205+929046024+928028347+925336432+923191534+924073398+926409012
893+925758494+922675428+921693915+923357820+924618401+923730933+921861864
880+921744352+923190308+923275509+921996801+921951005+924057549+926866275
866+929652059+933126890+937441992+942474950+947642757+952489464+957189588
853+960682808+962072635+962882258+964750977+966997275+968545857+969638139
839+970976303+972598790+973797201+974821621+976542880+979030594+981886955
826+984820373+987873317+990931428+994100745+997533458+1000776680+1003855368
812+1006498246+1006906385+1005287751+1004765603+1006688787+1010117209
800+1013451586+1016050682+1019497842+1023429148+1025026941+1024136058
789+1023675993+1026341726+1032016357+1037177247+1038434063+1037588276
777+1039620828+1045072870+1048563901+1047803489+1048428263+1052586011
766+1053477420+1049600142+1048010579+1049113632+1047502441+1043257916
754+1040974053+1043848103+1048565127+1048848048+1047241586+1049896461
743+1053249401+1052483735+1051555374+1052850719+1053952371+1052635398
731+1048150770+1043254239+1039687027+1036534522+1034851703+1035344517
719+1036173142+1035914038+1034910984+1033847511+1032146479+1029528293
708+1028847303+1031967847+1035465795+1036062373+1035095658+1034309677
696+1034812649+1037403514+1038304030+1036339603+1036576728+1038372155
685+1039807166+1043393642+1045636525+1041768703+1037140645+1036368412
673+1037187755+1037176459+1034235598+1033815287+1038465412+1039454718
662+1041420896+1048016709+1050645577+1048218721+1045759290+1043279107
650+1041531841+1040921865+1035887156+1025405133+1019364306+1021271290
638+1019899414+1011455810+1010024915+1019512991+1028693977+1030723026
627+1027219387+1028226994+1038827404+1044414646+1034659761+1024144289
615+1023989825+1030490630+1036942048+1035907559+1037178998+1053081540
604+1071233532+1073741823+1062908578
##END=
