##TITLE=Sample description
##JCAMP-DX=4.24
##DATA TYPE=INFRARED SPECTRUM
##DATE=24/8/2023
##SAMPLING PROCEDURE=Instrument type and / or accessory
##ORIGIN=Default
##XUNITS=1/CM
##YUNITS=ABSORBANCE
##RESOLUTION=4
##FIRSTX=4397.6552
##LASTX=599.8556
##DELTAX=-1.9287962
##MAXY=1.3408679
##MINY=0.40176508
##XFACTOR=1
##YFACTOR=1.2487805e-009
##NPOINTS=1970
##FIRSTY=0.56821042
##XYDATA=(X++(Y..Y))
4398+455012239+454846043+454795401+454526011+453826619+453824567+454773874
4384+455376326+454922984+453641187+452427358+452263739+452616657+452668348
4371+452613125+452687966+452933538+453104699+452889960+452074775+450936551
4357+450625254+451614082+452808103+452664482+451413090+450964664+451594083
4344+452038118+451895213+451310374+450534519+450012588+449884194+450064757
4330+450372283+450626733+450622963+450300640+450300736+450630266+450459534
4317+449810880+449021516+448478966+448315538+447729076+446840959+446661827
4303+447049444+447424700+447816231+448242701+448458156+448135308+447356111
4290+447182421+448055837+448739812+448647216+448504788+448527794+448259359
4276+447371385+446351294+446269532+446876995+446618917+445319699+444386095
4263+444545896+445549234+446575149+446568562+445950646+445667796+445164194
4249+444429338+444620307+445708796+446349050+445684883+444664410+444396309
4236+444408862+444375880+444258655+443734004+443710664+444634531+445066633
4222+444496065+443763692+443112412+442338084+441895911+442292836+442774243
4209+442514352+441701123+440714825+440300287+441079675+442128118+442097810
4195+441455408+441570438+442230404+442635205+443290351+444098424+443896955
4182+443054181+442443186+441704369+441017292+441005359+440916008+440235804
4168+440223060+441087407+440988415+439463480+438182542+438210847+438996630
4155+439432551+438910763+438120350+438074911+438219152+437942746+437614075
4141+436990574+436406881+436820988+437309794+436856595+436430793+436456854
4128+436093054+435655033+435827292+435942608+435715937+435716796+435941892
4114+436145939+436189421+436049190+435816123+435159402+434262550+434034495
4101+434171290+433991490+434024949+434407698+434691645+434979602+434993635
4087+434328895+433679381+433805914+434394572+434457671+433512421+432442260
4074+432228715+432557147+432612037+432113780+431637003+431761149+431993596
4060+431784919+431308189+430775996+430515866+430678006+430541450+429826641
4047+429304567+429287336+429440455+429622403+429774424+429542980+429228437
4033+429911744+430994124+430802343+429746168+429194262+429148250+428951888
4020+428587849+428466567+428524129+428395830+427953609+427351969+427402897
4006+428394971+428921913+428189349+427206248+426774719+426726082+426983587
3993+427467810+427666893+427422753+426781592+425973757+425622462+425672627
3979+426063729+426886551+427249492+426797773+426252263+425962397+426005880
3966+426201144+425789423+424782553+424405436+424847513+425210502+425227924
3952+425063350+424573494+423989084+424092134+423929517+422645525+422398807
3939+423744371+424612537+424060728+422580802+421387259+421387545+422130515
3925+422681132+422960926+423258334+422834059+421538564+420999116+421789196
3912+422714161+423393172+424198954+424095762+422044935+419575847+417969150
3898+418087522+420247985+422011428+420765811+419394281+421289317+422335421
3885+420470694+419362302+418537284+418670165+420700468+421223544+419688538
3871+417600195+416292672+417561200+418403592+417822284+418854786+421223115
3858+423514836+422930570+414650369+410003778+414894843+420116870+422578941
3844+422217527+420122359+417245989+414410524+414319693+416024046+416901520
3831+417488172+418573559+419504586+420703380+420924753+417671027+416417248
3817+417825626+418278681+420068662+422810433+423773678+421643189+420115152
3804+421143262+420393801+419277676+419873971+420497376+421911767+423336373
3790+423860594+423956341+423258620+422425393+422926417+423134044+422178627
3777+422305733+423484671+424378038+423807471+422372746+421863225+421981262
3763+422865179+423551159+422873628+423097483+425455693+427543367+426286343
3750+426107307+431603830+436796646+439418566+444702642+452097972+457824078
3736+459537070+459290066+462753948+469237009+473763844+472955054+468094680
3723+463209008+459390968+456375416+455053431+457540130+465643873+480180750
3709+498092779+516105471+533076306+547775180+560409768+571861932+579914985
3696+583365646+583534420+578649608+565262457+552140115+547120942+543570047
3682+537385158+529665453+522147313+510901057+498519392+493362947+486569687
3669+478008832+476124870+476767988+475863785+474533733+474918296+476360992
3655+479704832+486230086+492757059+494908692+495341749+497887873+499113873
3642+496998849+492631242+488262632+485390176+484151480+483550651+479124909
3628+469740181+465839663+465024238+460710901+450945810+439855155+433483544
3615+428933941+425003639+424814198+426519887+427451009+428810511+429801153
3601+428319605+425543087+423450210+420897499+417112010+413839574+410118904
3588+403645293+397979112+395399195+393485760+391290859+389283347+387564222
3574+385870585+384836150+384114588+380494962+374049846+371396019+372166362
3561+372577224+372038421+371175815+369830084+367883285+366395580+365903863
3547+365278763+364074456+363059949+362526802+362353613+361919172+360920129
3534+360149261+359708257+358941518+357699027+356422791+355343681+354530095
3520+354287911+354304593+354095654+353510671+352551221+351603465+351026549
3507+350793291+350115760+348717835+347661421+346866688+345872991+345412155
3493+345547184+345287484+344343331+343404429+343254794+343737992+343789207
3480+343209689+342672771+342123300+341151106+340095241+339686598+339732586
3466+339472719+338785236+338106463+337784379+337565035+337134412+336745792
3453+336566040+336232071+335018147+333225660+332784752+333807015+334330139
3439+333790858+333030157+332537461+332099011+331617532+331403032+331128917
3426+330349935+329641880+329673167+329890650+329420268+328739157+328515946
3412+328205938+327668973+327737155+328107017+327702312+326942876+326840948
3399+326994949+326940322+327170215+327573297+327634177+327442039+327553155
3385+328406572+329458357+330143740+330746621+331332033+331809073+332630869
3372+333966888+335120218+335853976+336745983+337959979+339401243+341017008
3358+342475359+343742001+345243262+346868884+348022238+348853318+349866297
3345+350933905+351829134+352488456+352688494+352666060+353342828+354623909
3331+355360649+355349123+355194548+355364874+355640230+355008973+353465256
3318+352360348+352074849+351966478+351921802+352066282+352463803+352867792
3304+352785171+352555732+352880441+353627133+353880199+353458574+353409364
3291+354012197+354540786+354963032+355919547+357344177+358437510+359098288
3277+360040961+361379605+362176510+362244048+362812707+364108775+364753945
3264+364358118+364008780+364218220+364866898+365984217+367118216+367562156
3250+367603490+367785176+367763458+367626091+368055233+368899988+369839272
3237+370864542+371590448+371781536+371785880+371778362+371832417+372101329
3223+372464151+372835803+373144689+373256975+373235496+373251295+373417325
3210+373561900+373676810+374078509+374299213+373709363+373090659+373229983
3196+373741700+374263034+374524429+374329021+374241531+374727306+375467388
3183+375990846+376188545+376427960+377085301+378059309+378931389+379372656
3169+379494941+379507852+379576774+379778315+379825807+379791346+379975680
3156+380317501+380746500+381142089+381474387+381717859+381762917+381884271
3142+382002332+381515125+380667483+380327930+380617533+380902889+380787381
3129+380335065+379912080+380180419+380867162+380728983+379770297+379506897
3115+380439046+380970331+380325042+379602167+379479643+379735382+379687007
3102+379146056+378936210+379402630+379729607+379236004+378456879+378403492
3088+379536156+380798097+380810984+380205859+380030618+380284758+380630945
3075+380768361+380686002+380782393+381326232+381497250+380773014+380129921
3061+380230703+380618154+380684666+380425753+380038255+379761443+379944775
3047+380365827+380495272+380192614+379751061+379458021+379303208+379136319
3034+378756482+378148541+377602340+377523799+377921178+378180162+378340632
3020+380007397+383565833+386071839+385396766+382969896+380674976+379280632
3007+378889673+378998784+379267148+379854397+380673974+381487680+382260147
2993+383089842+384321689+385608832+386194077+386689946+388098324+390399997
2980+392891613+394590167+395517614+397058037+399744154+402614367+404968711
2966+406745518+407949276+408931804+410072892+410854284+410608903+409685083
2953+408695634+407998486+407607098+406828330+405456276+404202162+403319391
2939+402455902+401322595+399964859+398710674+397945630+397854322+397767071
2926+396932578+395963105+395327075+394555921+393751689+392979222+391991110
2912+391346393+391460564+391802790+391865890+391769355+391798566+391932736
2899+392176160+392606067+392984425+393246082+393768538+394704767+395930362
2885+397486202+399549725+402080695+405076486+408946361+413737527+419153721
2872+425309734+432324892+440147407+448488608+456540658+463401552+468613794
2858+472082401+473277424+471445011+466811833+460247822+452459051+444250254
2845+436387788+429189919+422696167+416730788+411249538+406617649+403078353
2831+400323624+397750150+395268104+393315625+391919395+390715805+389550923
2818+388588442+388098157+387994797+387889575+387753735+387690755+387478952
2804+387102670+386843017+386882824+387145818+387250992+387072552+386925328
2791+387003606+387234621+387472222+387668107+387835760+387913775+387935778
2777+388110400+388455561+388762777+389026630+389378689+389736236+389884988
2764+389943887+390275230+390730052+390977605+391231960+391746516+392312215
2750+392639550+392913903+393465451+394122935+394602768+394990863+395426688
2737+395879243+396516370+397502120+398500709+399381834+400335843+401208376
2723+401897172+402436572+402716462+402691690+402402492+402100646+402077354
2710+402184031+402183553+402056209+401813405+401651838+401748206+401932015
2696+402049384+402038931+401902088+401835552+401869775+401840802+401618475
2683+401157591+400804960+400910253+401179452+401206753+401087284+401185466
2669+401566831+401834168+401776939+401677040+401693173+401714794+401789874
2656+401962085+402123604+402442872+402985709+403260635+403198490+403328985
2642+403698799+404038448+404406209+404868429+405276046+405628486+406030328
2629+406363008+406659413+407154567+407717593+408201578+408817394+409580029
2615+410246630+410789705+411380176+412109734+412847548+413386996+413736811
2602+414113928+414753323+415603304+416284033+416720097+417278827+418053776
2588+418732119+419150379+419447596+419803902+420296861+420907522+421465919
2575+421806808+422088894+422478421+422840455+423093903+423345967+423706426
2561+424125927+424451114+424726326+425085640+425439560+425688951+425884167
2548+426097951+426487812+427011270+427347101+427508333+427661023+427727272
2534+427776959+427950507+428188681+428535966+428934419+429029211+428879577
2521+428991838+429535963+430186527+430620300+430943052+431359260+431712751
2507+431856037+431927298+432021804+432153778+432420686+432885770+433419251
2494+433785486+433910491+433857988+433705729+433493090+433207949+433107859
2480+433368753+433652032+433800473+433856318+433632701+433189669+432899135
2467+432877751+432902094+432842622+432712032+432436724+432102946+431871406
2453+431625977+431280839+430935272+430587509+430246429+430039995+429878953
2440+429632617+429335449+428882631+428301515+427747223+427146252+426533013
2426+426033754+425630290+425271263+424902499+424600175+424424146+424169744
2413+423753870+423312985+422847137+422349120+421903223+421433701+420821082
2399+420189563+419748058+419813496+421307645+426178425+437579518+458886124
2386+491687948+534728872+584818794+639120723+696149483+755051608+815141168
2372+874787886+931098734+980072675+1018209742+1045558238+1063261781+1069951371
2359+1061784815+1034297137+991357736+940440218+890606273+862704583+871384048
2345+908410050+938241284+939953274+929498147+920462996+914241067+910615952
2332+910454529+909933505+903676161+891425611+875550711+856648852+833917115
2318+806589429+778789691+760098274+752514171+744033980+722537932+688799163
2305+653469591+626273307+607256561+590742743+573643227+554936250+534334620
2291+513632518+494851273+478150543+463527799+452460388+445786072+442086116
2278+439445533+437095629+435000794+433146711+431527748+430172972+428940337
2264+427660307+426388533+425176709+423953143+422714590+421511835+420309271
2251+419034347+417845815+417103562+416882905+416806011+416453285+415895890
2237+415670269+415961424+416313148+416443834+416592514+416992875+417595995
2224+418280686+418998024+419713740+420410745+421121545+421985940+423043309
2210+424016673+424812909+425730906+426897720+428158038+429477923+430893222
2197+432239598+433453617+434753647+436255623+437862511+439454841+440975003
2183+442482277+444098377+445883203+447826159+449759140+451437575+452965422
2170+454735977+456773439+458748995+460627946+462557442+464489182+466286036
2156+467908627+469477569+471056916+472561470+473826657+474714201+475251883
2143+475424094+475230738+474927890+474668953+474196328+473271840+472023359
2129+470637224+469221067+467685822+465779284+463578536+461305954+458968459
2116+456636453+454449404+452248322+449824912+447238886+444477785+441646949
2102+439095670+436746529+434335434+431968824+429776810+427898099+426592342
2089+425783647+425250739+425184489+425993136+427935710+430870216+434310614
2075+438016537+442023637+446056845+449548077+452193384+454282348+456181488
2062+457720742+458791189+459734626+460699016+461516158+462079232+462314638
2048+462130495+461488904+460378698+458890516+457215851+455431789+453495228
2035+451387268+449138312+446815948+444416117+441886651+439226261+436456616
2021+433719904+431083045+428439694+425853286+423366443+420869624+418431036
2008+416145233+413932267+411773140+409741739+407816681+405959782+404254188
1994+402607637+400747397+398907252+397612448+396884275+396375041+395894206
1981+395589925+395527184+395531862+395549784+395791729+396373323+397144525
1967+398218933+399927510+402074156+404209274+406316184+408656543+411375880
1954+414490186+417873451+421267599+424497698+427547186+430391624+433263030
1940+436532602+439776829+442369061+444386906+446103287+447409092+448201844
1927+448541445+448206522+447384416+446876613+446258936+445036897+443955329
1913+442874859+441090605+438872245+436971148+435414473+433847774+432260026
1900+430661682+428915661+427057521+425589433+424590295+423478418+422618700
1886+422533215+422703087+422850288+423098008+423594450+424359567+425116665
1873+425620505+425388393+424458655+424794342+426654821+428134316+428593290
1859+428538448+428304761+427870559+427255602+426428293+425191792+423464767
1846+420981361+417942087+416234203+415463740+413801438+411421797+409237278
1832+406535028+402381921+398581540+396146699+393603892+391283198+389306115
1819+386817267+383863980+380941789+377985399+374754727+371924775+369800825
1805+367726062+365182515+362163384+359603036+358131655+356916036+354772899
1792+352161026+351375935+351781284+351540318+350560869+349553998+348876252
1778+348802962+348743896+347579755+345440102+344963777+346435326+347891576
1765+348688076+348474793+347944175+348280745+348872458+349346181+349207190
1751+347305305+344594440+343693173+343910298+343730952+342862356+341691318
1738+341066719+339927039+336879342+335546975+336678803+337701758+337937594
1724+337295335+336433994+335320447+332160535+328279753+328563820+330756955
1711+332086004+331962669+330345090+328420032+327465689+325604829+322531023
1697+322027898+323782749+326019581+327210977+326995093+326379062+324644352
1684+321725932+322724068+325803411+327849130+328153578+327764791+327838248
1670+327936596+329286838+331997298+333697593+334276395+335815004+338052098
1657+339360529+338467495+336693719+339702373+343268660+346051192+351063826
1643+357326994+362628157+366637382+369792663+375570390+385901418+395862179
1630+405118727+415178313+426127401+438680274+453728677+467743480+481034263
1616+498824437+518718895+537254281+556979679+579403221+603808334+629175546
1603+655957389+683981937+712095883+739505617+766094247+791217796+814099598
1589+834405682+851266785+864442634+873531625+878128337+878001088+870929370
1576+856393781+845414289+836850140+821066500+803654589+792775856+784777597
1562+778870307+770734872+755345340+751946085+756817438+761777473+766325310
1549+771197378+775948402+779437343+781409749+784040594+793627889+805262336
1535+813609980+820656402+828566359+835761890+841752136+847412088+851907516
1522+856344046+863780996+871658784+878438011+885459040+892272251+897409079
1508+898983510+900747431+909704590+918313988+923463035+925304278+926875941
1495+930913636+934647576+935722748+935874053+938955902+943421738+946753216
1481+948492221+949767383+950151994+946918267+940164528+936736062+939761971
1468+943092017+943612659+943713370+945689213+946848199+942149821+936572538
1454+942168245+950652016+955127780+955616538+957034509+960863814+965264928
1441+970085686+974057037+975307665+977805677+983402721+987644607+991122426
1427+996118450+1000184115+1002659407+1004776436+1005557590+1006334257
1416+1009550228+1012134345+1012890011+1014472079+1016794921+1016942789
1404+1015869526+1015918020+1014208608+1010485073+1009682632+1011802811
1393+1014075249+1014513413+1010756658+1004181240+1001916724+1005351586
1381+1010192964+1013846144+1014894015+1013354999+1012640573+1013973297
1369+1015012481+1015530068+1015140589+1011990963+1009406846+1011229952
1358+1013497140+1013218968+1011944188+1011618667+1011601103+1010687259
1346+1009279024+1008131398+1006869791+1004232979+1000976533+1000050661
1335+1001480183+1003238948+1004809943+1006147536+1006787122+1007860290
1323+1010218738+1013083414+1016342915+1019733865+1022128589+1023648130
1312+1025780432+1029728777+1034892620+1039393395+1042972784+1046190664
1300+1048358192+1049886897+1051735109+1053521558+1055833708+1059807063
1288+1063785477+1065597319+1066366731+1067543855+1068600890+1068674490
1277+1068096476+1067894386+1067421284+1066003026+1064642236+1063303879
1265+1061646588+1060548792+1059365844+1057501881+1057644595+1060071107
1254+1061328609+1061245845+1061949389+1062969862+1063346645+1063965325
1242+1064774926+1064129708+1062787628+1063233620+1064799650+1065036488
1231+1064066513+1063422918+1063593029+1064257339+1065254329+1066245687
1219+1066385728+1066561566+1068046455+1069408868+1069254317+1068687759
1207+1069559982+1071916331+1073741823+1073590423+1072337503+1071466139
1196+1071421750+1072207867+1072796668+1071889602+1070308775+1069789183
1184+1070329012+1070166157+1069028553+1068790952+1069585470+1069692004
1173+1069044304+1068270596+1066655786+1064604624+1063272091+1062516902
1161+1062233002+1062079693+1060981132+1058798045+1056741634+1054871179
1150+1051983211+1048694976+1045684723+1042066481+1037929794+1034297996
1138+1031209656+1027531943+1022636057+1017026317+1011512133+1006780344
1126+1002696160+998486731+993361740+987110218+980815549+974916754+967923218
1113+959481068+951351742+944126332+937513397+932465252+928850829+925121757
1099+920935907+916516083+912206898+908556868+905199520+901936392+899330128
1086+897465592+896120934+894930828+893456057+891856998+890201043+888234078
1072+886917582+887482517+888792141+889239946+889492249+890233691+890723308
1059+890752901+890596154+889792854+888881396+889581122+891418070+892286475
1045+892163521+892296975+892544218+892811794+893992259+895623394+896389274
1032+896285031+896329134+897426167+899024558+899883512+900408259+901306638
1018+901747857+901375561+901047463+901152661+901861646+903343480+904958864
1005+905967691+906143148+905535828+904700261+904407007+904609574+904273266
991+902843649+901145215+899844946+898232713+895723532+893287092+891797621
978+890604269+888853522+886451352+883464487+879763385+875942863+873234456
964+871708232+870611772+869757209+869331360+869485338+870089030+870611295
951+870613109+870830950+872503801+875094409+877151203+878870734+881356813
937+884575266+887627236+890087732+892519398+895598670+898775979+900976822
924+902271267+903435027+904417316+905006690+905678732+906313736+906749227
910+906986828+906104486+904312978+902859877+901545099+899647629+897124702
897+894491327+892857233+892370575+891519449+889997999+888831089+888212695
883+887926218+887366342+886723319+887589051+889876191+892024722+893939852
870+896554707+900777978+907760059+917163688+926633757+934305923+939539261
856+942535005+943845487+944002520+943198074+941445704+939950124+938929555
843+936954858+934796017+934659318+937152747+941614669+946626635+948991671
829+946643532+943608554+944714560+948150472+950483815+952608099+955109070
816+956208203+956710421+958268051+959963526+962342403+966091426+968690148
802+969749092+971298417+973819149+977321215+981454085+985405006+989559641
789+994827727+999989184+1003844455+1007843107+1012588451+1018283915+1024765591
775+1028729305+1029159927+1028749351+1028827152+1029916166+1032853869
764+1036969078+1039724452+1040973076+1043028056+1045213530+1045477287
752+1043509272+1041488659+1042789691+1044998362+1042844485+1038456449
741+1036273839+1035831857+1036418366+1038970218+1041635286+1041077033
729+1038118805+1036294268+1036213222+1036874000+1038169686+1038666940
718+1036937386+1033329740+1029809250+1029594273+1032524626+1034248643
706+1031916160+1029060839+1030686342+1034574068+1036240810+1035804841
694+1035484762+1036116711+1035575068+1033292033+1033047272+1035829948
683+1037272070+1036325770+1037736486+1042188862+1045457813+1047126655
671+1048261776+1045350611+1040379121+1042785204+1047188227+1046534227
660+1041184139+1036286917+1036506477+1040317549+1041968634+1039217079
648+1035134899+1033622422+1036648426+1038389341+1029059121+1017857874
637+1017711533+1022519022+1027461111+1032305066+1032702850+1033802174
625+1039407618+1038955804+1025656620+1009564070+1005851990+1014085273
613+1015397378+1008463314+1015603668+1036970701+1044661768+1031369076
602+1018681508+1017431356
##END=
