##TITLE=Sample description
##JCAMP-DX=4.24
##DATA TYPE=INFRARED SPECTRUM
##DATE=24/8/2023
##SAMPLING PROCEDURE=Instrument type and / or accessory
##ORIGIN=Default
##XUNITS=1/CM
##YUNITS=ABSORBANCE
##RESOLUTION=4
##FIRSTX=4397.6552
##LASTX=599.8556
##DELTAX=-1.9287962
##MAXY=1.2831155
##MINY=0.34203929
##XFACTOR=1
##YFACTOR=1.1949944e-009
##NPOINTS=1970
##FIRSTY=0.48751274
##XYDATA=(X++(Y..Y))
4398+407962349+407945964+407711010+407659336+407730762+407534715+407284573
4384+407361012+407588708+407845333+407998760+407715574+406978094+406347604
4371+406270118+406339324+405780759+404781017+404476683+404603474+404012936
4357+403646030+404311535+404732061+404741289+405020609+404732136+403440879
4344+402311752+402208853+402589127+402575660+402303472+402288010+402375472
4330+402423256+402657112+402728687+402056099+400998399+400524827+400985430
4317+401702710+401666473+400752871+400236803+400727084+401499853+402226111
4303+402240625+401147685+400170664+400187572+400825869+401110651+400425219
4290+399211772+398379798+398393614+398641510+398485515+398580758+399514835
4276+400209569+399719337+399025651+398957691+398999739+398745108+398236122
4263+397669676+397423001+397625483+398203427+398786059+398612157+397963062
4249+397770605+397783424+397549818+397330950+397251768+397377138+397818439
4236+397952188+397236256+396465557+396250331+396084584+395902801+396174291
4222+396770889+397152984+396972947+396258935+395614104+395803917+396496207
4209+396662627+396574816+397017513+397205930+396407274+395812347+396171522
4195+396421240+396103688+395890407+395945473+395919860+395564799+394870065
4182+394175930+393804633+393554218+393416578+393814335+394492983+394858044
4168+394861536+394715741+394585957+394462781+394432530+394812680+395252958
4155+395124172+394747638+394380981+394076846+394429587+395051449+394903309
4141+394133583+393377598+392797585+392357680+392185100+392331868+392525746
4128+392602335+392620491+392543303+392260118+391747216+391316589+391329433
4114+391444528+391274143+391035000+390718969+390256919+389961737+389540986
4101+388501416+387603477+387650113+388087723+388228231+388051711+387665701
4087+387365007+387793789+388733526+388834531+387875415+387145666+387072769
4074+387074564+387249913+387719769+387738274+386974308+385837525+385098748
4060+385626763+386995008+387525392+386603012+385599929+385654945+385844309
4047+385113413+384266025+384221334+384583253+384773640+384496340+383945206
4033+383671048+383644064+383661447+383666584+383526276+383246532+382862965
4020+382777623+383293767+383682122+383499790+383161688+382672728+381945124
4006+381510906+381572382+381672014+381491503+381034840+380683470+380794176
3993+380831709+380521290+380551442+380783402+380585583+380360107+380508845
3979+380736142+380712325+380244713+379595418+379413062+379711112+379804510
3966+379401615+378597348+377777493+377922416+378939415+379344754+378601837
3952+377649879+377036397+376732736+376923547+376868157+376384135+376847233
3939+377963042+378573531+378118837+376316898+374890121+375571338+376592178
3925+376307347+375924204+375946824+375201264+374312477+374928627+376520902
3912+377426198+377324895+376501649+374074382+370722440+369646210+370694832
3898+372760355+375574904+376784984+374731283+373511153+375276132+375294986
3885+373274154+373037929+372886897+372997228+374136880+373724932+372244186
3871+370913949+370451674+372247428+373055038+371892817+372193909+373717301
3858+374569402+372675836+366431834+365501124+370972507+375213584+376465786
3844+375415866+373241135+370211883+367299472+367877215+370625825+372543184
3831+373937166+374976062+375166074+375214781+373479380+369393899+369590994
3817+372061082+373276898+375770379+378134774+377664394+375010603+374543814
3804+375769331+374989928+374928827+376431918+377675541+379505462+381222683
3790+381922629+382138279+381939338+381469931+381304010+380668956+380243616
3777+381693612+383470886+383777913+382200702+380795597+381119808+381972483
3763+383183036+383613688+382584867+382770116+384277871+383948598+379876011
3750+377856526+381245976+383243464+382343879+384647572+388714074+390211429
3736+388079693+387348373+391671725+397038138+400556275+402622197+405625137
3723+410774304+417584404+426574472+437428503+448392068+459172628+473504794
3709+492763469+511461358+526758874+539286382+550562337+561440310+572006841
3696+581568817+587591209+587910482+583206731+579612180+580373576+581263860
3682+579795683+576009848+570800826+562414189+554744557+553345961+549618634
3669+544949399+546503316+548389675+547190095+545060977+542851754+538831539
3655+535917432+536432030+533780035+523756931+519184759+523002068+527253819
3642+529776828+531015613+531465269+531181160+530876951+531004839+527713251
3628+521782088+523517713+529045608+531733316+529451271+525719354+525855872
3615+527236561+527111715+526994002+526528834+525575405+526375906+527707166
3601+527547604+527021635+527273023+527346793+527619928+528719801+527942643
3588+524082887+523128810+526396905+529082518+529450523+529380294+530474929
3574+532081319+533360107+533622069+530667511+525977626+526146614+529200282
3561+530854505+531978370+534108535+535714077+535743007+535881719+536668255
3547+536742823+536953211+539198696+542794144+545735535+546761837+546884738
3534+547650175+548331816+548080777+547873581+548485292+549169826+549729913
3520+551161927+552974665+553908692+554608339+555512937+556229443+557507482
3507+559389551+560400491+560220279+560914290+563054431+564442951+564421653
3493+564203883+564370228+565078654+566150246+567446291+568455585+568220657
3480+567726958+568157261+568800495+569389512+570174551+570782720+571091469
3466+571813960+573151754+574036251+573706155+572293144+571046878+571567012
3453+573594826+575272642+574788271+573059678+572986856+574269234+574842190
3439+574784081+575348009+576262932+575940915+575011029+575441431+576253954
3426+576205571+576278544+576255051+575650772+575978474+577624119+578758108
3412+578469860+577825329+577648010+577836851+578086044+578552309+579527137
3399+580282398+580239253+579701961+579144368+578967000+579013786+579521201
3385+580904035+582011340+581757757+581174677+581731471+583146727+584321617
3372+584878511+585029294+585154639+584944700+584271389+584130582+584688025
3358+585353156+586091010+586995060+587473745+586908171+586693943+587877761
3345+588501743+587925894+588139624+589159492+590058902+591662599+593455136
3331+593727523+593008773+592603309+592203283+591332503+590883495+591245464
3318+591749039+592206425+592645008+593128082+593446208+592911759+591439692
3304+589604409+588222622+587828282+588052785+588495757+589380155+590525118
3291+591325619+591721955+591766596+591627135+591967058+592933206+593782390
3277+594083157+594397891+595097838+595860681+596753807+597632020+597770582
3264+597250349+596904590+597849241+600869889+604714431+606851180+606887342
3250+606736709+606877366+606116169+604925268+605209825+607147160+609081751
3237+610131197+610630631+610738668+610533168+610153193+609522678+608707911
3223+607972401+607466832+607540253+608244240+608197503+606858413+606022647
3210+606268050+606064695+604897436+603908044+604033339+604733435+604765457
3196+604024859+602729163+600686884+599082539+598701766+598584900+598490330
3183+598390773+597968102+597338983+596282305+595253110+595391024+596207088
3169+595974304+594608130+593763386+593320264+591885357+590245099+589417663
3156+589096944+588943467+588063160+586397365+584940860+583458667+581773419
3142+580694894+580525058+580699134+580368090+579152698+577603519+576413465
3129+575449911+574294423+572843754+571461319+570518713+569516502+568160303
3115+567036489+566385124+565969885+565407653+564318604+562974127+561904979
3102+561282594+561486847+562442271+562480079+560825656+559265603+558635986
3088+558067419+557634872+557413312+556663836+555853109+555952966+556111480
3075+555366942+554457207+553698653+552338763+550365765+548856389+548232557
3061+547508919+546364803+545486791+545058683+544892786+544516502+543383111
3047+541889995+540838854+540041843+538708239+536977652+535732333+534887988
3034+533646460+531887391+530113509+528758058+527475779+525780555+524126232
3020+522962963+522009534+520866716+519580197+518504266+517798533+517302491
3007+516569126+515455935+514391825+513436002+512250288+510819121+509340470
2993+508048216+507177934+506808683+506725485+506542331+506089782+505307886
2980+504477307+504035333+503498889+502490294+501595920+500966752+499919601
2966+498071599+496196513+494942814+493697346+492332218+491701503+491482237
2953+490462170+488937431+487884693+487139956+486510538+486251219+485770190
2939+484478734+483235958+482561051+481704586+480576881+479536912+478332244
2926+477062584+476097733+475195030+473975049+472325913+470563802+469374746
2912+468826830+468314876+467773245+467688002+467752096+467146021+466019762
2899+465044137+464401651+463935984+463582196+463226661+462479380+461293716
2885+460178680+459530707+459090329+458277158+457117830+456236275+455900692
2872+455546405+454722410+453717406+452788118+451939983+451183973+450548918
2858+449964491+449079295+447770381+446523217+445504995+444446023+443615395
2845+443176563+442830156+442418208+441752429+441079617+440758199+440396579
2831+439744815+438912990+437889531+437028577+436767662+436857044+436823626
2818+436536574+436069860+435584542+435181971+434711516+433951766+433086771
2804+432547982+432360239+432100123+431381572+430347040+429487532+429103317
2791+429124565+429076083+428658499+428155075+427764076+427359312+426907561
2777+426586193+426440747+426217092+425837615+425466120+425171836+424887628
2764+424463011+423965871+423520006+423069054+422725790+422469463+422116971
2750+421780191+421458674+420999890+420528737+420190411+419908347+419555805
2737+419180718+418978411+418890674+418727621+418531399+418191451+417727630
2723+417611787+417737032+417576099+417241438+417072275+417027958+416809166
2710+416320330+415935866+415854639+415822467+415804561+415868206+415857682
2696+415805508+415656970+415271458+415040321+415076682+414930563+414577123
2683+414233759+413894585+413609254+413578354+413708787+413602994+413307938
2669+413140570+413080865+413055677+413047347+412967441+412927189+413035326
2656+413070466+413000561+412982480+412944896+412904195+412939534+413022457
2642+413155309+413251275+413189476+413023006+412922800+412984375+413232646
2629+413674121+414093276+414268101+414378257+414583732+414816441+415135963
2615+415476335+415660736+415796855+416082609+416588902+417206349+417818559
2602+418351861+418650509+418801741+419088193+419614562+420228668+420662312
2588+420896492+421137156+421422163+421573794+421586114+421751710+422220819
2575+422873430+423511777+423879033+423868758+423629340+423344384+423265725
2561+423473270+423561954+423375359+423243480+423199038+423157589+423320342
2548+423718723+424014204+423883971+423432420+423044464+422908994+422990196
2534+423168213+423291114+423345880+423444440+423532177+423420997+423145717
2521+422899716+422788936+422791430+422751577+422771379+423170008+423675528
2507+423844068+423828755+423859680+424003430+424267537+424520222+424673150
2494+424756896+424820391+424826277+424855556+424970925+424892516+424691106
2480+424684871+424723577+424684023+424597683+424363503+423966919+423528037
2467+423183376+422971442+422799859+422557499+422276234+422142559+422133581
2453+421939603+421491594+421027024+420608443+420184475+419829340+419533410
2440+419224013+418911075+418615344+418323604+417906420+417300844+416697388
2426+416256710+415939208+415618289+415282083+415050920+414813049+414289349
2413+413541594+412876837+412520529+412476786+412391393+411914679+411131784
2399+410403258+409907739+409475765+408965532+408443203+408019958+407604170
2386+406906543+405866575+404498006+402658857+400407263+397865699+395044067
2372+392190662+389642763+387342936+384915170+382430069+380585209+379740989
2359+379791666+380699980+382289785+384436036+387106512+389229569+389188070
2345+386833651+384252458+382983472+382803710+383296211+383915878+384106688
2332+383869066+383819113+384150033+384369548+384523873+385183268+386198497
2318+387007004+387613403+388334223+389288725+390219734+390979285+391715992
2305+392280468+392491629+392495395+392526095+392800852+393172497+393268513
2291+393214619+393377872+393730165+394028164+394124929+394028538+393951476
2278+394042754+394099965+393999035+393986316+394179421+394373200+394369932
2264+394209922+394147225+394381829+394863481+395338026+395665803+395978243
2251+396342332+396713902+397081857+397430633+397833777+398290390+398685079
2237+399082786+399505582+399942494+400628923+401525865+402248780+402779464
2224+403353691+403981388+404593324+405283344+406164500+407211975+408401954
2210+409678172+410939203+412241359+413660255+415179108+416770410+418424160
2197+420181283+422052179+424038195+426183923+428492055+430882486+433266534
2183+435625193+438002756+440602977+443561027+446632651+449635242+452660429
2170+455690304+458581318+461319204+464063075+466795774+469236383+471345849
2156+473284131+475047290+476503745+477500369+477982096+477846875+477167479
2143+476396506+475477492+473851450+471388645+468259511+464601764+460506182
2129+455974463+451141326+446280657+441549573+436865324+431972234+426914644
2116+422075223+417585152+413230401+408863630+404612951+400559617+396651280
2102+392983233+389591189+386308255+383062555+379987265+377174885+374515308
2089+371934141+369478668+367130333+364897244+362797579+360730835+358731102
2075+356906917+355150667+353394267+351720591+350063599+348318870+346637039
2062+345146666+343699838+342201759+340770742+339418534+337982454+336540190
2048+335307739+334149159+332845532+331497588+330315565+329294825+328270293
2035+327255688+326361514+325519988+324693399+323944896+323247469+322580792
2021+321887529+321002932+320012568+319225009+318585616+317800327+316864879
2008+315905265+314928392+313940672+312982978+312086086+311195528+310161470
1994+308849114+307440169+306481751+306081301+305835450+305465151+304925065
1981+304295672+303589815+302802207+302044452+301408525+300741972+299778866
1967+298815411+298434089+298338223+297957749+297380579+296744028+295993580
1954+295314108+294819637+294339580+293771488+293013932+291908772+291083880
1940+291284516+291722151+291644939+291287609+290938783+290647417+290417402
1927+290089749+289256278+288291676+288021608+287978463+288038991+288719335
1913+289236701+288913487+288442284+288683996+289357257+289821876+289969218
1900+289872802+289529139+289095893+288908001+288701329+288106452+287971081
1886+288603043+289156147+289457389+289681418+289896894+290090822+290099152
1873+289633261+288121166+286226677+286602812+288935334+290735104+291467646
1859+291854030+292349524+292904573+293320561+293522968+293364055+292770100
1846+291902836+291829640+293635669+295676776+296720336+297398934+298106986
1832+297957125+296936011+297015816+298268767+299561246+301113717+302466549
1819+303008480+303033145+302747017+301845287+300651417+300268375+300633212
1805+300616602+299522939+297856371+297026341+297109887+296840269+295545969
1792+294706088+296395925+298655376+299523064+299425451+299238581+299371932
1778+300127343+300532931+299283971+296948081+296825505+299088995+301334779
1765+302428517+302143910+301964621+302805075+303519935+303988944+303486716
1751+300702443+297700251+297816617+299340782+300149190+300096368+299826276
1738+299933465+298919932+296120570+296222946+299238905+302174435+304008696
1724+304578958+304495960+303483449+300240542+297762275+301049174+306143101
1711+309816959+311403098+311201738+311067290+312035160+312378848+312515540
1697+315594272+321815978+328286055+332464136+334983005+336717134+337345878
1684+339876394+347583410+355468817+361515375+366210447+370950660+375539341
1670+380417343+388252148+396545188+402692775+408752301+416504482+423680416
1657+428286305+430348686+435563842+445756234+452577830+459444417+470795688
1643+481726882+489755141+495188765+498627695+504056980+513770787+522234486
1630+528092777+532440894+536273216+539865273+544305216+548904472+551638866
1616+553977275+558453729+562613804+564726761+565827930+567571736+569613217
1603+571355526+573352316+575560541+577147030+578519439+580959101+584498137
1589+588526383+592857590+597573861+602786923+608316065+613192645+617207722
1576+624061291+634039255+642402100+650620895+661024323+671706523+681651567
1562+689071906+692532184+700195182+716406723+730650903+743035758+754508334
1549+765775809+774942597+781018309+785025755+790089181+804289168+819619055
1535+829799476+838256891+847573215+855629107+861550295+866478001+870679475
1522+875275588+882234151+889979598+898932906+908742829+915490605+917067866
1508+913501746+914045622+925845800+935442442+939837644+940037658+940070977
1495+943347701+945805818+943448356+938370416+938197536+941425081+943252632
1481+943047332+942075099+939551740+933869172+925732077+921132473+923733342
1468+926213306+924059448+921348048+921549059+920157546+913157683+910355204
1454+919197283+928531364+935145964+939887523+944881867+951452075+959100858
1441+966526484+971524818+974245696+979858634+987950438+993529359+997885756
1427+1003904706+1009160414+1013207164+1016121670+1014830313+1014181991
1416+1019767895+1024800346+1025982768+1026783320+1028501537+1028060212
1404+1025808692+1024806232+1023169515+1019899575+1017406143+1016683901
1393+1018541480+1020015193+1016540351+1010083766+1008276066+1011165533
1381+1014360955+1016618062+1017497920+1016255843+1015372992+1016667841
1369+1017713196+1018207593+1018364611+1016002460+1013433114+1014283544
1358+1015510657+1015124397+1014862535+1015229242+1014537725+1012809432
1346+1011556182+1010598114+1007835339+1002387898+998062326+998083076+999755006
1333+1000984713+1002311284+1003610721+1004469731+1005682279+1007911354
1321+1010192202+1011329833+1012486518+1015015063+1018514945+1022436998
1310+1026104073+1029455615+1033082787+1036674145+1039849018+1042656185
1298+1045102631+1048128565+1052296820+1056168696+1058453834+1058947831
1287+1058738840+1059995481+1062279422+1062835968+1061582818+1060735181
1275+1060757327+1060678020+1060009048+1058793906+1057095540+1054441899
1263+1051388531+1050159323+1051085169+1052280160+1053230747+1054456962
1252+1055381312+1055801789+1056679951+1057902476+1059207400+1061169424
1240+1063166862+1064332725+1064653045+1064083132+1063302033+1063355104
1229+1064170719+1064933762+1065113125+1065219965+1066264523+1067760082
1217+1068327402+1068213279+1068185447+1068088084+1068442621+1070026666
1205+1072219528+1073566849+1073292417+1072439692+1072434006+1073057289
1194+1073444247+1073648351+1073741823+1073098788+1072232297+1072052136
1182+1072140321+1071857210+1070618625+1068215075+1065357331+1063847506
1171+1064343399+1064538324+1063537959+1062471954+1061029864+1058558978
1159+1055299711+1051658474+1047793381+1044637662+1043473396+1042862483
1148+1039641224+1034063899+1029054591+1025281076+1021602929+1017406742
1136+1012399430+1006376689+1000237532+994970651+989591544+983527604+977270533
1123+970407039+963517308+957926117+953470462+949273278+944552269+939410484
1109+934723692+930596238+927246591+925064402+923248023+920982637+918499880
1096+916962123+916896283+917098990+917004620+917498318+919002058+921166889
1082+923555276+925713223+927453886+929117836+930859497+932411021+934107192
1069+936344746+938483042+940658846+944251401+948824870+952101893+954485891
1055+958089919+961098396+961292723+960463940+959796365+958984342+959527919
1042+962247399+965348850+967944632+969756622+970417114+971079003+971701189
1028+971697797+972067298+973197846+973825818+973001324+972454455+973292017
1015+973849360+973771949+974611804+976719574+978103705+977385952+975798516
1001+974455784+973230766+972176931+971418677+970328330+968926542+968153723
988+967088516+964609151+962238321+960931901+959620194+957785460+955490047
974+952267391+948455169+945855298+945175851+944975539+944481841+944447624
961+944306866+942896100+941504687+941541896+942684615+944363928+945609695
947+946072170+946517187+947249903+948400303+950063455+951743167+953035720
934+954394314+956282418+958547206+960922225+962718752+963527883+963627041
920+963411566+963662655+963855286+962501182+960413663+959321022+958994716
907+958198255+956585979+954817284+953504280+952641779+951800327+950766743
893+949927985+949162847+947697314+945950067+945160090+945868066+947681852
880+949006029+948729402+948472926+949881398+952121446+955364652+961089817
866+967931764+973394867+976958991+979403841+981904754+984619845+986753252
853+987712517+987199865+985925567+985211006+984535949+982112947+979029053
839+978070087+979233256+981334043+984385914+987033171+985556765+979296701
826+973565651+973208620+976738129+979609341+981247254+983464158+986064429
812+988252104+989124680+989268231+990538838+992126075+992902086+994129898
799+997041910+1000312050+1001911457+1002617639+1004081675+1006856621+1010298543
785+1012751273+1014671699+1018032120+1023187871+1029598966+1034441879
773+1034243861+1030938805+1028270600+1028375145+1032345282+1036952268
762+1038456108+1037756411+1037068386+1037469709+1038397650+1039046371
750+1040282263+1042014746+1042016941+1039510741+1036193316+1033921944
739+1033869572+1035714082+1037022797+1035839477+1033767620+1033508052
727+1033565911+1031257529+1029331218+1030023134+1029712390+1027309938
716+1024831869+1021648318+1019248958+1020081133+1021454390+1020592388
704+1018845440+1017462107+1016005952+1014349583+1013169855+1012320622
692+1010813490+1009963060+1011417220+1012856218+1012378581+1011933564
681+1012781300+1013524392+1013622952+1014819240+1016635220+1014479068
669+1008075454+1007802918+1013913844+1015909686+1015858510+1017073952
658+1017318457+1017810858+1021193924+1023321944+1021129980+1020352173
646+1023930563+1026319648+1023593184+1017599174+1013105012+1012741996
635+1013472418+1011496727+1007703559+1005659834+1005695048+1005380913
623+1006421380+1008790913+1005925886+1000797469+1001837238+1003610622+999654551
609+996888783+1003785197+1018021246+1030274721+1032781320+1024084788
##END=
