##TITLE=Sample description
##JCAMP-DX=4.24
##DATA TYPE=INFRARED SPECTRUM
##DATE=24/8/2023
##SAMPLING PROCEDURE=Instrument type and / or accessory
##ORIGIN=Default
##XUNITS=1/CM
##YUNITS=ABSORBANCE
##RESOLUTION=4
##FIRSTX=4397.6552
##LASTX=599.8556
##DELTAX=-1.9287962
##MAXY=1.5291469
##MINY=0.59073019
##XFACTOR=1
##YFACTOR=1.424129e-009
##NPOINTS=1970
##FIRSTY=0.83239061
##XYDATA=(X++(Y..Y))
4398+584491000+585126544+587551614+589402497+588982540+588175355+588180378
4384+586980859+583862195+581630781+582113225+584005668+585457186+585874172
4371+585827128+586347492+587167651+586837009+585923475+585950177+586213854
4357+585837927+585012871+583451864+582408543+584315091+586937374+586126129
4344+583397748+582627059+584361004+585742459+584934605+584265997+585017977
4330+585553491+585411775+585345061+585773724+585595595+584139223+583711481
4317+584979681+585283578+584069955+583555075+583695451+582301147+580505217
4303+580754078+581908269+582758102+583723618+584081172+583899193+584378164
4290+584620913+583265993+580959536+579105179+578744445+579689160+580364297
4276+580581307+581590183+582401469+582136454+582380836+583087907+582847166
4263+581556240+580175580+579659737+579630565+579515761+579495588+579688992
4249+579611019+578481271+576989741+576482561+576860205+577747664+579002011
4236+579425609+578636337+578000919+577776292+577314984+576734519+576887158
4222+577801027+578019962+577806761+577975514+577547605+577143929+578150210
4209+579196922+578422006+576823667+576302968+576705975+577185364+577694636
4195+578219394+578263465+577500520+576237384+575066661+574742171+575136137
4182+574933483+574298567+574771804+575734976+575577272+574833454+574535750
4168+574862123+575655873+576066497+575626910+574789759+573958759+573612046
4155+573498665+572782804+572192881+572588312+573246205+573931555+574721956
4141+574299028+572317771+571049906+571779369+572950218+573234235+573046816
4128+573032627+573221637+573082140+572327690+571653181+571571106+571646819
4114+571703949+572070041+572558554+572576676+572483887+572918660+572983659
4101+572290274+571871739+571719016+571599232+571930669+572156594+571711901
4087+571359370+571461032+571466557+571450025+571632547+571582532+571255406
4074+571011736+570707755+570031278+568821882+567694686+568012563+569178055
4060+569878220+570798535+571300817+570157843+569051029+569127035+569070240
4047+568022482+567007998+567105265+567556361+567211614+566100616+564928344
4033+564356208+564862383+566416567+568111462+569539166+570836454+571284076
4020+570866128+570269549+569333540+568512669+568347013+567781992+566478803
4006+566052945+567141594+567930698+566966939+565673669+565725777+566586199
3993+567228900+567057970+566291091+565679487+564889336+564272041+564963836
3979+566277530+566684931+565870422+565202525+565308205+565219769+565514124
3966+566742940+566799609+565057462+564281583+565452683+566695687+567105139
3952+567298586+567291219+566959531+567008416+566374630+564309332+563454644
3939+564554509+565921567+566168711+564418611+562853336+563591002+564215036
3925+563185610+562609121+563578739+564616620+564544213+563750547+563081646
3912+562692410+563060510+563972328+563318662+560384362+558054341+557655478
3898+559171032+562200507+564210181+562964373+561549686+563061640+563143506
3885+560799966+560746143+561030662+560758406+561241436+560349707+558980808
3871+557491497+555652542+556803594+557975657+557209070+558305671+561034513
3858+563564676+563865016+557035420+552060557+556006370+560995966+563401615
3844+562335944+559173041+555757259+553109697+553584942+555867752+557014619
3831+557455084+558294747+559250302+560772134+560394449+555008251+552357591
3817+553846568+555704607+559035845+562634275+564350516+562489504+559746097
3804+558215309+555137871+555406444+559153077+560366742+560597145+561890373
3790+562695088+562463639+561428855+560495315+560539052+560015089+559071797
3777+560093188+562087628+562718526+560766986+558556959+558715457+559443497
3763+559780543+559197692+557175210+556741442+558882285+560254491+557507192
3750+554693513+556940580+558116745+555020597+555046002+558102347+559172538
3736+556676276+553742185+553573642+556187386+559369375+560172709+558539045
3723+557338732+557616973+558960132+560887147+562084782+559321202+553503788
3709+553231490+557137668+559973696+559904429+557969923+557400968+558071417
3696+558760073+559364060+558689801+555698078+554278578+556402597+558625766
3682+559059869+558393563+557192412+552609130+548401440+549948342+549669975
3669+547404827+549347285+552023182+552316868+551873682+551834507+549630005
3655+546750030+547297598+546716213+538971199+533376111+535254156+537955249
3642+538468037+537151957+535325516+533427841+531815774+530840129+526443764
3628+517609013+514913027+516498475+516764537+513130658+507081334+504324660
3615+504093211+503840960+502998953+499976761+496043881+494373511+493540085
3601+491487008+489319378+487958180+486143124+484304462+484176725+483869228
3588+480493166+477239817+476398187+475462596+473557178+471389046+469689631
3574+468864240+468877926+468558584+465189679+459789878+458548339+459842446
3561+459291111+457645812+457526781+458047647+456907853+454965813+453986695
3547+453015445+451740548+451511066+451676680+451040801+450045946+449599496
3534+449420196+448278393+445970764+443810877+442806689+442667693+442844231
3520+443111214+443073713+442418582+441243799+440027874+439355290+439111577
3507+438940188+438404004+437102865+435843664+434970560+433894551+433089208
3493+432796066+432171697+431244226+430403851+429735662+429660661+429972134
3480+429868630+429299047+428705273+427997741+426996273+426178751+425613144
3466+424887992+424186696+423746775+423156307+422336859+421947539+421736556
3453+420959506+420303956+420134826+419375606+418193289+417762701+418073672
3439+418557288+418782543+418505222+417834563+417071450+416618262+416712013
3426+416900521+416562011+415983597+415737666+415653876+415778682+416492074
3412+417156455+416906548+415814132+414801029+415017662+415864733+416145569
3399+416436074+417123390+417754540+417936435+417462110+417144066+417558247
3385+418015077+418222251+418792964+419795688+420458688+420661133+421136169
3372+422083646+423266549+424454139+425243327+426252998+428305238+429908098
3358+430239242+431085183+432480575+433381428+434550645+435919293+436734053
3345+437414213+438250318+439316199+440313523+440333236+439815886+440103670
3331+441165868+442285990+443092129+443374346+443403183+443396821+443223841
3318+443209444+443529246+443912288+444343462+444549464+444096527+443453868
3304+443345677+443681676+444014913+444311025+444960632+445949753+446548508
3291+446568430+446763802+447327442+447516368+447543657+448744180+450990996
3277+452733939+453346840+453451850+453732310+454201989+454510155+454550167
3264+454700463+455079529+455278416+455689207+456622957+457364264+457969632
3250+458501003+458189362+457641208+458035467+458869020+459307057+459545287
3237+460005172+460829475+461741586+462195570+462181089+462091899+461964414
3223+461652396+461469455+461913520+462566851+462747198+462780890+463159412
3210+463651147+463704050+463225038+462681111+462483103+462866480+463786125
3196+464865398+465717366+465999584+465867704+465878083+466083123+466688742
3183+467897426+468731648+468847582+469062206+469517530+470353760+471809129
3169+472957963+472689473+471655736+471393232+471886097+472467022+473153962
3156+473825542+474336488+474802149+475622978+476842210+477484701+477402543
3142+477510608+477764784+477602100+477165904+476945504+476978526+477127817
3129+477553676+478022727+478056586+477675595+477309670+477433473+477875319
3115+478386642+479210694+479861012+479774375+479496134+479354544+479052823
3102+478734318+478877415+479483243+480099200+480368861+480178093+479618137
3088+479125899+479266986+479934172+480345716+480188054+479862895+479673467
3075+479521957+479487847+479962841+480684059+481042617+481240081+481607471
3061+481818035+481712481+481830884+482344132+482678122+482658326+482479612
3047+482383767+482778403+483468022+483701731+483378121+483037266+482722110
3034+482302656+482263523+482620741+482886971+483195975+483368745+482948077
3020+482956196+484296091+485540351+485222140+484045013+483536661+484028146
3007+484661723+485100848+485458779+485483556+485508459+486347326+487828811
2993+489046159+489796172+490498514+491343953+492200650+492927811+493594076
2980+494290516+495004284+495446758+495411811+495322914+495506023+495593413
2966+494895047+493676903+493101126+493270591+493706033+494234684+494318181
2953+494001225+494102636+494704195+495358782+495728850+495471452+494854742
2939+494597553+494724452+494968458+495404863+495708091+495513807+495274280
2926+495340618+495459900+495218071+494464417+493670751+493375601+493427918
2912+493348982+493346638+493697956+493995282+494108579+494148005+494240083
2899+494652841+495227488+495601951+495679882+495655565+495838590+496372807
2885+496969929+497172081+497067950+496854288+496499915+496257124+496293662
2872+496388627+496420394+496529464+496929624+497492343+497638830+497356529
2858+497150485+496954987+496646821+496403192+496282864+496345937+496616686
2845+496995460+497360589+497707679+498063935+498468490+499157481+499981951
2831+500255170+499884893+499619208+499959643+500631348+501112579+501169290
2818+500997817+501028579+501476159+502357466+503393966+503999626+504287787
2804+504681042+505094218+505677487+506334418+506520666+506437294+506541300
2791+506818286+507194380+507507151+507601823+507754086+508050324+508155083
2777+508150145+508342335+508720565+509185807+509767109+510522019+511302334
2764+511759791+511810392+511872461+512094158+512184729+512244956+512491807
2750+512695591+512696345+512941606+513711834+514349219+514355581+514131833
2737+514115803+514255007+514422881+514839909+515585276+516331187+516964178
2723+517493498+517778101+517953090+518315834+518871521+519410468+519874957
2710+520424366+520831181+520656150+520272815+520403523+521130266+522054096
2696+522700480+522945782+523075151+523262152+523490588+523754014+523999400
2683+524053349+523921176+523904100+524079800+524342012+524721413+525167905
2669+525472431+525569112+525846098+526602807+527424348+527817309+527862929
2656+527851713+527816849+527910391+528372243+528818903+528942956+529127697
2642+529472569+529694895+529920777+530414606+531001474+531406322+531641747
2629+531791499+531921956+532132060+532336974+532416077+532641416+533228912
2615+533988844+534860567+535755728+536269060+536280151+536306393+536868275
2602+537638377+538062980+538336325+538759504+539154559+539543837+540373623
2588+541378858+541725864+541554475+541529656+541757254+542100243+542521414
2575+543034243+543507898+543741608+543921326+544354928+544896511+545288844
2561+545443242+545384940+545512216+546079874+546654981+546980768+547235111
2548+547408635+547577472+547877728+548262487+548821188+549424672+549781640
2534+549884766+549736396+549563709+549854883+550640974+551414843+551948934
2521+552600592+553277026+553336458+552971831+553038462+553671160+554339852
2507+554784879+555056340+555142726+555224130+555533594+555910568+556177132
2494+556362710+556615589+557022697+557302403+557235186+557039354+557034123
2480+557303700+557717338+558060535+558200786+558222592+558152948+558094102
2467+558261808+558400008+558101426+557462869+557030900+557117118+557287210
2453+557061118+556685233+556583947+556551427+556227733+555740057+555464411
2440+555506264+555526898+555422390+555379825+555260585+554885118+554362913
2426+553973425+553724439+553330850+552902522+552591468+552230566+551890047
2413+551599877+551232195+550920010+550690737+550437817+550193226+549949514
2399+549676588+549267052+548567138+547879737+547715630+547806536+547413574
2386+546338444+544929114+543628269+542356679+540379357+537151664+533131561
2372+529435613+526243831+522729693+518954056+515975057+514181889+513197456
2359+512984547+513743140+515717533+519144364+523288562+526114378+525872172
2345+522815284+519422731+517645426+517622574+518377149+518794888+519066307
2332+519645056+520355350+521005333+521449230+521822856+522669424+524029158
2318+525303552+526174103+526820445+527456700+528148286+529035913+530238068
2305+531363464+531884706+531957741+532044754+532293447+532661506+533051956
2291+533381677+533705957+534084814+534374147+534505650+534747102+535165511
2278+535314760+535050289+534825745+534904220+535222515+535618993+535912594
2264+536067242+536145048+536378171+536934529+537584261+538013175+538135261
2251+538106759+538286435+538897118+539532579+539770934+539907250+540345204
2237+541079899+541821290+542384972+542842890+543218273+543536694+543953219
2224+544488900+545010184+545572694+546205099+546709558+547034131+547355440
2210+547989728+548900165+549567811+549987182+550669267+551534209+552066961
2197+552492275+553318378+554205419+554766756+555224633+555743657+556303948
2183+556963014+557856458+558923636+559848011+560642430+561397926+561837010
2170+562117553+562662568+563371146+564048125+564676010+565345287+566194116
2156+567110957+567741144+567939780+568095391+568504466+568978121+569467303
2143+569990178+570344090+570322159+569773126+569003986+568541213+568276616
2129+567893197+567402550+566822629+565976269+564775788+563535756+562515788
2116+561551151+560503853+559449524+558440104+557356226+555963345+554310387
2102+552823336+551732469+550839066+549789424+548472674+547152325+545880065
2089+544433361+542936892+541758719+540913615+539911770+538422124+536795743
2075+535498957+534539258+533765096+532989008+531808115+530097524+528375508
2062+527167410+526283047+525253119+524171878+523334391+522541353+521479658
2048+520262603+519116991+518051529+516979496+515923200+514984596+514061770
2035+513117892+512168908+511093443+510074690+509232055+508382682+507529040
2021+506722148+505825146+504740264+503669780+502811492+502091948+501405009
2008+500754397+500141873+499416135+498524741+497696546+497077995+496519503
1994+495760324+494671340+493548162+492762616+492256734+491933291+491587540
1981+490835811+489838737+489148868+488793616+488333480+487593553+486652814
1967+485683699+485101895+484895265+484543068+483938998+483314755+482686661
1954+481985365+481257744+480585578+479952587+479268117+478376137+477464193
1940+477151171+477256558+477110448+476522826+475780724+475278818+475053019
1927+474831823+474156184+473138686+472567722+472121523+471516239+471494559
1913+471728519+471345393+470368953+469576501+469355222+469229160+468833185
1900+468378113+468009719+467647143+467459388+467410085+467021853+466538488
1886+466435026+466407445+466302267+466187547+466071153+465921653+465656637
1873+465193738+463988988+462089471+461544708+462674959+463692038+463973879
1859+463824839+463614316+463561832+463559907+463416308+463057080+462379181
1846+460868984+459117336+459468779+461033552+461703709+461456313+461079591
1832+460144209+458176681+457002358+457278381+457613041+458201332+459050831
1819+459359416+459041372+458532644+457800795+456702604+456013446+456076142
1805+456186007+455698876+454419124+453350900+453340185+453300927+451999830
1792+450369598+450749041+452097767+452481353+451824422+450970446+450371482
1778+450233617+449929259+448144337+445072046+444411306+446413071+448087541
1765+448651098+448037610+447145045+447307938+447770209+448200546+448199123
1751+446388545+443818746+443455877+444484884+445074724+444639323+443813305
1738+443927020+443629987+441023608+440147198+442149632+444070452+445117666
1724+445219537+444908692+444140724+441216008+437646666+438474778+441297706
1711+443196427+443330191+441482740+439571462+439382452+438146061+435021161
1697+434510298+436602340+439311804+440905749+440814467+439986188+437590206
1684+433599568+434370801+437685548+439691540+439344408+437581542+436001200
1670+434287638+434543781+437070764+438073655+436900504+436632726+437529435
1657+437409441+434189575+428169717+428321896+430005784+429346802+430698709
1643+434344684+436663153+436987643+435416006+434320535+438271914+443370328
1630+446624849+448845967+451392370+454364798+458331873+462491264+465137362
1616+467937647+473251481+478535138+482343504+485540560+489073113+492564733
1603+495815487+499257678+502744820+505774336+508619070+511902009+515517683
1589+519104519+522643475+526297989+529959199+533244524+535636738+536631384
1576+538289491+543006746+547355230+550118727+554045915+559471121+564387096
1562+567632660+567356050+566120915+573175808+582082128+589749797+596149098
1549+601964252+606669704+608952012+608617980+608543397+617074962+628883648
1535+637298358+644444283+652173392+658862779+663964458+668170641+671475135
1522+675300201+681853648+689519266+697456931+704857324+710213471+713100017
1508+713548936+717387814+728598917+738044728+743658357+746411223+750214944
1495+757165036+763573210+767643872+771285034+777817179+785401601+791739713
1481+797351668+802569448+806695440+808938698+809706708+813836635+821950419
1468+828827937+833289175+837862496+843149167+846583657+847550722+852549776
1454+862799423+871770867+878685216+884398122+890906995+898815698+906285944
1441+912032081+915916328+919830207+926732000+935051201+942310757+947972518
1427+952262492+955687523+960496898+966755237+970123682+971407493+975524445
1414+980047877+983661667+988384824+992387850+992331097+991308535+992734480
1400+993179298+991354574+990600040+992151295+995223083+996828496+994394135
1387+990772309+991247680+994179678+996607343+998776186+999888733+999542355
1373+1000857221+1003743599+1004551035+1003959646+1004080268+1003391528
1362+1002452338+1003445686+1003576939+1001745350+1001343055+1002986806
1350+1003840113+1003469627+1002219047+1000689975+1000255453+999290397+996891779
1337+995928397+997061955+998912879+1000466143+1001362810+1002012626+1003218004
1323+1004627208+1004944038+1005522871+1008735873+1013449821+1018268236
1312+1022891949+1025934189+1027576433+1029505707+1031895118+1034218568
1300+1036868139+1040659806+1045446161+1049970179+1052888366+1054335907
1288+1055439163+1056083705+1056361361+1056973006+1057609848+1058428584
1277+1059681089+1060378618+1060155790+1059682596+1059116989+1058270629
1265+1057091452+1055543629+1053876692+1052806584+1053157650+1054615572
1254+1055639892+1055954546+1056741976+1057770230+1058118953+1058482826
1242+1059859719+1061400427+1061133067+1059955480+1060497733+1061394735
1231+1060476890+1058980882+1057716323+1057021473+1058266611+1060744333
1219+1062496232+1063127884+1063279393+1063523901+1063207489+1062872076
1207+1064168694+1065385373+1065644194+1066836932+1067679693+1065996516
1196+1063810346+1064345232+1066965841+1068969447+1069855400+1069841002
1184+1068725107+1067139951+1065740122+1065019574+1065448237+1066254752
1173+1066112701+1065540900+1066053939+1067071312+1066543289+1063913305
1161+1060904129+1059302316+1058628225+1058167168+1057883402+1057136988
1150+1056711172+1057614870+1058379699+1056703805+1052633060+1049426168
1138+1048505728+1047765342+1046006997+1043689155+1041381024+1038920965
1126+1036097450+1034080033+1032918936+1030463313+1026199539+1021612239
1115+1017320257+1013387795+1009912037+1006649313+1004019915+1001816836
1103+998028768+992917547+989392988+988478408+988613427+987761040+985719599
1090+983972052+983097149+982420881+981037961+977890167+973988007+972185046
1076+971640533+969983055+967931485+965989738+963457272+959857294+956125561
1063+954039169+952469164+949736723+947320693+946374137+945330480+942851336
1049+939951816+937398424+934349236+932033906+932508021+933566410+932245935
1036+929308580+926325520+923828714+922243809+921411178+920516268+919780402
1022+919840001+919544265+917846607+916228220+915573549+914500176+913249178
1009+913678427+915560407+916615029+915375833+913201298+912129265+912327901
995+913552029+915527594+916500099+915275887+913061759+911188484+909845660
982+908856915+908351242+908235476+907286743+905343657+903827559+902301417
968+899484348+896726795+895674014+895102631+893218726+890373364+888196904
955+887671141+888036103+887949383+888142746+890216330+892910350+894311184
941+895644800+898260303+901335273+904342440+907421008+910239416+913253112
928+917452515+921573318+923627985+924659336+926420695+928238304+929421584
914+930837987+932565946+933770654+934282270+934111174+933585579+933048851
901+931932872+930566191+929730546+928312050+926503397+926766739+928031130
887+927433715+926468408+926914146+926831528+925109428+924317310+925520930
874+926029700+925840774+926922517+928276977+929989116+933871521+939023842
860+943148662+945584447+947273064+949475306+952604099+956139707+959399166
847+961900075+963955746+966571082+969652831+972222128+974541895+977242192
833+980045952+983183618+985848926+985842062+985082423+988240513+995227269
820+1001155803+1003219427+1004009033+1006562677+1009596295+1010097113
808+1009462615+1012067989+1017106302+1019896585+1019641781+1018511990
797+1019455199+1024177099+1028876065+1029853341+1029884146+1032747337
785+1037759282+1041409735+1042487628+1042907920+1044855275+1049509038
773+1054480050+1055485788+1053057537+1051498163+1052299907+1052610961
762+1050598985+1048742954+1049915267+1053544460+1055292592+1052718357
750+1048387702+1044384424+1042448118+1044235677+1047721647+1050908532
739+1052981029+1051570569+1047412518+1044628011+1046318470+1051312166
727+1051712452+1044306493+1036027304+1031232830+1031506383+1037080587
716+1041489257+1039014884+1033339981+1031112710+1034063794+1039304091
704+1041677095+1038613510+1034873322+1035200699+1037257208+1037816537
692+1037331624+1036432194+1034865956+1033216513+1033462528+1034647397
681+1033760524+1033503795+1036171112+1038453797+1039262740+1039620419
669+1040198247+1044160676+1049991357+1053046823+1053126930+1049305463
658+1042768213+1039656664+1042514163+1047022025+1050344683+1055380987
646+1059943175+1057328342+1041726900+1015881086+1003140826+1011734083
635+1024851776+1035555951+1039687803+1036227447+1030261998+1014447439
623+1003264294+1023069910+1059093551+1073741823+1065800224+1049862030
611+1034825442+1022391633+1008146828+1004448410+1017120783+1034798237
600+1056973006
##END=
