##TITLE=Sample description
##JCAMP-DX=4.24
##DATA TYPE=INFRARED SPECTRUM
##DATE=24/8/2023
##SAMPLING PROCEDURE=Instrument type and / or accessory
##ORIGIN=Default
##XUNITS=1/CM
##YUNITS=ABSORBANCE
##RESOLUTION=4
##FIRSTX=4397.6552
##LASTX=599.8556
##DELTAX=-1.9287962
##MAXY=1.5550725
##MINY=0.5522278
##XFACTOR=1
##YFACTOR=1.4482742e-009
##NPOINTS=1970
##FIRSTY=0.79477459
##XYDATA=(X++(Y..Y))
4398+548773574+550581706+552239208+552478034+550947497+548674430+547724023
4384+547847655+547572488+547219620+547379139+547898770+548118006+547904738
4371+548405190+549460914+549359795+548424451+548337983+548737522+548923134
4357+549391608+549503552+548211265+545712706+543695627+544430008+546868850
4344+547968817+547851811+547496515+546393750+545222007+545287404+546736329
4330+548909511+550472026+550414614+548764849+546210977+544463756+545077633
4317+547226369+548561499+548279254+547338806+546236905+545088457+544656323
4303+545488449+546806541+547462891+547402845+546927250+546120723+545364817
4290+544963097+544735136+544602985+545163114+546431366+547250857+547219825
4276+546896466+546457335+545889511+545493182+545242174+544454126+543308929
4263+543006188+543439598+543317818+542900048+543533844+544568003+544493388
4249+543753080+543174309+542803702+542788269+542824939+542467913+542055205
4236+542193981+543270654+544692705+544928774+543734025+542359098+541279627
4222+540469108+540566893+541355641+541327655+540404452+540324569+541208427
4209+541036356+539724191+539549691+540650151+540817572+539522610+538168878
4195+537546893+537576813+538159371+539001662+539630273+539716659+539315639
4182+539077759+539043806+538396139+537585744+537998864+539319219+539484747
4168+538110602+537359059+537976146+538851197+539245304+538798230+538388937
4155+538755181+538702831+538030142+537873504+537933427+537253494+536214438
4141+535797655+535943881+535823418+535544013+536113319+537152004+537007713
4128+535675258+534783868+534998577+535758927+536496724+536705054+536178509
4114+535142786+533993392+533480263+533686947+533685589+533273950+533232794
4101+533799508+534420423+534762673+534791811+534400009+533799672+533320456
4087+533032366+533073193+533045989+532140853+531034672+531109369+531964460
4074+532489976+532992857+533914579+534546894+534369595+533546935+532356797
4060+531468823+531768600+532684396+532651265+532156616+532562328+533384823
4047+533642252+533176617+532462937+532162007+532253578+532139001+531835972
4033+531729338+531875728+532256295+532355809+532030926+531901657+531743166
4020+530954048+529656740+528732796+529205016+530895237+531855521+530660114
4006+529116161+529133940+529535989+529253621+529005617+529011049+529123980
3993+529253456+528605666+527850625+528431496+529281606+529181022+528693040
3979+528405485+528501872+528778108+528775269+528472116+528163243+527956560
3966+527685385+527179418+526784200+527133241+527951374+528412029+528381039
3952+528201806+527502654+526001008+525048461+524865771+524569163+524987962
3939+526100770+526356387+525435571+524180201+523818854+525017430+526646905
3925+527245555+526947958+526442773+525327126+524052454+524674109+526873837
3912+528205880+528206004+527579492+525392522+521556117+519544883+520655961
3898+522911825+524952322+525446971+523612953+522669583+524127645+523533893
3885+520852562+520973395+521668637+521752882+523099536+523546733+522378613
3871+520762554+519937590+520972942+520754611+519492574+521393388+524862932
3858+526739917+525183040+517627730+513227245+517523400+522799429+525048626
3844+523820459+521268686+518776918+516404090+516489447+518389562+519828404
3831+521452611+523033234+523203042+522994013+521554759+517979158+518187899
3817+519314781+518169214+519756011+522917505+523474423+520040849+517990516
3804+519786466+519766753+518654892+519135631+519229918+520264530+522591634
3790+524305643+524636452+523661804+522887543+523655261+523743622+522816221
3777+523585872+525133818+525691353+524628715+523168966+522916105+523050725
3763+523560150+523279592+520769180+519377832+520521259+520806755+517831285
3750+515964136+518063938+518413596+515903350+516647937+519432281+519936067
3736+516119746+512064228+513598099+518666704+522727818+522997017+520744158
3723+519631762+520384087+521891207+523026361+523122624+520467468+515312972
3709+514617318+518508625+522106533+522606286+521138552+521494548+522805767
3696+522997882+522165015+519861246+516112132+515122833+517742225+520502903
3682+521498829+520903718+519706830+515842439+511516447+511609047+510842029
3669+509616373+512089251+514690081+514994757+514349477+513700288+511430925
3655+509118719+509223996+507142261+499128971+495620947+499439367+502928747
3642+503442493+501990810+499671608+496964884+494881833+493283883+488132226
3628+480176018+478827924+480661079+480265326+475322575+468529591+466480040
3615+466981809+466398099+464762492+461479630+458136805+457140427+456593633
3601+455031530+453356372+451511817+448706978+446180105+445353000+444159198
3588+440593597+438533470+439043594+438792627+437398027+436103147+434988735
3574+433638048+432522483+431400663+427472193+421535451+420477751+422980384
3561+424353460+424053230+423371034+422421614+421115088+420180361+419608874
3547+418415442+416783292+415722423+415279054+415215756+415010637+414241026
3534+413417625+412269795+410096818+408137357+407589411+407296301+406660240
3520+406447383+406297536+405721069+405205677+404782391+403824082+402486153
3507+401746134+401161189+399934710+399044472+398866104+398732595+398439526
3493+397711071+396552745+395742350+395531468+395324702+394879316+394424505
3480+394052376+393528753+392445166+390931544+390006448+389890018+389762148
3466+389562749+389292068+388411420+387335076+387097732+387541513+387518096
3453+386829191+386243259+385807626+385162758+384517767+384078596+384078184
3439+384200540+383547976+382712805+382586663+382781946+382872242+382586580
3426+381964348+381529580+381378909+381300590+381503570+381943112+382093947
3412+381769806+381357879+381445417+381890062+382299643+382578473+382260916
3399+381522007+381357591+381941342+382489947+382643663+382761368+383154528
3385+384013282+384926278+385142880+384900432+385041267+385800424+386952946
3372+388664568+390742845+392145965+392841371+393920184+395258730+396055832
3358+396602667+397166870+397781035+399058794+400998377+402820049+404111184
3345+404814904+405245598+406054018+407195017+407981336+408096943+407937135
3331+408301033+409216664+409777121+409718392+409609083+409536320+409383715
3318+409472734+409711807+410055951+410831488+411291443+410737776+410214853
3304+410595789+411066610+410695592+410234813+410975450+412256831+412786751
3291+412836426+412979153+413694521+415163118+416632539+417585580+417801318
3277+417619822+418083399+419236785+420436802+421657148+422818355+423322923
3264+423156119+422812469+422682130+423271766+424305267+425049608+425603110
3250+426239952+426706451+426676366+426546068+426864324+427246413+427188301
3237+427088417+427487503+427972975+427955566+427871896+428590021+429903586
3223+430557302+430291148+430173896+430393667+430144634+429723489+430060512
3210+430889551+431372183+431288473+431225463+431661178+432179533+432545777
3196+432860947+433046148+433192950+433404119+433853457+434510301+435166239
3183+435874281+436170848+435664716+435118457+435433627+436708629+438077959
3169+438504373+438485729+439257974+440302051+440363291+439819913+439769867
3156+440414735+441080551+441388025+441761677+442184139+442413747+442753610
3142+443042564+442939592+442692658+442547708+442477332+442484329+442698461
3129+442956919+443096807+443266903+443491819+443754597+443878105+443792584
3115+443826167+444024866+444202453+444215623+444025360+443949263+444303902
3102+444736900+444745255+444479225+444200313+444110552+444236736+444304107
3088+444370203+444495769+444645329+445022932+445592731+445982270+446022067
3075+446039229+446293859+446651625+446970087+447081578+446771347+446343575
3061+446330323+446330529+445797851+445349214+445615573+446255296+446647468
3047+446688624+446940825+447586475+447815012+447225828+446668540+446811268
3034+446962226+446518980+446372548+446934282+447448604+447744595+447926462
3020+448069560+448309950+448365634+448341393+448602608+448956382+449082976
3007+448985191+449148455+449813530+450503052+450929547+451344602+452121744
2993+453156438+453984283+454430369+454424937+454273114+454774142+456116804
2980+457496876+458194299+458424565+458529759+458467573+458209691+457693106
2966+457125858+456892423+456857893+456542929+455906128+455797148+456714631
2953+457588653+457679648+457893410+458607090+459137175+459225412+458590422
2939+457261630+456611412+457381434+458377071+458651621+459151209+460470288
2926+460937322+459643266+458085319+457306161+456749860+455716977+455090465
2912+455878513+456769779+456712696+456635859+457111700+457851596+458709568
2899+459539553+459911312+459712037+459372503+459156888+458877442+458522351
2885+458469630+458727265+459010333+459361761+459861637+460405838+460864930
2872+461101863+461051118+460898430+460816160+460684750+460655118+461126515
2858+461730391+461667341+460945224+460053135+459276898+459021898+459616556
2845+460690430+461539223+461788174+461570502+461563588+462260435+463152195
2831+463636762+463734959+463495557+463121205+463186478+463878633+464592601
2818+464911434+465295704+466020743+466808544+467491028+467814964+467599926
2804+467256194+467414602+468166104+468970367+469508601+469857271+470085685
2791+470336776+470617334+470835747+471111037+471587537+472217794+472717382
2777+472922337+472935590+472826033+472804221+473225490+473957155+474275329
2764+474029424+474085725+474746520+475327514+475567492+475843235+476226065
2750+476418920+476536008+476914558+477391346+477763557+478143547+478444477
2737+478641818+479013207+479442131+479707708+479946864+480142394+480407601
2723+480993534+481511560+481742443+482252485+482948344+483119017+483034812
2710+483271210+483661119+483999665+484411839+485013987+485605723+485934062
2696+486261785+486868748+487496124+487875538+488050408+488168813+488271908
2683+488257092+488059339+487777588+487875620+488609590+489307014+489526167
2669+489597655+489574402+489476657+489665191+490148399+490668113+491045345
2656+491076747+490978426+491213054+491644119+492001843+492413235+492805654
2642+492962334+493231492+493949699+494629507+494792813+494716140+494793636
2629+495007193+495221778+495471428+495778573+496039664+496296064+496741615
2615+497341828+498014558+498737622+499230625+499394754+499594276+500123291
2602+500851416+501456898+501817710+502033941+502438748+503159136+503775319
2588+504178356+504684776+505293632+505788982+506100489+506382075+506841660
2575+507486693+508007106+507951875+507479820+507315773+507636540+508145883
2561+508667983+509036655+509317501+509651932+509900965+510119048+510514554
2548+510904216+510932407+510911130+511508668+512368245+512794041+513024142
2534+513456112+514039164+514453560+514669010+515105013+515577520+515667775
2521+515823425+516318445+516669050+516798114+517060317+517366062+517438537
2507+517413803+517591471+517908823+518146044+518387504+518835112+519406805
2494+519890178+520365156+520930963+521312147+521184112+520781733+520808649
2480+521287083+521569781+521534264+521572045+521808813+521796672+521323341
2467+520946108+521057723+521359270+521412155+521238931+521117769+521008830
2453+520840009+520865690+520993437+520867830+520818114+521053031+521063567
2440+520723786+520401990+520228642+519962324+519363633+518612090+518233911
2426+518244776+518060440+517683660+517371330+517003728+516623120+516293670
2413+516009901+515701028+515235270+514727780+514319146+514030398+513708890
2399+513223583+512800297+512520315+512103079+511407631+510723254+510314908
2386+509748318+508543816+506860098+504832813+502399650+499613908+496606624
2372+493516289+490091605+485960073+481485220+477723636+475581979+474834264
2359+474775329+475621201+477903445+481626837+485941018+488698692+488132267
2345+484845166+481534895+479656840+478883855+478892086+479315907+479685937
2332+479868956+480338707+481395295+482677993+483873523+485114448+486497071
2318+487748408+488694206+489512380+490291168+491024397+491846028+492697456
2305+493389735+493966202+494456942+494764415+495040241+495534232+496059213
2291+496359484+496613209+496977272+497309398+497467682+497496944+497603167
2278+497823267+497921012+497897800+498002459+498248117+498551681+498905043
2264+499226633+499500441+499715150+499820715+500058265+500602919+501239720
2251+501857631+502426690+502809560+503142427+503654568+504247703+504819807
2237+505422738+505995994+506418827+506655267+506893558+507414588+508143166
2224+508843882+509463480+509932572+510172468+510267456+510539042+511306059
2210+512358491+513321492+514195555+514965701+515583200+516183290+516818280
2197+517519079+518367091+519220658+519860217+520372646+521013645+521822271
2183+522668842+523519365+524379600+525126533+525690777+526319718+527212424
2170+528146410+528981623+529925651+530986849+531804323+532263332+532724070
2156+533344285+534035576+534892601+535765759+536189292+536138094+536103277
2143+536308108+536503351+536595375+536654639+536597556+536455404+536131756
2129+535352557+534499894+533861611+532788355+531167481+529776585+528893344
2116+528174108+527309264+526184768+524880011+523620196+522474300+521242841
2102+519833960+518349476+516834413+515320668+513811944+512263092+510734243
2089+509212060+507717493+506515090+505533117+504372857+503010482+501643950
2075+500244618+498736222+497333350+496199224+495054069+493721408+492407062
2062+491231492+490146300+489143173+488188362+487083374+485717954+484371588
2048+483262197+482124491+480781418+479510614+478531645+477654865+476574406
2035+475394803+474361920+473288623+472069675+471011687+470142274+469206765
2021+468261585+467292905+466134662+465124867+464453413+463754384+462956294
2008+462179194+461287433+460294019+459416128+458655860+457900901+457110219
1994+456174792+455111824+454227019+453473336+452661500+452064743+451634461
1981+450991116+450185700+449379420+448580836+447772828+446940661+446125327
1967+445483134+445137962+444850778+444314149+443556803+442833493+442310199
1954+441873908+441402182+440873867+440158706+439261060+438227436+437254353
1940+436871358+436775918+436437537+436072486+435755670+435298884+434764231
1927+434164141+433243695+432195831+431614343+431125743+430577015+430621546
1913+430675171+429930707+429012895+428812303+428987543+428926510+428737852
1900+428558661+428099117+427348932+426852389+426537178+425875972+425459147
1886+425627597+425644718+425434042+425262382+425132166+425050595+425001167
1873+424736578+423426306+421092740+420340868+421814898+423238142+423596443
1859+423333418+423057057+422976022+422848151+422535698+422122701+421422026
1846+419960178+418542531+419056688+420251972+420471331+420214685+420173117
1832+419506766+417588255+416307986+416545289+417041667+417774114+418491375
1819+418558993+418189663+417683201+416775349+415553644+414986890+415185466
1805+415359348+414909147+413538500+412275227+412110522+411882109+410308399
1792+408688020+409526648+411280866+411819634+411140402+410086241+409171352
1778+408838402+408508252+406733950+403774490+403369148+405513274+407220739
1765+407772101+407056446+406066900+406225637+406713002+407141556+407012327
1751+404856389+401905036+401569247+402901455+403587355+403060151+402254653
1738+402229013+401413020+398574516+398204115+400628594+402743294+403838610
1724+403939153+403655509+402681931+399199876+395342893+396566327+399805070
1711+401791364+401798360+399873511+397901539+397380468+395561594+392064806
1697+391728852+394333757+397441913+399136332+398911251+397655552+394700495
1684+390843718+392374090+395853100+397328076+396267002+394518875+393677901
1670+392619378+392980971+395279513+396158886+395195597+395267043+396227122
1657+395842235+391944960+384903807+384813594+386642386+386224492+388193130
1643+392385490+394836267+394910841+392818612+391330013+395406726+400629993
1630+403796590+405812064+408004137+410469894+414216045+418490305+421200156
1616+423993719+429294235+434545983+438343948+441550836+445171586+448863164
1603+452285008+455852708+459551777+462719938+465453783+468615606+472280186
1589+475908961+479279031+482502546+485701409+488885744+491462375+492678607
1576+494745484+499794910+504268939+507323058+511428250+516606535+521239178
1562+524137852+523178555+521786383+529768231+539198427+546661837+552339792
1549+557529559+561956013+564280030+564328265+564608329+573037415+584437361
1535+592265904+598580496+605373151+611070655+615281782+619375533+623047562
1522+626731774+632755560+640135177+648549982+657086072+663232337+665976842
1508+665415561+668254889+679145946+688209652+693689442+697079843+701477982
1495+708162892+713928879+716825742+718947891+725313927+734107569+741273424
1481+746533855+751437220+755597314+757180736+757012327+760556239+768161554
1468+774384450+777984992+783091913+790456796+794981118+794985316+799060300
1454+810421149+821188615+829408219+835111402+840839526+848351911+856459983
1441+863932448+869469280+873553236+879679005+887605416+894814567+902228755
1427+910530340+916696360+919626065+921400367+923526714+928097212+935143880
1414+941693882+946109553+949000818+951564979+953557982+954636506+955014480
1400+954348499+953929288+954551973+954304134+955008060+957141815+957184946
1387+954735362+955049874+959981800+965393273+967642840+966989535+966124444
1373+967879732+970299107+970242888+970908457+974499616+976217040+974500686
1360+973411625+973231199+973180907+973153744+972579376+971286348+969959655
1346+969725150+970334172+969584480+965852981+962298040+963308904+966943523
1333+969112837+968961302+968533119+969555178+972145431+975128474+976571884
1319+976603163+977950351+981193251+985022042+989103446+992359104+994325438
1306+996649826+999678305+1002340004+1005387168+1009826544+1014009850+1016528575
1292+1017976512+1018868519+1020186570+1022730729+1025343865+1027480583
1281+1029745213+1031414568+1031740274+1030958975+1029694180+1028776821
1269+1027942514+1026659446+1025008200+1023226901+1022016102+1021796908
1258+1022127387+1022400496+1022751801+1023095286+1022861110+1022387409
1246+1022329626+1023180066+1024915846+1026451281+1026396955+1025074625
1234+1024564542+1025474822+1026683069+1027188296+1027262047+1027661010
1223+1027798634+1027527748+1027891893+1028906297+1029133723+1028658293
1211+1028916750+1029491941+1030222619+1031272005+1031946381+1032225828
1200+1031786780+1031596558+1033277437+1035251755+1035443458+1034283610
1188+1033286409+1033299002+1033288796+1031960868+1030300567+1029655000
1177+1029729327+1029988772+1030807111+1032674754+1034681996+1034688170
1165+1032740685+1032054538+1032670720+1031159156+1027840037+1025489803
1153+1024904158+1024854854+1024048697+1022504291+1020371935+1017888110
1142+1015566932+1013953549+1013018328+1011280902+1008161881+1005010594
1130+1002197688+999198183+996717980+994178924+989529654+984358284+982095218
1117+982322891+981335485+977805813+974981878+973693624+970426854+965218773
1103+960773306+956945338+953226021+950396900+949003041+948704333+948202152
1090+946615026+944144124+941231293+938103794+934560129+930779983+928275251
1076+926934895+924252370+920290811+916930618+914471157+912717516+911040917
1063+908808800+905874815+902198711+898957293+897268348+895862719+893192294
1049+890337821+888471825+886497342+883872189+882071876+881995327+881999443
1036+880666247+879026195+877317330+874974258+873282761+872821653+871789223
1022+869712345+868216502+867770787+867900180+868043402+867141435+865312808
1009+864373801+865163906+866252061+866738356+867231566+867674976+867874417
995+867732347+866493151+864496115+863159545+862956400+863301614+863359890
982+863029657+862746671+862063899+860380469+858136911+856248443+854909815
968+853234616+850907759+848697619+846727663+844598929+843028512+842788657
955+843283266+844081438+845199307+846473074+848018386+849584852+851016739
941+853221199+856499904+859689219+862286716+864858696+867710946+871104229
928+874759508+878195016+881707649+885034918+887159783+888133937+889656531
914+891783784+892485076+892706657+894206204+895049401+893743780+892011210
901+890902147+889464581+887836958+886957133+886658096+886250408+885042984
887+883496191+882476107+881387294+879817041+878847250+879427874+880314942
874+880389434+881406390+883693985+885090231+886326382+890241517+895938116
860+899473056+900999765+903718177+907233692+910684345+915417655+920092770
847+921967245+922339539+923792086+925617585+926779326+928736853+932973167
833+938161576+940750595+940609349+941775370+945791419+950994727+955467192
820+957177373+956533123+958025591+963099587+967010442+967923933+968787049
806+970006573+970655844+971881706+974411296+977702512+980931748+984000724
793+988370464+992775105+993648263+992876677+994784982+998402151+1001559117
779+1006313828+1012629572+1016958486+1020267564+1023133396+1021411608
768+1016464783+1014167064+1015131999+1015612532+1012780284+1009556563
756+1011286417+1014849589+1014090021+1011530469+1010961699+1011446347
745+1012032074+1012468324+1012690235+1014638461+1018194472+1018601749
733+1014465031+1009896673+1007457625+1007113647+1008814280+1010736577
721+1009549073+1005627846+1002523229+1002434745+1005053560+1007351032
710+1006666861+1003518373+999166823+996431948+998072247+1000787449+1000879473
696+1000326094+1002733699+1007486434+1007042777+999531050+992778233+990965986
683+994654519+1000000553+1002086321+1004279834+1006707440+1004843172+999680856
669+992809264+991445120+999714439+1006799135+1010555822+1015278102+1020754271
656+1022827774+1016581665+1007938570+1010589816+1015770405+1008639533+999827617
642+989559451+974405781+975132260+989026156+984165922+962361913+955399450
629+971389567+988265518+991378448+1000494750+1032847443+1059545680+1039166644
615+1008339591+998322720+992218023+996893714+1027652696+1062179065+1073741823
602+1065228615+1046744796
##END=
