##TITLE=Sample description
##JCAMP-DX=4.24
##DATA TYPE=INFRARED SPECTRUM
##DATE=24/8/2023
##SAMPLING PROCEDURE=Instrument type and / or accessory
##ORIGIN=Default
##XUNITS=1/CM
##YUNITS=ABSORBANCE
##RESOLUTION=4
##FIRSTX=4397.6552
##LASTX=599.8556
##DELTAX=-1.9287962
##MAXY=1.3397137
##MINY=0.40302804
##XFACTOR=1
##YFACTOR=1.2477056e-009
##NPOINTS=1970
##FIRSTY=0.56885111
##XYDATA=(X++(Y..Y))
4398+455917734+456651360+458069263+458828302+458560209+458218023+458318773
4384+458374188+457843782+456548699+455701808+455870297+455384271+454053217
4371+453348206+453442650+453666268+453789614+454338316+455471884+456206465
4357+456116463+456078581+456623605+457160125+457069885+456500641+455824102
4344+454990348+453776142+452185307+450639711+449940338+450229880+450898202
4330+451622417+452153396+452383224+452121532+451028618+450491811+451683039
4317+452876034+452820046+452275117+451575792+450879046+451211678+452326949
4303+452177855+451030529+451005927+451869156+452166867+451447143+450301346
4290+449722070+449596527+449002633+448315059+448857886+450174895+450570490
4276+450076152+449927678+450216791+450054034+449407257+448975164+448786897
4263+448700431+448837583+449000149+449201458+449597674+449723647+449291363
4249+448656243+447902410+446819337+446081555+446326288+446672535+446477580
4236+446088960+446080122+446710418+447024515+446708603+446572597+446564237
4222+446402770+446135537+446073052+446403009+446300062+445334315+444484127
4209+444178534+443740040+443454701+444068038+444702156+444412805+443913928
4195+443844850+443790582+443555642+443333601+443135541+443025666+442856890
4182+442260942+441909726+442828514+444085809+443998913+442732398+441773865
4168+441834630+442026719+442016830+442419543+442426995+441900745+442374972
4155+443289747+443009424+441796556+440404688+439353622+439301504+439859712
4141+439922579+439404021+439173858+439701493+440300690+440145672+439419738
4128+438495504+437608867+437547290+438867596+440478686+440684438+439801957
4114+439099622+438265772+437154705+436779412+437033031+437302605+437678184
4101+437608628+436895688+436644458+436964431+437109752+437366475+437786195
4087+437494359+436524456+435918620+435989751+435935053+435483327+435163545
4074+435065470+435388882+436084960+436091982+435101824+434116587+433771247
4060+433778461+433874004+433820882+433283358+432744353+432790930+432904674
4047+432407326+431715309+431623015+431920535+431797954+431193407+430929852
4033+431136225+430891205+430141481+429822654+430159682+430812048+431626216
4020+432040107+431609066+431039440+430844485+430764515+430825758+430928753
4006+430799771+430589863+430199189+429609737+429415976+429927513+430614991
3993+430775025+430602857+430458874+429964392+429036003+428259670+428027023
3979+428183379+428267743+427934012+427364386+426858248+426628706+426921688
3966+427408336+427391616+426818024+426684121+427466234+428069826+427655075
3952+426558482+425179418+424196664+424706385+425851179+426158827+426368973
3939+426826910+427080719+427130927+426103221+424425394+424071694+424201346
3925+423551798+423518836+424315997+423976247+422588774+422056219+422831788
3912+424215343+425518356+425583993+422980213+418794053+416556680+416856254
3898+419179138+422356367+423473501+421186923+419822237+421788221+422492658
3885+420737107+419723064+418968658+419916920+422452626+422403660+419855916
3871+417439495+417157262+419718573+420662727+418979311+418921937+420502120
3858+421813922+420736056+414371855+411657149+416673385+422151762+424723153
3844+423663679+420850946+417874215+415280467+416068981+418812397+419711264
3831+419945487+421203690+422131220+422493662+421009834+416500930+415748101
3817+417950362+419317389+422104372+425119847+425279355+421743603+419226862
3804+419512774+418566136+418692682+420733763+421709733+423115120+425542576
3790+426945431+426481809+424878171+423759222+424141536+424223846+423754922
3777+425009304+426882563+427261104+425718709+424381970+424459741+424585237
3763+425191408+425314324+423780671+423459456+425036056+425840192+424335631
3750+424842772+430301180+436027920+440050846+445858558+453125687+458536658
3736+459846645+460062381+464399929+470601851+473987840+472311016+467520691
3723+462875830+458779815+456087180+456046048+459062239+465459928+477597877
3709+495698031+514904809+532526962+548089261+561712613+573187543+581010969
3696+584706947+584624494+578494324+564820859+552888519+548169039+544289906
3682+538240948+530889263+522643585+509768333+497985134+495105570+490136293
3669+482548045+480735264+480617603+478968964+477525551+477383957+477703308
3655+480972879+488282333+494977352+496399363+496968034+500281362+501828821
3642+499784110+495699464+492020923+489456363+487183256+484719351+478865157
3628+469606056+466098345+465183714+460911136+451041851+439547956+433178500
3615+429403221+426638261+426478465+427425485+428620583+430390800+430864166
3601+428791700+425877358+423656800+421439729+418586295+415338413+410372099
3588+403175719+398615198+397475301+396078871+393488467+391067699+389621922
3574+388697259+388098038+387037704+382740881+376023148+373708766+374840352
3561+375127338+374314771+373767430+373032276+371212257+369574773+368918298
3547+367752819+365941829+365090304+365289033+365529849+365035272+364015925
3534+363244083+362044638+359913365+358437516+358249153+358113602+357710626
3520+357391656+357075171+356961427+357017391+356437446+354934773+353531679
3507+353242615+352991504+351789791+351000201+350842364+350254657+349388275
3493+348430410+347206698+346232257+345898598+345942476+345928073+345330166
3480+344464500+344125944+344135403+343883122+343259801+342754738+342617443
3466+342422464+341953946+341425045+340869033+340267687+339896073+339867148
3453+339804042+339172671+337694218+336124235+335705518+336048851+336077872
3439+335548016+334465540+333432221+333120058+333256422+333691285+334159564
3426+334093353+333525208+332428997+331228884+330960337+331339284+331459381
3412+331185866+330749020+330613326+330967551+331239012+331261846+331394579
3399+331435042+331305510+331345279+331542121+331748064+331834148+331867827
3385+332123475+332456084+332443305+332339235+333007652+334373437+335563040
3372+336518564+337525179+338544501+339828477+341470141+343017528+344420097
3358+345837570+347092262+348301451+349725445+351321750+352775673+353603886
3345+354029648+354834644+356090507+357157720+357444396+357121007+356994389
3331+357335358+357564469+357272467+356897127+356890080+357015050+356731049
3318+355922948+355323943+355509511+355935130+355883871+355576582+355392734
3304+355153829+355155716+355858672+356597648+356648692+356528785+356917095
3291+357495416+357889004+358554699+359780489+360936509+361451413+361555627
3277+361882550+362950313+364343613+365299376+366146028+367302120+368293424
3264+368677578+368796051+369110005+369395319+369680348+370332379+370817020
3250+370694630+370621134+371089389+371888413+372963604+374106846+374598939
3237+374460521+374148502+373737597+373541997+373671815+374140811+375182204
3223+376070370+376069964+375734799+375492407+375209433+375041183+375261074
3210+375823989+376349211+376657146+376852722+377012995+377195219+377257393
3196+377294249+377667057+378181770+378413939+378486695+378849304+379440857
3183+379800217+379860624+379941716+380210191+380367861+380352001+380899103
3169+382192466+383129741+383159048+382970256+383083068+383334369+383309480
3156+383048768+383126564+383684749+384121260+383938534+383483918+383403590
3142+383593959+383467126+383011196+382749647+383183316+384138123+384530828
3129+383963232+383301718+383179542+383313995+383259631+383129526+383433567
3115+384146412+384252583+383559779+383272601+383828469+384317290+383788102
3102+382680857+382291854+382901728+383556865+383375644+382799330+382901823
3088+384108194+385339550+384960245+383454944+382729894+383367499+384035677
3075+383702950+383269950+383879107+385177414+385576735+384594030+383660338
3061+383633777+383991322+383930198+383390166+382894036+382791782+383181979
3047+383625990+383668912+383453129+383130147+382645243+382124272+381804610
3034+381649878+381582544+381621478+381635499+381638652+381798782+382486952
3020+384947251+389121707+391494943+389764734+386259102+383737990+382568403
3007+382088014+381985974+382308837+382897022+383423105+384010263+384938844
2993+386013079+387186846+388363934+389183380+390096626+391744429+394069224
2980+396614986+398698512+400103684+401302173+402770522+404747064+407034502
2966+409158227+410827121+412140261+413599057+414608228+413943823+412449533
2953+411451111+410862615+410202415+409210585+408077208+406803766+405458332
2939+404560373+403721794+402491012+401486236+401029780+400926021+400781751
2926+399964334+398707541+397709954+396972412+396394999+395786033+395011372
2912+394587377+394790095+395196653+395284290+394976594+394656287+394592321
2899+394855565+395306336+395513473+395691708+396556848+397889527+399237731
2885+400806210+402702209+405022132+407913018+411306029+415510964+420991108
2872+427549882+434679191+442263474+450432240+458742266+465992532+471347945
2858+474726625+475786051+474016503+469598890+463124098+455368172+447429377
2845+439980048+432912365+426120419+420017240+415003297+410835099+407089057
2831+403664803+400768184+398599840+396894616+395465009+394419197+393616877
2818+392943276+392281786+391510301+390987873+390970270+391087668+391032826
2804+390980731+391007555+390859488+390579476+390516059+390668904+390808993
2791+391012667+391423333+391771444+391752478+391557906+391469672+391574315
2777+391907473+392172079+392156410+392148790+392236236+392387695+392677333
2764+392970482+393268623+393561796+393612052+393644942+394147951+395016603
2750+395681748+395888502+396069532+396705393+397628910+398376198+398836667
2737+399342423+400095921+400950432+401897882+402879154+403650232+404274700
2723+404922528+405543700+405958690+405997050+405789961+405704307+405782461
2710+405780407+405712858+405648224+405462584+405165302+404807590+404434018
2696+404292615+404476725+404760344+405007991+405190144+405218568+405077069
2683+404911589+404770329+404468461+404157995+404180065+404326962+404343587
2669+404308713+404344017+404532331+404712334+404748688+404883977+405201609
2656+405388634+405322900+405228838+405330735+405699960+406127275+406373393
2642+406608238+407079932+407658922+408045536+408240586+408587216+409167543
2629+409629301+409912538+410299008+410754461+411106345+411464392+412023269
2615+412836768+413793773+414583339+414981991+415248173+415733005+416412458
2602+417115653+417795440+418454828+419095825+419778144+420398790+420828446
2588+421229105+421700083+422184581+422647199+423064195+423489648+423944622
2575+424454821+425037489+425438625+425503164+425512623+425778471+426308447
2561+426822276+427136660+427460215+427938025+428335148+428555613+428850602
2548+429237885+429441773+429391900+429350768+429615279+430059171+430388554
2534+430685310+431104695+431536501+431811426+432017511+432313694+432547822
2521+432697824+432998163+433296208+433376226+433473584+433787728+434210362
2507+434676181+435239167+435693282+435766515+435635956+435635478+435797758
2494+435841182+435728203+435928795+436540746+437078891+437282206+437247381
2480+437109513+436976995+436874477+436742390+436565635+436365091+436162110
2467+435944464+435674508+435379949+435107127+434942124+434972650+434996010
2453+434695242+434227607+433925023+433711915+433544285+433463456+433208596
2440+432748366+432400638+432230094+432014597+431547775+430855902+430151895
2426+429551743+428976336+428391137+428016179+427882849+427585997+426997263
2413+426437334+426056309+425718518+425240613+424592403+423950642+423440682
2399+423135518+423072173+423266746+424700987+429743832+441411423+462807995
2386+495633492+538585953+588261904+641523003+696922063+754464101+813886899
2372+872879611+927609490+974270970+1010837302+1037481992+1054669187+1061163231
2359+1053459137+1027967840+988446178+940013143+890701879+862508918+870811874
2345+907462379+936813797+937315970+924201000+912480956+906678833+905744711
2332+906360293+904413704+897296529+885295685+869630678+850750752+829570154
2318+805497668+780085528+762068878+754603880+746405305+725686944+692832640
2305+657886141+630931415+612080581+595364508+578265451+559950278+539465567
2291+518650183+499868809+483131621+468438857+457357708+450617402+446784798
2278+443908100+441194732+438725380+436576623+434924114+433763699+432531962
2264+430959279+429436279+428172773+426936497+425667307+424556192+423554903
2251+422436814+421240044+420321257+419902493+419680452+419259299+418812589
2237+418706058+418796776+418883816+419182100+419656757+419991873+420323216
2224+420957811+421793237+422548503+423186729+423859685+424677388+425626749
2210+426648101+427783054+428996400+430165080+431310160+432461403+433647472
2197+434931662+436296778+437705461+439120020+440546426+442035461+443540738
2183+445054900+446729909+448582149+450447240+452306264+454174365+455917113
2170+457553857+459259392+461130167+463209322+465272903+467033184+468662332
2156+470280349+471688316+472925738+474098574+475108891+475889190+476366904
2143+476565919+476746782+476912740+476694711+476034940+475189960+474116250
2129+472713012+471174678+469570896+467756777+465713212+463575012+461443500
2116+459229678+456754212+454059331+451451252+449022028+446436640+443648462
2102+441081657+438789872+436473723+434135265+431982734+430076942+428427968
2089+427282697+426850270+427055209+428000175+429879884+432515910+435570032
2075+438839411+442238298+445633889+448718584+451328193+453712177+456012799
2062+458002383+459530781+460718378+461856962+462990959+463829920+464292730
2048+464432366+464156247+463450615+462363912+460996742+459466767+457683939
2035+455686377+453613624+451382891+449024226+446645401+444140364+441523638
2021+439043586+436540651+433731884+431022767+428670551+426332285+423912090
2008+421591738+419399508+417221228+415009985+412872406+410946693+409242305
1994+407489763+405486565+403737941+402687304+401958552+401200706+400503626
1981+400008595+399679020+399532600+399741170+400281728+400856322+401293574
1967+402027390+403609770+405709132+407834338+410028527+412377685+414958440
1954+417814405+420834513+424005388+427299799+430381054+432965630+435654014
1940+439030926+442364080+445014294+447102334+448873364+450324945+451240914
1927+451522813+451078491+450217890+449574074+448705590+447582819+446986728
1913+446210108+444436165+442283585+440689119+439536778+438196360+436558900
1900+434901089+433239408+431483857+430054680+428897322+427472015+426576731
1886+426747991+427130784+427483528+427971274+428509036+429035764+429481471
1873+429646378+428887051+427471728+427878406+430086209+431670930+431999310
1859+431768670+431319953+430574576+429631043+428628895+427310213+425374468
1846+422630622+419628046+418237469+417643813+416042803+413809776+411620079
1832+408538298+404022754+400361673+398243776+395944132+393923235+392225391
1819+389923073+387125866+384269829+381156304+377697057+374858194+372937306
1805+371169740+368846928+365716110+362894038+361347702+360043112+357589669
1792+355003827+354942870+355965704+355828146+354654021+353423525+352576848
1778+352363477+351987636+350243550+347733019+347677222+349857653+351729097
1765+352469960+351952261+351435064+351938312+352368183+352596268+352231079
1751+349947272+346949927+346230657+346902585+347042388+346145098+344797252
1738+344055123+342503723+338777124+337598197+339504133+341237208+341884964
1724+341258132+339957101+337933314+333622614+329500778+330833098+333885141
1711+335348833+334735711+332300134+329983197+329273959+327613043+324400106
1697+323751275+325913862+328999154+330735167+330444932+329144379+326343518
1684+323015332+324952415+328820083+331075586+331213144+330537560+330167141
1670+329785639+331449182+334824327+336645755+337191472+339142933+341705678
1657+342745375+340963884+338453735+341727032+345039716+347196069+352776652
1643+360147636+365931224+369640267+371941057+377252664+388051294+398329717
1630+407502948+417336643+428002803+440324624+455504942+469400114+481822636
1616+499086552+519480545+538335105+558129519+580701124+605165002+630529657
1603+657558142+685708014+713146187+739824412+766765571+792915206+816570601
1589+837084882+853652195+866138971+874458265+878845017+878909795+871857399
1576+857763307+848099343+840482002+824771231+807419607+796713558+788174229
1562+781030446+770841045+754131421+752805096+759819896+766135562+771519877
1549+776641353+780813038+783019504+783119585+783326531+792648021+806060797
1535+815541127+823398663+832418190+840461270+846214188+850354344+853650762
1522+858298920+866284387+874738014+883289381+891902565+897679847+899081651
1508+896614067+899600066+912755928+923093564+928915846+931121643+932470134
1495+936544557+940317829+939975690+938570542+943015958+949462517+953223655
1481+954471731+954592115+953099736+948641900+942262316+940400760+945340896
1468+949491849+948575307+946556010+948200779+948966077+942670284+938039038
1454+945673290+953988953+957755346+958588383+961187148+966214801+970888946
1441+974493776+976641291+976991838+979272158+984405099+989204979+993659853
1427+997961954+1000321479+1001199326+1002622914+1003998253+1005527511
1416+1009180399+1012759050+1014018018+1014190568+1015226825+1016246840
1404+1016813313+1017939667+1017069177+1012881440+1008917083+1007828755
1393+1010720740+1014092541+1012548569+1006569310+1003717357+1006964284
1381+1012973544+1017331633+1017445233+1014260983+1012873701+1015887695
1369+1018794584+1018916210+1017384373+1014645161+1012723030+1013730625
1358+1015777438+1016967328+1017012425+1016361969+1015117333+1013327816
1346+1011461674+1010160190+1008648321+1005697004+1003380855+1003935768
1335+1006190100+1008583161+1010154362+1011071955+1012417580+1014414520
1323+1015582531+1014808825+1013889799+1015149627+1018323558+1022862797
1312+1027985133+1031666302+1033978533+1036177164+1038331559+1041078319
1300+1045198793+1049664750+1053235471+1056351791+1059027945+1060733384
1288+1062490703+1064610320+1065679635+1065742215+1066575062+1068497670
1277+1070097343+1070316231+1069095099+1067588198+1066469774+1065339120
1265+1064142733+1062815644+1061772316+1061640467+1061873305+1061782062
1254+1061996078+1063180713+1064385412+1064916248+1065100263+1065394726
1242+1066018143+1066053494+1065115646+1064434903+1064788794+1065869096
1231+1067134656+1067959573+1067765525+1066836085+1066328466+1066913474
1219+1068008586+1068904778+1069639120+1070385691+1070832258+1070521839
1207+1069822753+1069616667+1070397920+1071804024+1072900569+1073236306
1196+1072806746+1072269031+1072721713+1073741823+1073582935+1072210463
1184+1071793323+1072816778+1073402073+1073079329+1072433078+1071212996
1173+1069666063+1068332954+1067595937+1067843488+1068314896+1067543866
1161+1064988383+1062188405+1060843545+1059723305+1056636604+1051931503
1150+1047855265+1045589850+1044531044+1042781274+1039314694+1036071780
1138+1033354448+1028905879+1023468156+1019263604+1015271730+1009789293
1126+1004450075+1000059979+994056069+986316242+979759808+974537439+968689455
1113+962555225+956986226+950695975+942873217+935616359+930785906+926905626
1099+922588524+918356360+914309454+910519176+907651267+905682990+903979557
1086+902681322+901739174+899595003+895936287+893265292+893080130+893818580
1072+893568163+892064415+890400441+889692087+890398148+892557511+895003980
1059+896146385+895974122+895556122+895365896+895170989+895140128+895360163
1045+895386820+895684818+896987544+898623619+899935899+901310187+902547180
1032+902867630+902593613+902823203+903937423+905400565+906148570+905644295
1018+905005018+905217983+905869490+906685329+907596235+907932259+907767638
1005+908537809+910048818+910156782+908719340+907459704+907345435+907912099
991+907570438+905775284+903991118+903170979+902149053+899469842+895633416
978+892207633+889788394+887962953+886053912+883643941+881146261+879223940
964+877827582+876580653+875505127+874859449+874515208+874056794+873658380
951+874291351+876104849+877746944+879017376+881217154+884064138+886126047
937+887656643+889955880+892971211+895959790+898836679+901345920+903235279
924+905084319+907319734+909222851+910074424+910322548+910554049+910965838
910+911325270+910739306+908895712+906390580+904016150+902618741+901911438
897+900552533+898757379+897713669+896936333+895442904+893661030+892820063
883+893119876+893261184+892381808+891076502+890998921+893314592+897468506
870+902599919+908155924+914062762+921018278+928668008+935533619+940344103
856+942462000+943590648+945776380+947001812+945342138+943107010+941979891
843+941367080+941089337+941464629+942882866+945389623+947385130+946130557
829+942161996+940352989+942922803+947310033+951056362+953031518+954319531
816+957088075+960253217+962074167+963183992+964997681+968117154+970975699
802+973022321+976753745+982239240+985785502+986817269+989399886+995366725
789+1002208641+1007645217+1011890853+1015454026+1018273781+1021485261
777+1025395923+1027608312+1028123479+1030081342+1034374558+1038859050
766+1040652293+1040191968+1041005706+1043041628+1043663707+1043272364
754+1043327396+1043817626+1045289845+1047501566+1048623334+1049053085
743+1049476913+1048595913+1046062691+1042772770+1040650478+1040807741
731+1041000260+1040335282+1040637198+1040711530+1039919480+1041013063
719+1042046072+1038526753+1033328555+1031476363+1031615664+1031359800
708+1032475263+1035225653+1036226082+1033519737+1029766911+1028359470
696+1028867662+1029941085+1031933344+1033974043+1034483381+1034475451
685+1034129777+1032508320+1032203157+1035258807+1038419936+1037045457
673+1035178169+1039774542+1046524545+1046944456+1043411474+1039918142
662+1038820069+1041288322+1042601653+1039590622+1033677191+1027382640
650+1024536898+1026688522+1030694440+1034742493+1038425477+1039151794
638+1035466039+1028049529+1020007500+1016772230+1018213971+1020230306
627+1022272725+1020675440+1011884929+1001737424+993833359+990378244+996211514
613+1004931324+1008162295+1010496405+1012614780+1009546997+1008046210
602+1016664458+1033512666
##END=
