##TITLE=Sample description
##JCAMP-DX=4.24
##DATA TYPE=INFRARED SPECTRUM
##DATE=24/8/2023
##SAMPLING PROCEDURE=Instrument type and / or accessory
##ORIGIN=Default
##XUNITS=1/CM
##YUNITS=ABSORBANCE
##RESOLUTION=4
##FIRSTX=4397.6552
##LASTX=599.8556
##DELTAX=-1.9287962
##MAXY=1.4917692
##MINY=0.50262398
##XFACTOR=1
##YFACTOR=1.3893183e-009
##NPOINTS=1970
##FIRSTY=0.75019282
##XYDATA=(X++(Y..Y))
4398+539971874+540456410+539813179+538662502+538436752+539071659+539285183
4384+539202296+539024381+538616640+538609046+538389431+536593421+534814272
4371+535119177+535969925+535534769+534723662+534979402+536314472+537194565
4357+536480503+535361102+534536009+533151687+532483359+533721985+535086485
4344+535547254+535825002+536070230+535657083+534707531+534486929+535197044
4330+535343683+534333983+533592420+534037873+534921656+535467070+535099184
4317+533762785+533026842+533863304+534692601+534383149+533916589+534018352
4303+534347712+534177519+533392497+533010111+533281724+532990933+532140871
4290+531945238+531465078+529632859+528609902+530127134+532277515+532088059
4276+529805883+528545420+529524531+531254086+531647884+529854234+528246006
4263+528960154+530286944+530368415+529496559+528205592+526960445+526483503
4249+526929556+527624398+528459573+529719349+530635609+530729908+530600215
4236+530300458+529213105+527283841+525552528+525253200+526227592+527412762
4222+528361499+528603509+527970961+527717410+528085510+528059168+528034799
4209+527992412+526961389+525905269+526180614+527384361+528145787+527272687
4195+525168511+523522015+523419222+524195063+524628975+524867425+525110336
4182+524799725+524228570+524243543+525008916+525646955+525220852+524566810
4168+524912214+525449520+525149163+524588046+524463115+524403782+523889214
4155+523417678+523302271+523097971+523083942+523489753+523693366+523306518
4141+522764708+523135811+524371948+524933708+524252380+523203425+522722192
4128+523021262+523378036+523231697+522872349+522313850+521244172+520162826
4114+519831579+520138972+520370686+519981092+519382737+519758473+521037985
4101+521558387+520830253+520118079+519868217+519639334+519537785+519368965
4087+518645851+517966668+518325630+519579786+520588457+520524705+519624147
4074+518771339+518194221+517482003+517152215+517529668+517968298+518403240
4060+518759069+518807249+518647739+518050156+517365610+517490755+518147243
4047+518446914+518471797+518607711+518711877+518477246+517889702+517458922
4033+517413317+517597882+517764513+517611010+517315758+517241237+517428118
4020+517210219+516569948+516647729+517277961+517597667+517366854+516505595
4006+515701782+515902306+516511387+516031656+514792086+514313470+514774496
3993+515353159+515648669+515716969+515170654+513773204+512591681+512587305
3979+513194327+513846910+514725802+515255428+514570025+513393478+513227619
3966+513956053+513812975+511904862+510235671+511212465+513656682+514775311
3952+514308880+513331056+512423076+512326804+512353832+511236490+510286853
3939+510366436+510712184+510908246+510259267+509640447+510693693+511827123
3925+511515268+511188869+511547058+511311526+510431647+510444260+512085351
3912+513856606+514369286+514291075+513506997+511034507+508026557+505694142
3898+505415193+507983783+510943555+510914639+509579612+510762980+510945485
3885+508475098+507550301+507110983+507729245+510736037+512622699+512475202
3871+510459233+507569435+508161741+508868939+506601307+506262294+508947278
3858+511593049+511201396+504930314+502039057+505915431+509129655+509921155
3844+509323916+508434899+506700582+504271853+504541835+506342779+506795653
3831+507339995+508889317+510010864+510778725+509773229+505688994+504796116
3817+505476843+505057475+507942597+512156354+513341052+510213619+507450639
3804+506945896+504834685+504475809+506614735+507506498+508800553+510826518
3790+511515311+511102550+510291958+509424821+509377329+509195638+508729293
3777+509705315+511086376+511042187+509252226+507593889+507065636+507005444
3763+508363424+509214858+507351879+507126771+510137553+511400805+506789647
3750+502692756+505394257+507411641+505178202+505424202+508103566+508354715
3736+503531663+498375133+499443653+504240920+508081686+508443822+506757041
3723+506213558+506904582+507997598+509280113+509992931+507790638+503210198
3709+502505746+504937092+507194986+507846497+507007117+507006903+507884680
3696+508468234+508689136+507703461+504086129+501664221+503955793+507576900
3682+509246306+508573472+506851984+502670232+499170280+500820423+500696136
3669+498207644+499334295+501255708+500924890+499766405+499445798+498455403
3655+497282460+497908016+496710661+489921450+485413429+486770035+488363461
3642+487923715+486191801+484178192+481976286+479807285+477974852+473211391
3628+465464391+463726213+465101353+464547402+460207470+454177583+451977865
3615+451299712+449079143+447178238+445178014+442552793+441711569+441639107
3601+439958461+437490948+435517195+433090568+430512196+429523603+428632570
3588+424853497+421377099+421352730+421826756+420718423+418798984+417314401
3574+416402689+415813386+415272390+413283364+409023574+406276296+405852038
3561+405298815+404141146+403257105+402606924+401687404+400989302+400775649
3547+399996976+398488840+397425941+397167155+397105720+396380589+394792954
3534+393064129+391758962+391207113+391412657+391157346+389619736+388311051
3520+388262958+388175223+387324217+386399892+385771162+385160665+384588094
3507+384280486+383429695+381629653+380342247+380218646+380240226+379714890
3493+378923089+378136651+377101510+375760605+374859318+374728896+374673853
3480+374420559+374287605+374063957+373248646+372155844+371521451+371300376
3466+370891906+370136872+369512175+369167714+369018415+368943594+368447431
3453+367733283+367110945+366076877+364844043+364204115+363977335+364012472
3439+364497093+364666299+364001446+363204068+362930095+363240835+363672172
3426+363709497+363311752+362872091+362728584+362767196+362898476+363195487
3412+363647675+363916414+363662905+363303386+362906585+362105431+361777402
3399+362462505+363185405+363625152+364052628+364074594+363740129+363692293
3385+363869479+364097375+364989953+366554463+367806646+368343050+368711408
3372+369604929+371027305+372235556+372982781+374094117+376023767+378065519
3358+379647362+380890664+382219599+383977984+385510789+385947318+385948004
3345+386574675+387593084+388594934+389740205+390830819+391676890+392297769
3331+392434670+392143708+391849571+391661274+391584050+391982353+392726447
3318+392959191+392609196+392603962+393297688+393916336+394051435+393937444
3304+393529831+393150749+393402283+394273882+395190699+395638254+395734312
3291+395897726+396377929+397225030+398358332+399365844+399759942+399737548
3277+399954074+400900709+402242857+403074600+403546737+404511476+405776401
3264+406511743+406267630+405312244+404860828+405387237+405913602+406244506
3250+407090063+408117611+408312043+408066386+408722444+410087760+410865918
3237+411064168+411740648+412917109+413873311+414247803+414054443+413623320
3223+413204939+413070098+413243508+413352823+413617529+414180704+414567595
3210+414759968+414894123+414698017+414494361+415106617+416258666+416880789
3196+416758047+416640967+417173982+418109677+418648226+418579326+418351601
3183+418304366+418674397+419489322+420190899+420356416+420382586+420873643
3169+421876050+422808055+423135355+423154318+423368613+423509847+423278819
3156+423222789+423760738+424305809+424471326+424557902+424661939+424859804
3142+425139440+425202634+425222284+425678333+426372488+426713217+426724629
3129+426526678+426109027+425859079+425961358+426502267+427247347+427281755
3115+426835659+426899412+427083333+426847629+426681383+426773751+426676707
3102+426208688+425706433+425589611+425807940+426035235+426422512+427227999
3088+428019971+428454741+428742571+428860766+428865056+429059445+429250188
3075+429266148+429424542+429797833+429951251+429607648+429258039+429388376
3061+429682255+429838633+429869994+429879347+430128179+430577064+430823579
3047+430753691+430739276+430859445+430974937+431216219+431314293+431063402
3034+430665699+430197080+430053615+430396918+430709459+430773212+430836707
3020+431010546+431140068+431037188+430719670+430582040+430853010+431267401
3007+431615037+432007376+432661375+433462572+434147847+434635901+435007819
2993+435540105+436159225+436690481+437388412+438195486+438897922+439541067
2980+440031223+440406187+440904667+441505296+441802779+441512203+441165254
2966+441280146+441239989+440403356+439525579+439536391+440058809+440491305
2953+440699766+440588607+440383020+440505978+440815559+440569215+440090299
2939+440816546+442385818+442998245+442445280+441713285+441131704+440575865
2926+440315192+440672695+441164396+440918395+439847431+438652222+438118563
2912+438503780+439150014+439486753+439962966+440752536+441181299+441212575
2899+441441329+441940580+442322366+442345361+442306578+442531771+442935179
2885+443360725+443414481+442851220+442321594+442559400+443288821+443572318
2872+443255572+443077571+443258403+443633110+444179640+444554175+444496729
2858+444173805+443878725+443741609+443513928+443119529+442882796+443249394
2845+444218766+444925020+445096972+445272570+445447353+445716135+446362283
2831+446984835+447188448+447167812+447293687+447711596+448223890+448504255
2818+448688863+449313903+450287180+450948816+451168517+451404221+451843710
2804+452265866+452603806+452810894+452827540+452976754+453520709+454133265
2791+454337951+454355584+454641827+455053000+455448643+455765260+455917005
2777+456276868+456856947+457135639+457184332+457395797+457701989+457843480
2764+457892860+458214283+458913158+459578826+459768282+459686382+459846106
2750+460130375+460330857+460721351+461309882+461901330+462421303+462756883
2737+463007603+463336233+463689317+464008294+464288316+464571556+464963166
2723+465402612+465773886+466213890+466735880+467132037+467416006+467719539
2710+468043406+468372980+468720358+469031484+469372127+469851000+470331503
2696+470663522+470905876+471256901+471724576+472104045+472386984+472695579
2683+473080325+473458206+473735054+473908893+473925796+473843853+473862601
2669+474035497+474309126+474751275+475314408+475718116+476067296+476609064
2656+476984371+476906332+476888399+477320638+477759526+477915432+478064002
2642+478342651+478683294+478954349+479133851+479392379+479740744+480170194
2629+480652585+480976624+481209497+481467896+481652933+481873363+482249014
2615+482791125+483483950+484170641+484824683+485467957+485996082+486387134
2602+486665654+487027019+487629407+488199061+488687072+489394527+490241714
2588+490850452+490973023+490822737+490917379+491245494+491399813+491567732
2575+492159008+492874486+493363312+493756167+494069824+494195870+494138124
2561+494183043+494760590+495643601+496245174+496530001+496796079+497136336
2548+497496542+497839415+498054097+498305074+498839248+499366214+499750274
2534+500129271+500406332+500593471+500883017+501473908+502222334+502634881
2521+502644491+502689452+503013449+503432473+503825242+504263444+504672043
2507+504896164+505037097+505411246+505995315+506453166+506742669+507000167
2494+507201678+507492726+508002060+508272772+508167061+508145824+508238750
2480+508313357+508380156+508421513+508538893+508586257+508291091+507933545
2467+507919344+508086920+508108671+507931743+507719249+507682353+507726628
2453+507652493+507593761+507680594+507694108+507440257+507000382+506463462
2440+506021871+505920022+506019898+505946192+505495935+504958329+504637250
2426+504269793+503802761+503575852+503582845+503490520+502987321+502199768
2413+501638051+501425771+501213621+500836040+500469742+500159817+499638428
2399+498860399+498271825+498087389+497881459+497305370+496538023+495892133
2386+495385373+494649345+493342591+491576355+489432281+486679469+483424788
2372+480089409+476936149+473799321+470437814+467700447+466076947+464789798
2359+464078825+464794604+466809071+469695909+473063336+475341865+474649468
2345+471423275+468729711+467757764+467197506+466953436+467548273+468382590
2332+468713408+468953102+469629839+470424343+471162817+471948311+472641222
2318+473420281+474448815+475475076+476419951+477340759+478236340+479071729
2305+479745249+480163244+480380414+480678283+481159559+481544433+481669793
2291+481657909+481734876+482089676+482582578+482805711+482649419+482606131
2278+483108000+483736086+483912156+483871485+484047298+484312819+484553757
2264+484930480+485310978+485596148+486009124+486544585+487012046+487421332
2251+487906468+488431890+488847096+489227209+489721398+490301649+490998721
2237+491755557+492224863+492415863+492742005+493345379+494076645+494768999
2224+495410514+496031350+496584315+497212959+498065981+498996570+499899530
2210+500736764+501393938+501953810+502559759+503228088+503967934+504812633
2197+505795005+506664115+507216994+507830323+508786867+509880956+511017604
2183+512283473+513419520+514092911+514567022+515290351+516285679+517429920
2170+518654603+519706991+520387461+520925410+521749559+522976344+524253196
2156+525248395+525898876+526314984+526764726+527359907+527998333+528502861
2143+528686310+528627534+528598018+528626162+528460388+528032054+527460383
2129+526800549+526086830+525179366+524085363+523114102+522145331+520811677
2116+519194998+517590074+516097038+514593835+512962183+511363523+509929435
2102+508445367+506733574+504878831+503145330+501719737+500435162+498993953
2089+497294645+495541966+493929963+492374891+490819991+489324511+487892911
2075+486419225+484857804+483355115+481876667+480346436+479027454+477927102
2062+476697485+475329252+473994911+472638005+471150761+469602339+468178290
2048+466924477+465744842+464728835+463842821+462646325+461077267+459533779
2035+458171381+456952018+455815928+454719136+453733890+452788500+451647176
2021+450365905+449047610+447628195+446414452+445660362+444999799+444075473
2008+442946205+441923033+441182372+440442397+439452989+438397855+437434232
1994+436478631+435419293+434377930+433543013+432774422+431954735+431218965
1981+430591050+429889815+429113030+428374943+427575591+426749126+425962730
1967+425056510+424245146+423834015+423562273+423092882+422333901+421408975
1954+420558141+419756087+418924644+418235380+417620936+416695281+415728096
1940+415540786+415761732+415520279+414832043+414115793+413563343+413091077
1927+412533307+411749829+410811947+410057729+409394248+408874832+408947766
1913+409126882+408702924+407959602+407506342+407267721+406975429+406543233
1900+405999149+405493462+405041317+404711529+404430692+403774033+403180225
1886+403285850+403553044+403574023+403401385+403039806+402632151+402389282
1873+402167521+401260529+399654532+399144341+400013880+400750423+400890970
1859+400771402+400595289+400362416+400131775+400010534+399801558+399198311
1846+397938663+396550567+396682233+397717117+398132281+397942997+397752426
1832+397048746+395311855+394181771+394333730+394509672+394827791+395331890
1819+395424044+395147926+394813762+394200777+393134532+392372162+392267867
1805+392251435+391832711+390800101+389824550+389622181+389487984+388408095
1792+387034628+387361842+388521786+388848099+388304058+387500330+386697418
1778+386227769+385793171+384262682+381639520+381024991+382658745+384032512
1765+384525200+384013378+383303434+383459126+383593924+383745326+383938128
1751+382651494+380310156+379758307+380598930+381037089+380561219+379819271
1738+379813865+379406510+377276250+376900299+378836556+380485626+381297247
1724+381385668+381172316+380344263+377333310+373990079+375143845+377963627
1711+379606433+379607678+377876107+375985841+375749236+374928605+372296734
1697+371468510+372992778+375423395+377049941+377086280+376253121+374103813
1684+370850033+371631838+374285546+375645242+375061988+373633949+372688216
1670+371541357+371524754+373235131+373932119+373035422+372893288+373624253
1657+373584526+371017437+365321157+364750559+366394438+366271609+367607837
1643+370891391+373036195+373374091+372103117+371182010+374454366+378887480
1630+382018303+384318497+386702609+389564778+393632196+397787777+400460062
1616+403481741+408880753+414190700+418217189+421630908+425230649+428902638
1603+432505426+436232115+439914744+443167279+446244388+449750518+453504106
1589+457143318+460860697+464720555+468426350+471884901+474739734+476425400
1576+478965503+484085009+488498002+491757402+496328232+501880147+506784155
1562+510292644+511216026+512195180+519486002+527596340+534501344+540504803
1549+546335110+551353881+554499891+555370674+556291181+564777255+575344981
1535+582472132+588770114+596194534+602612985+607478939+612305551+617132464
1522+622101812+628544074+635789506+643759683+651694894+657655494+660981178
1508+662253096+666471271+676223600+684789815+691021213+695328797+700113666
1495+707029266+713098237+717080322+721171079+727806314+735361113+742034360
1481+747390856+751697624+755250259+757866256+760824012+767007059+774926697
1468+781656832+786881447+792216149+798014880+802329542+804861537+811263385
1454+822571773+833144647+841681903+848027378+854119645+861918642+870781268
1441+879387854+886170501+891005136+897042918+905272652+913652114+922152389
1427+930963875+937750813+941601103+944609397+948094332+953064109+959663221
1414+965366967+968708267+971324779+974758146+977752025+978900771+978992410
1400+978275259+976812040+976480407+978777642+983028037+986059240+985203172
1387+980443873+977831394+981198606+986733747+990809444+992664187+991965741
1373+991364597+993539904+995403227+994955673+994386362+993887068+993042154
1360+993693408+995299147+996322018+997099490+998246691+998669706+997679011
1346+996208585+995361355+994360020+991481205+989430915+990981224+993028769
1333+993345386+992494895+991596869+991733898+993068582+994671661+996417861
1319+999150895+1002681479+1005823971+1008427183+1011383308+1014564840
1308+1017756326+1021593230+1025819686+1029484810+1031781101+1033337160
1296+1036020856+1039295229+1041281595+1042953747+1045926946+1048988010
1285+1050561401+1051490745+1052434591+1052593072+1052876826+1053768932
1273+1053380839+1052389029+1052244020+1051591480+1050338052+1049328652
1261+1047621407+1045723934+1045662841+1047330788+1049290384+1050458350
1250+1050659132+1050681956+1050739273+1050448053+1050573842+1051646823
1238+1052157101+1051539997+1051030664+1051276235+1051880983+1051294426
1227+1049693749+1049893844+1052135049+1053470591+1053004674+1052409794
1215+1051926202+1051523179+1052382079+1053946804+1054510623+1054337041
1204+1055057281+1056470047+1056766157+1055888209+1055416629+1055794854
1192+1056143991+1055923303+1055902710+1057538566+1059224703+1057751360
1180+1055125667+1055015409+1056303415+1056846555+1057376911+1058235810
1169+1057867282+1055858091+1053673174+1052077131+1050849188+1051106514
1157+1052544335+1052404217+1050078152+1047043430+1044713504+1042829502
1146+1040829321+1039623773+1038604849+1036613248+1034237417+1032480577
1134+1031426730+1030138896+1028096671+1025271826+1021821384+1018805196
1123+1016481963+1012416733+1005506495+998823467+995222524+994136157+992316251
1109+988317262+984072445+980475964+977316740+974759004+972238078+969395644
1096+967228059+965728803+962771391+958183100+954851667+953830426+952317956
1082+948656350+945009587+942119617+938587918+935269013+932805662+928963437
1069+923480981+919270656+917383651+916118383+913320910+909023752+905785932
1055+903552193+900245729+896976763+895198900+893686688+890913927+887515996
1042+885602649+885381961+885097863+883819725+882322699+881436428+880457660
1028+878799238+877044113+875881467+875604835+874889657+872388208+870002595
1015+869727421+870568988+871080210+870962143+870613092+870408878+870223798
1001+870006628+870072869+870337231+870156699+869758225+869830300+870096551
988+870493395+871123455+870833008+869072392+867239959+866050370+864876826
974+863101538+860368333+857775245+856336224+854758628+852157733+849550402
961+847708015+846575400+846277059+846733280+847519417+848349315+849266133
947+851355207+854827186+858043297+860433716+862830226+865803511+868939396
934+871736955+874863830+878465888+881596110+884720411+888993201+893398472
920+896227778+897381072+898058152+899142974+900058505+900733269+901523954
907+901851468+901783512+901684150+901139208+899539647+897414621+895927378
893+894429924+892421849+891472254+891294382+889647886+887384802+886722136
880+887393554+888596957+889873208+890366582+889850127+889304155+889815290
866+891573932+894351499+897950983+902140800+906586571+910823065+914020386
853+916251551+919042932+922578493+926231090+929887291+933113012+936675772
839+941255569+945105087+946921390+948458142+951512684+954297458+954549980
826+954065787+956309823+961256519+966136544+970481324+974111698+974532138
812+973238726+974315997+977499932+981580263+986757858+991394886+993450153
799+994135900+996335833+1000021293+1002984968+1005566301+1009225333+1012407895
785+1014348013+1017306884+1021942196+1025924453+1026890093+1028183590
773+1034415718+1041281080+1043253031+1042237282+1041174769+1039772300
762+1037074789+1034206699+1033607958+1036297918+1039718501+1041373663
750+1042637387+1043821141+1043250286+1041908652+1041800195+1042162890
739+1041412103+1039998222+1039281929+1039605840+1039231820+1036310617
727+1031780158+1028039611+1026423404+1026745856+1027995594+1028517283
716+1028014385+1027951662+1027059470+1022429135+1015800420+1012214235
704+1013544200+1015333731+1013597141+1013539309+1019627114+1025529925
692+1026197053+1025819943+1027502305+1028122927+1025292848+1020959824
681+1018102288+1018813776+1022511936+1027558250+1032577364+1032947609
669+1026132528+1023570158+1033164093+1040588727+1037670785+1027784601
658+1019443836+1019763800+1027538686+1034198977+1034338494+1031316643
646+1031851461+1043040924+1065303070+1073741823+1054963240+1038175999
635+1038163729+1040983082+1032919465+1025041957+1027777565+1023951043
623+1012468387+1009640454+1013403653+1014899562+1006199021+994559258+992116928
609+996615640+1009548386+1027072255+1035878164+1043305458+1055762849
##END=
