##TITLE=Sample description
##JCAMP-DX=4.24
##DATA TYPE=INFRARED SPECTRUM
##DATE=24/8/2023
##SAMPLING PROCEDURE=Instrument type and / or accessory
##ORIGIN=Default
##XUNITS=1/CM
##YUNITS=ABSORBANCE
##RESOLUTION=4
##FIRSTX=4397.6552
##LASTX=599.8556
##DELTAX=-1.9287962
##MAXY=1.4382414
##MINY=0.53229076
##XFACTOR=1
##YFACTOR=1.3394666e-009
##NPOINTS=1970
##FIRSTY=0.67067587
##XYDATA=(X++(Y..Y))
4398+500703675+499906167+499016414+497202465+496036953+497035817+499328128
4384+501214610+501754781+501031364+499761413+499125525+499454950+499701962
4371+499721942+500160656+500680357+500566218+499924946+499335604+498877355
4357+498704923+498965774+499088814+498954160+499180570+499776008+499634191
4344+498329842+497371828+497189427+496390763+495360928+495215327+495303079
4330+495452017+496073264+495906305+494348803+493225742+493790120+495874533
4317+498056664+497648254+495280652+494385292+494949581+495144485+494886392
4303+494587316+494325307+494145977+494458359+494926441+494331581+493481699
4290+493951873+494793612+494702256+494129824+493585248+493152186+493118455
4276+493315852+493510000+494005984+494465745+493847702+492206453+491130116
4263+491722573+492981933+493281321+492789520+492342130+491687686+490872379
4249+490422763+490271067+490350453+491206787+492778885+493318433+492285438
4236+491282702+490443099+489019093+487971414+488213487+488892895+489388700
4222+489970656+491022562+492746223+493100656+490619626+487997802+487266197
4209+487377711+487210440+487138352+487719551+487894209+487318928+487606479
4195+488723221+489197712+488947584+488474473+488006435+487922287+488462592
4182+488781069+487910006+486672539+486047553+486213756+486809017+486476522
4168+484998405+483769171+483703847+484371017+484616695+484347477+484487915
4155+485195668+485560203+485020254+483952105+483063865+482846933+482887828
4141+482728656+482888095+483566968+483976135+483603502+482824061+482459838
4128+482904381+483508052+483849847+483848379+483158336+482293902+481678751
4114+481024263+480376361+480138915+480750684+481511035+481305451+480729058
4101+480524275+480279576+480165258+480655368+481121448+480890989+480143988
4087+479500179+479259708+479247248+479246091+478990935+478704007+478794518
4074+479181301+479413985+478853211+477964081+477413854+476709616+476180659
4060+476593029+477236392+477305588+477167464+477083895+476926236+477061245
4047+477083806+476366263+476261023+477533288+478596453+478092638+476437862
4033+475288947+475410963+475672972+475567599+475906546+476117248+475073173
4020+474093176+474514802+475002108+474306192+473199640+472934650+473469881
4006+473949489+474031634+473415237+472325684+472083700+473184466+474581506
3993+475304789+474802843+473081362+471904191+472359859+472916672+472510532
3979+472582531+474099717+475002909+474123613+473289839+473105570+472734717
3966+472660181+473839755+474807560+473944817+472811255+472402845+472479650
3952+474051926+476425714+476530909+475422622+475509172+474793631+472798172
3939+471474467+471497473+473447499+475689392+475256285+473735050+473367979
3925+472622001+471263898+471661851+473015638+472147021+469412749+468281189
3912+469130092+470654710+472743928+473995056+472400887+469752897+467894673
3898+467421695+469084125+470708820+468749138+465929383+467509847+469813994
3885+469465702+469353031+468040985+465786943+466845925+469246857+470603225
3871+469603827+466319549+465827259+466595308+464829195+463832734+465802962
3858+468936478+469382668+461819119+456285873+459281042+463094277+465453380
3844+466334456+465856850+463889514+461101532+460946187+462468891+462826483
3831+463278724+464543424+465308625+466172391+465710449+461085557+458870496
3817+459366835+458601056+459994090+462956063+464249376+462851358+462595757
3804+464206301+462201097+459925518+460826307+460774466+460592065+461989950
3790+463941400+465603296+466103908+465410884+464765562+463276811+461394645
3777+461932057+463742891+464939152+464865595+464341533+464181605+463614156
3763+463858855+464533857+463664173+463422544+465673382+468036535+467143043
3750+465845726+468953121+471239157+469565736+470943018+476474751+482263465
3736+483814337+479102894+476198948+479476951+484871762+487760178+486868467
3723+483549703+478937136+476049966+477002062+480350418+482449737+481434008
3709+482357046+486552615+491248127+495358080+499632945+505298664+511762870
3696+518183956+523950732+527139071+526216166+525940184+528837678+531158691
3682+531546320+530998940+530084802+525988243+521437975+522626626+523753380
3669+523128261+524935313+527342608+528336889+529287828+532038743+535583962
3655+539080187+543908929+548625578+548937159+547236371+548703852+551369018
3642+552756668+552333395+552227577+553087783+553426553+553891788+552544453
3628+546463916+543654752+544259402+544289438+542732604+539835510+538600090
3615+538990433+539013439+538727001+537167763+534855695+534850488+536311473
3601+536954035+537225656+537848817+536644368+533519752+532763584+534135793
3588+531625483+525874504+523568621+523538807+522652614+521520876+521162038
3574+520621956+521135694+524190892+526508167+523505522+519715293+519458802
3561+520182219+519782353+519418575+520102210+520454463+520232013+521914868
3547+524395231+523272170+520023803+518622892+518725551+519055955+519350982
3534+519612323+519582420+519518297+521290995+524518225+524818014+521364240
3520+518488595+517902234+517884524+517807763+518416596+518879695+518475690
3507+519989984+523970801+525270923+522216615+519400865+518699831+518775212
3493+518754520+518699208+518771385+518962819+519927730+522002931+522933713
3480+521161326+519184289+519127064+520038933+520627251+520903544+520812188
3466+520307972+519920655+519917585+520159080+519864008+518533806+517486749
3453+517588518+517775813+516862965+515082391+514276696+514969497+516162599
3439+517679651+518831458+518365645+516523261+515025210+515111493+515962132
3426+516851929+517829835+517824673+516571765+515638180+515848793+516383268
3412+515988252+514888020+514277852+514564024+515461031+515882256+515052932
3399+513958485+513770522+514631618+515440784+514842320+513521952+512946404
3385+513088400+513150031+512688356+512102841+512227259+512770278+512832131
3372+512709804+512781625+512376241+511436516+510922644+511116347+511545983
3358+511683573+511445861+511609216+511871135+510807080+508910230+508175911
3345+508905647+509508739+509832735+510740466+511351924+510518150+508536485
3331+507189863+507521290+508242437+508513924+508522424+508102978+507565833
3318+507299330+506867158+506302112+506102757+505983857+505656879+505118088
3304+504660151+504604750+504501246+504399744+504752887+504951529+504353154
3291+503443732+503032341+503265871+503678018+503630761+502342966+499794698
3277+498089193+498968088+501272681+502719737+502250097+500943078+500375407
3264+500357563+499837372+499028829+498678223+498685477+499077822+499808537
3250+500032588+499109550+497579237+496691842+496610409+496367535+495845519
3237+495692888+495975990+496457645+496162573+494572676+493462654+493620847
3223+493777705+493896739+494784090+495464788+495168648+494493201+493502792
3210+492766070+492513272+492028057+491690089+492281255+493016909+492524886
3196+491780199+492077985+492462009+491435956+489931141+490350586+491835867
3183+491810770+490205120+489815266+492243476+494184024+492456936+489790347
3169+490741108+493759016+493664723+490327847+489207813+492519635+494462541
3156+491155302+487978890+491372367+497434838+496705992+490884572+490218380
3142+497233036+501540964+496017507+489405476+491669575+498821954+498368779
3129+490276051+487154283+494876158+502576629+497658845+488260300+489143156
3115+499994987+504677283+495219733+486061704+489972525+500537427+500324990
3102+489162424+484188661+492156214+501439818+496998527+485652582+484209798
3088+495086325+502999145+495120545+483492077+482503937+490249975+493964021
3075+487348297+480395228+482036966+490000959+492724152+485683375+479359919
3061+481066314+487703398+488854403+481770196+476024112+476682160+480240328
3047+480603972+477285697+474673084+474582796+475667721+475748264+474524725
3034+473538988+473940679+475158610+474985510+473466900+473917717+482223016
3020+512710383+570639174+616359500+606231531+567542192+535727204+515971610
3007+503149773+493778951+487533190+484408707+482209889+478801949+475621442
2993+475021421+478445558+482644953+481079085+475843536+473902454+477785686
2980+484078081+484287537+477539830+472268192+473443093+479834143+483301133
2966+478721629+473024004+473397304+482018499+490527246+486016938+475048342
2953+470756968+476230942+486095701+487267621+478352511+471776124+473649345
2939+481645110+485789238+479877485+472173053+470800622+477835035+487019051
2926+485393510+475144326+469368428+472821979+480878262+482162186+474154362
2912+467591191+468078186+473332202+476964905+473902454+468576572+467093516
2899+470284080+475045450+475328329+470405873+466383716+466914854+470998018
2885+473752048+471377548+467282058+466056072+468103060+470762130+470553164
2872+467763490+465812663+466422786+468659785+469725397+467913407+465234134
2858+464307581+465339864+466552011+465887288+463688869+462118952+462203099
2845+463245172+463609261+462795423+462003433+461983631+462642347+463398782
2831+463527561+463232356+463155418+463493920+464076365+464369701+463878701
2818+462971994+462453450+462303400+462185433+462183653+462298816+462569013
2804+462828975+462675187+462418562+462374375+462328408+462383764+462555886
2791+462464352+462026751+461583587+461550480+461838699+461973085+461873096
2777+461799228+461927029+462130922+462206570+462264508+462457454+462638831
2764+462578091+462373663+462284755+462332057+462472184+462688492+462811976
2750+462755463+462699839+462714613+462848688+463203254+463429441+463276366
2737+463115369+463164807+463210285+463211486+463419029+463788992+464014912
2723+464056073+464014957+464038407+464196289+464267621+464360267+464677544
2710+464796444+464578979+464480147+464718037+465173750+465667998+466157395
2696+466559219+466557617+466133855+465779423+465751744+465905933+466161890
2683+466576618+467232709+467808790+467836958+467641296+467776573+468097854
2669+468237180+468234732+468321416+468611326+469055156+469511002+469869885
2656+469983891+469960885+470239670+470836265+471344753+471624072+471830146
2642+472105727+472532737+473084121+473550291+473775989+473950112+474255419
2629+474530911+474853927+475373006+475842779+476341477+476984618+477512151
2615+478003863+478560632+478995074+479311149+479576317+479842954+480283136
2602+480915686+481456257+481576671+481455412+481628779+482097885+482660884
2588+483395559+484098417+484451827+484454897+484371595+484583009+485102844
2575+485656008+486254339+486855162+487175064+487413043+487911830+488467442
2561+488928805+489371123+489693117+489844680+490015199+490428593+491057850
2548+491709624+492273023+492663633+492975703+493406763+493873288+494233996
2534+494451728+494534540+494673421+495063231+495622536+496084745+496321256
2521+496463964+496713646+497084054+497436129+497811698+498179303+498263228
2507+498315024+498776210+499186889+499050767+498889949+499204199+499648252
2494+499972782+500319161+500411318+500176765+500170980+500525813+500968086
2480+501214476+501194274+501236993+501327726+501252656+501237527+501422241
2467+501602283+501689901+501761678+501684072+501509726+501615989+501777519
2453+501563792+501194496+500935202+500820039+500870323+500965283+500927192
2440+500724767+500415367+500110906+500052924+500152379+499975230+499588090
2426+499298314+499051524+498764373+498460402+498075665+497628274+497278380
2413+496979927+496600530+496229944+496011366+495919254+495754297+495344285
2399+494800020+494573477+495180574+497249189+501782681+509997825+522927038
2386+540561374+561410348+583301216+604579513+624524850+643066784+661019998
2372+679484949+698292007+716059394+731767378+744632913+753455999+758249053
2359+757622154+747737193+730683165+712439195+695664086+685708505+688506812
2345+698876899+700433377+691018412+681182622+674181895+671277815+674593909
2332+680573167+681286038+677044413+676143580+680168629+681714161+675904354
2318+665227492+655459830+652614221+656035733+657215930+650832134+638396324
2305+623682799+611264611+602872050+595999702+588309065+579134883+568460068
2291+557588213+548102273+539965624+532519642+526002483+520778369+516500656
2278+512824033+509785655+507253585+505004038+503129259+501624221+500270879
2264+499034570+497904122+496862984+495978927+495283322+494789474+494348224
2251+493821581+493397329+493200066+493017532+492772388+492751251+493079920
2237+493484325+493697429+493802847+494037222+494399932+494811946+495340725
2224+496008073+496619487+496980995+497226005+497570470+498109351+498811809
2210+499439331+500036015+500812118+501593028+502322096+503119425+503948704
2197+504846779+505726743+506387016+506933461+507556800+508273987+509022857
2183+509737107+510588146+511722643+512782248+513616155+514408768+515039850
2170+515583536+516247502+516956769+517712759+518421357+518871107+519056444
2156+519091954+519168759+519376168+519645919+519905748+519799084+519169337
2143+518719677+518790163+518797773+518334451+517387161+516150896+515009502
2129+514075605+513064148+511882171+510716748+509457121+507925250+506365745
2116+504935465+503359496+501536514+499742323+498149800+496654062+495169004
2102+493774012+492357037+490755169+489080591+487560468+486387435+485333081
2089+483977381+482251851+480351397+478773737+477875929+477223755+476195165
2075+474908483+473739411+472671084+471728421+471026631+470319723+469304038
2062+468313006+467631685+466882103+465969610+465209260+464739441+464510584
2048+464438674+464564250+465094008+465892627+466267396+466286531+466591392
2035+467057428+467547137+468205452+468925087+469666881+470541372+471399664
2021+472155120+472948089+473176145+472302456+471153541+470369517+469649082
2008+468740906+467674092+466436225+464990059+463463083+462128475+461255809
1994+460792310+459857212+457803771+455389311+453275307+451603176+450303366
1981+448994568+447650215+446364690+445014196+443789589+443080857+442717836
1967+441899014+440418672+439003878+437989884+437249380+436621101+435805572
1954+434835943+434129258+433747859+433430805+433217611+433281734+433123185
1940+432405820+431698111+431322675+431235012+431123009+430773515+430546838
1927+430878132+431782303+432503005+432449740+432133532+431924521+431781724
1913+431670299+431716044+432008223+432206599+432343165+432737603+433178319
1900+433515175+433875125+434050451+433904584+433809178+433705896+433393070
1886+433265180+433326900+433644666+434350995+434573267+434008933+433867205
1873+434898820+436202991+436304181+435797251+436468960+437885890+438836162
1859+438848622+438388104+438279883+438867044+440151591+442069355+443827591
1846+444416933+443817712+443013530+442504687+442252868+442609837+443376729
1832+442967074+440501974+438498817+438447331+438182252+437014559+436187282
1819+435933995+434785526+432449651+430378499+428515469+426527263+424802712
1805+423944820+424343618+423560884+420220360+417597513+416221743+414269181
1792+411928144+410463422+410170175+410307854+409571889+408099913+406799481
1778+405492863+403918407+401810009+399539859+399816909+401709932+401867546
1765+400862497+400087150+399832127+400168583+399994503+399740148+401001555
1751+402363352+401295425+399752519+399864522+399915696+398615708+397390078
1738+397738103+398508466+398473446+398917410+399638958+399558282+399688352
1724+400404026+401019043+401380151+401404981+401298540+401810632+402621890
1711+403324748+403617372+403338320+403512400+404730465+404791740+403053395
1697+402871217+404219352+406351645+409045023+411567927+412831203+412140492
1684+411743163+414951392+417891160+418915567+418983650+419287354+420148450
1670+421386273+423763665+426696091+428754338+430252835+432597654+435546322
1657+437862528+438021612+435901778+437545741+440513099+442113676+444384404
1643+447888373+450914780+452804821+452888079+452117716+454564971+458363922
1630+460994334+462703800+464441878+466289779+468751541+471357479+472352027
1616+472791008+475905078+479959941+482925162+485119887+487599093+490383515
1603+493158193+495939723+498698960+501300092+503980477+507162585+510724135
1589+514350341+517954698+521853727+526061132+529886604+532985455+535489135
1576+538604673+543181641+547377921+551008889+555768613+561524220+566946753
1562+571189847+573817990+578064064+586935120+595934956+604614623+612568025
1549+619588866+626536195+633627166+637637531+638254106+646221125+657980375
1535+666922362+674324914+681201134+687726125+694371040+700336593+704722616
1522+709873929+717412825+726467172+736017191+744354840+752576970+760972646
1508+764982343+763577160+769427594+778623091+785739871+790266199+795104641
1495+801841313+808159607+813418741+818810838+825561927+832488253+838472806
1481+843417422+847966445+852831319+856726476+858504737+861841078+868642362
1468+874940543+878501603+881568994+886683863+891400556+892048103+893059827
1454+901577786+910757441+916808208+919986045+923556094+929490541+936361689
1441+942549245+946168421+947177831+950721626+957646884+963516897+967671571
1427+971492771+974529724+978277857+983357661+986437156+988442004+993074417
1414+997878239+1001109830+1003372772+1004098814+1002869580+1002093966
1402+1003616892+1005255160+1005741709+1006012618+1005913742+1007107288
1391+1009630815+1008908421+1003409973+1000312679+1002700929+1006662834
1379+1009589075+1010651350+1009869239+1009885348+1012206049+1014390405
1368+1015886099+1016983083+1014939876+1011512758+1012195013+1014521855
1356+1014753782+1013840578+1013561393+1013968112+1014543125+1014174942
1344+1013277135+1012269771+1009383045+1006257094+1005788077+1006611394
1333+1007072401+1006685084+1005712251+1004716813+1004718504+1006115232
1321+1007648572+1008477139+1009833462+1012999551+1016668921+1019748950
1310+1024446776+1032590588+1040472036+1043107076+1042746992+1043817811
1298+1045677326+1046613047+1048022413+1051269756+1054498321+1055921749
1287+1056731716+1057992722+1059226674+1060786623+1062927371+1063981992
1275+1063094242+1062088925+1062788535+1064009493+1063592895+1061946618
1263+1060358278+1059128064+1058338923+1058033661+1058180507+1058591142
1252+1059126996+1060089505+1061564551+1062689303+1062578234+1061582351
1240+1061176522+1062160479+1063061045+1063546438+1065542387+1067175493
1229+1065494328+1063120763+1062595588+1062607870+1062629763+1063552579
1217+1064556027+1064737226+1065394206+1066642397+1067276594+1067862109
1205+1069208464+1070926741+1072096258+1072175733+1071758067+1071916839
1194+1072803255+1073714234+1073741823+1072585922+1072005302+1072818117
1182+1073381383+1073352014+1073270314+1073076210+1072592953+1071794734
1171+1071264308+1071423080+1071253896+1069451606+1067477995+1066750440
1159+1066139828+1065220750+1063325101+1059965176+1057566335+1057878894
1148+1059677358+1060474331+1058074333+1053820605+1051026259+1048593866
1136+1045164878+1043204885+1042142075+1039590426+1036408139+1032901457
1124+1028592995+1024498839+1020692680+1016646850+1012211389+1006437315
1113+1000555910+997606441+995964346+991695311+986046901+981778221+978327963
1099+975272320+972677418+969694842+967254350+966230077+964522659+961534120
1086+959284706+957641455+954966365+951508365+949311370+948840840+947447138
1072+944344949+942129444+941350270+940189919+938209011+936590501+936147382
1059+936172213+935636803+934600960+933240543+931179626+928354843+925584171
1045+923841420+923094908+922659087+921766886+920147398+919502076+921193831
1032+923046227+922830052+921216703+919616794+919025227+919160859+918887281
1018+918884611+920367934+922031298+922388624+922668343+923778499+924460131
1005+924270477+924194473+924608490+925113462+925603394+926323207+926817944
991+926392625+925553911+925083737+925091302+925185550+924422930+922548018
978+920357966+918441047+916590075+914344755+912217624+910632666+908907270
964+906640769+903945566+901449985+900074527+899658998+899456706+899682137
951+900877375+902353933+903101602+903394404+904185237+906032203+908676677
937+911297300+913471066+915556012+918086303+921147196+924144368+926485360
924+928604748+930739978+932551168+934731520+937173702+938530382+938976170
910+939176949+938782779+937366382+935893383+936141686+937369230+937333364
897+935917235+934129985+932832578+932811664+933489915+933142112+931268980
883+929543851+929319310+929648245+930186858+931603166+932900929+933787078
870+935291849+937409101+939988785+943575476+948130016+952148168+955250357
856+958498946+962184692+966742970+970892927+972012873+971391314+972442909
843+976060394+980985164+985086617+986736187+986970963+986955121+986008454
829+985224564+987244809+991719251+995799523+998764833+1000977224+1002967566
816+1006719526+1011566690+1015652658+1018760631+1020123273+1020259440
804+1020659306+1020965902+1020421148+1021424952+1027244504+1035005004
793+1038551023+1038618572+1040587288+1044829624+1049103644+1052209660
781+1053053713+1053266061+1054340262+1055972744+1057998596+1058999463
770+1058813280+1059307395+1060184733+1058633149+1055427990+1053925533
758+1052801761+1051233623+1052597422+1056462854+1058283744+1058231414
746+1058422225+1055948893+1052288067+1053244079+1056393436+1055741440
735+1051647106+1049158111+1050064284+1049970570+1047090430+1045654365
723+1047135997+1048453517+1047415271+1045368327+1045299888+1045664778
712+1043243865+1040679489+1039896578+1040279623+1042329504+1042539984
700+1039386710+1038230632+1039843090+1040058731+1038129620+1035534450
689+1033558437+1034759103+1040204776+1045912369+1048605970+1048630711
677+1045498441+1040974783+1039887589+1041046960+1040394519+1044560229
665+1051885530+1048316016+1038615991+1034594814+1034450371+1032189120
654+1029321796+1029098768+1033584335+1038836972+1036115960+1032696139
642+1037289660+1037403043+1031591412+1032476849+1037130889+1037514735
631+1032591745+1025588793+1013390428+995220060+987261006+987616195+979113545
617+972326500+976422080+980398937+985994571+1003100973+1028616223+1040458775
604+1027503843+1020223485+1032183958
##END=
