##TITLE=Sample description
##JCAMP-DX=4.24
##DATA TYPE=INFRARED SPECTRUM
##DATE=24/8/2023
##SAMPLING PROCEDURE=Instrument type and / or accessory
##ORIGIN=Default
##XUNITS=1/CM
##YUNITS=ABSORBANCE
##RESOLUTION=4
##FIRSTX=4397.6552
##LASTX=599.8556
##DELTAX=-1.9287962
##MAXY=1.4730356
##MINY=0.43502179
##XFACTOR=1
##YFACTOR=1.3718713e-009
##NPOINTS=1970
##FIRSTY=0.62636185
##XYDATA=(X++(Y..Y))
4398+456574792+455452582+455449758+456928761+459046445+459998340+458929614
4384+457609021+457579173+457590947+456786079+456300290+456329921+456791640
4371+457570961+457432624+456965561+457529729+457798062+456963389+456840866
4357+457715512+457675279+456731639+456810974+458321520+459495173+459089024
4344+457979978+457042116+456151351+455770011+456249760+456938363+457365540
4330+457154645+456375541+455687113+454796565+453759686+453751822+454892715
4317+456141662+456449620+455901918+455832793+456481988+457119757+457617146
4303+457657987+456998234+456267661+456090133+455959616+455112517+454107398
4290+453825683+454088324+454303130+454905489+456057808+456401393+455638973
4276+454471924+453418013+453390728+454272369+454926691+455086926+455141366
4263+454928603+454218537+453807869+454541571+455401618+454748773+452907546
4249+451019831+449747074+449735039+450991155+452523295+453718150+454869383
4236+455396187+454816681+453903976+452844677+451793243+451186887+451353813
4222+452555142+453989177+454803256+454589363+453410019+452892948+453761554
4209+454022979+452877089+452230675+452506263+452341292+451870797+451924108
4195+452197263+451834171+450765879+450220393+450936672+451932232+452321263
4182+452341119+452130875+451693487+451527256+451838342+452133743+451993581
4168+451591602+451037080+450362250+450571233+451903644+452639691+452068267
4155+451401432+451471165+451856720+451947787+451522477+450493158+449502029
4141+449699151+450898395+451561189+451240719+450896657+450908474+450824838
4128+450298643+449827409+450101347+450813541+451390874+451222688+450109949
4114+449391151+449853434+450269359+449698239+448852008+448585196+448889373
4101+449529705+450243247+450799768+450894137+450044560+448730615+448214370
4087+448817076+449508199+449195810+448192342+447794839+448242785+448327508
4074+447906890+448153934+449014155+449559510+449456452+449010245+448683040
4060+448556651+448568121+448476012+447980317+447372136+447399030+448219410
4047+448730181+448292923+447726191+447489706+447340332+447119705+446697089
4033+446320311+446584734+447273162+447426055+447048277+447027031+447253176
4020+446943351+446365323+446236109+446551931+447036677+447151248+446662462
4006+446447395+446574567+446286682+446111414+446583126+447062484+446909462
3993+446252967+445670160+445299985+445253496+445887876+446680319+446786418
3979+446577478+446723071+447025728+447215942+446999572+446233937+445641093
3966+445479294+445381928+445494848+445912337+446196355+446080306+445975858
3952+446001492+445241505+443892845+443596662+443977133+444044564+444684722
3939+445903561+446244886+444910477+442330509+440949263+442529891+444336489
3925+443856045+443181085+443750988+443655142+442933389+443855219+446096425
3912+447352237+447070348+446137266+444269449+441257351+439107950+439001156
3898+440552412+442952810+444028575+442075384+440718730+442332682+442367049
3885+440570095+440892173+441315745+442038714+443977177+444067852+442625258
3871+440994449+439693321+440505098+440514917+439325667+440582913+443062212
3858+444614120+443192424+435703693+432656967+438159444+443549217+445788902
3844+444725954+441913802+439038304+436727408+436897027+438732692+440118457
3831+441508957+442764552+443248515+444050386+443223229+438983777+438042048
3817+439387015+440232159+443238957+446612627+447445085+444911824+443416658
3804+443799476+440986020+439094177+440491021+442103017+444842090+447370702
3790+448041361+447878476+447141125+446527687+446857672+445852510+444228522
3777+445679935+448558128+449725567+448067343+445835652+445295423+445453834
3763+446187839+446356981+445183806+445766440+447784889+446562532+439816452
3750+435923929+439347781+441465770+439778913+441272341+444837571+445445492
3736+441174279+437062172+438696718+443148803+446468728+447027683+445905733
3723+445534342+446741058+449204108+451688665+452550146+450113599+446970375
3709+449588403+456035911+462724466+468650297+475256476+484210350+493970049
3696+502752523+509662835+513410851+513084124+513495617+517141531+519428748
3682+517941881+513587509+507501530+497136908+487940031+485900335+481441820
3669+475696601+475431657+475672183+473268961+469842763+466637452+462103121
3655+458396163+457673628+453798094+443463408+439689671+444256850+448550698
3642+449803600+448717451+446739190+444135804+441709555+440486111+436358232
3628+428928981+428075494+430170672+429415638+424583647+419300581+418443184
3615+418475422+416356434+413543761+409830417+406537038+405947062+405526532
3601+403121745+400013714+397069264+393735436+391252530+390638745+388898534
3588+383749678+380710599+382125256+383384674+381912362+379015835+376833240
3574+375765078+375458772+374476463+369767993+363495666+362987046+365616392
3561+366432166+365501038+364528027+363487455+361641254+359637489+358287374
3547+357070686+356193499+356160848+356134606+355319310+353747633+352563205
3534+352488845+352241171+350990116+349659509+348678047+347424538+346302827
3520+346155735+346305868+345938583+345271531+344455040+343159538+341783072
3507+341280903+340735678+339073131+337792792+337665056+337600493+337277807
3493+336915062+336071612+334618591+333349266+332800609+332458480+331877497
3480+331597759+331642554+331215311+330420566+330020499+329787207+329054353
3466+328115209+327153625+325936959+325086123+324849463+324425718+323745001
3453+323485032+323320952+322243818+320829292+320571777+321032388+321237352
3439+321359006+321440926+321150957+320373829+319532834+319243624+319261916
3426+318978224+318269983+317462182+317101023+317231236+317626914+318282431
3412+318755663+318662490+318321730+318008537+317941171+318279650+318631468
3399+318716843+318813036+318954936+318856831+318593625+318504601+318765157
3385+319318572+320099674+321020679+321939228+322620966+322819109+323301313
3372+324711191+325904286+326149766+326291775+327096078+328410697+329510727
3358+330123036+330860300+332278237+333794279+334655391+335401518+336435226
3345+337273657+338002449+338902511+339893575+340852770+341422847+341685249
3331+342082057+342456446+342629954+342830618+343145288+343395242+343533514
3318+343808951+344293588+344715053+345007043+345374306+345745828+346017354
3304+346387333+346588344+346445335+346808971+347752264+348376651+348790924
3291+349323028+349639110+349920499+350773551+351901258+352418937+352437707
3277+352745012+353438546+354307196+355420000+356467676+356890704+356739876
3264+356801159+357891500+359458724+360227075+360308496+360492931+360903208
3250+361312615+361464682+361222287+360885763+361104696+362246176+363783551
3237+364633952+364729537+364866485+365056916+364776722+364207513+364367683
3223+365348406+366005683+366123383+366104483+365921959+365899454+366322851
3210+366765323+366952148+367072758+367114164+367058030+367034611+367173644
3196+367745894+368669201+369600154+370424314+370869870+370774372+370741916
3183+371356267+372139020+372429294+372725782+373678025+374768214+375231801
3169+374921411+374354549+374266654+374649906+375228629+375973975+376616783
3156+377052520+377536528+378079233+378421731+378461746+378291648+378119291
3142+378171993+378404265+378762708+379238374+379451050+379402085+379919938
3129+380903854+381064611+380333951+379901733+380152253+380533419+380690613
3115+380830688+381153114+381533715+381828725+382074465+382319380+382561905
3102+382836451+383088274+383145408+382904143+382722705+383013414+383509890
3088+383868681+384001327+384074276+384497239+385060365+385285945+385286597
3075+385310797+385652861+386393775+386755520+386099807+385093950+384761532
3061+385056802+385258356+385176066+385257009+385738714+386154725+386251005
3047+386400465+386399640+385963729+385646735+385680103+385644258+385330305
3034+384917596+384568537+384525611+385253142+386367098+386847151+386663889
3020+386403681+386364100+386563351+386786281+387015685+387340022+387544661
3007+387528976+387525891+387759857+388387024+389395228+390323792+390895607
2993+391690222+393774625+396916241+398645764+398332984+398554133+399825151
2980+400392882+399963967+399494123+399496122+399705105+399877506+399892061
2966+399244777+398016163+397243707+397282810+397458208+397463335+397556530
2953+397966763+398592193+399077547+399380030+399591446+399699935+399794608
2939+399767366+399494906+399351224+399628811+399832060+399564856+399260027
2926+399125035+399006336+399123167+399348661+399069205+398456810+398281238
2912+398555914+398800351+399018197+399364780+399625118+399663830+399832364
2899+400375808+400937108+401198968+401279998+401328268+401384533+401336306
2885+401160994+401349470+402125272+402865360+403115445+403193825+403402895
2872+403426183+402973893+402370752+402029818+402054931+402428581+403003915
2858+403339635+402980323+402172544+401691186+401741586+402031816+402460167
2845+402793455+402814700+402849719+403148813+403622393+404351098+405301603
2831+406130107+406681676+406980900+407075659+407144480+407476942+408149208
2818+408811568+409314302+409855617+410410400+410854218+411155572+411390102
2804+411671991+411986987+412448141+413082911+413472246+413424150+413264697
2791+413340296+413873833+414746437+415397848+415553912+415732395+416423692
2777+417207097+417538299+417616635+417863505+418360025+418908900+419376266
2764+419715854+419939305+420316127+421004903+421727352+422243901+422692542
2750+423193798+423627884+423933799+424182972+424458517+424764606+425082165
2737+425532718+426184346+426795916+427139283+427458320+428043647+428711178
2723+429299807+429924107+430474285+430807094+431132431+431503952+431765550
2710+432029930+432471315+433078844+433787519+434402608+434626451+434727076
2696+435255487+435893255+436056054+435942829+436047321+436441869+436851842
2683+437082245+437140899+437204550+437328984+437323293+437287709+437566991
2669+438168350+438788045+439111774+439063677+438967049+439098261+439318237
2656+439553550+439944579+440493323+441003964+441242405+441225417+441193483
2642+441271472+441333732+441369533+441654550+442087854+442335679+442419533
2629+442480882+442796008+443410532+443907530+444171692+444359603+444558246
2615+444899484+445403695+445808019+445983070+446318573+447005133+447611881
2602+447804050+447685438+447429791+447176926+447182921+447393339+447521249
2588+447679355+447944820+448038667+447932829+447941649+448155020+448375474
2575+448424135+448282105+448171965+448195340+448182045+448151197+448245435
2561+448380253+448405453+448264899+447954335+447695648+447807743+448257904
2548+448633553+448569033+448337457+448527932+449034184+449304429+449256636
2534+449164701+449198460+449340491+449421564+449435598+449567374+449779356
2521+449965746+450209444+450480428+450497894+450217048+450096480+450387797
2507+450784953+451029389+451104510+451100991+451081700+450996543+451022785
2494+451293899+451414944+451136966+450820840+450742113+450724082+450665428
2480+450636492+450506192+450123027+449690592+449539568+449545042+449428820
2467+449308165+449238736+449142282+449036617+448797090+448505817+448412491
2453+448352360+448217541+448135338+448067256+447979578+447810219+447622308
2440+447624350+447613358+447418104+447205471+446988319+446760610+446604589
2426+446544458+446537897+446520388+446520170+446439836+446114456+445738937
2413+445610680+445657907+445605814+445466564+445428764+445418206+445324229
2399+445243764+445234423+445188716+445021659+444763406+444478998+444327973
2386+444240513+443643281+442191781+440174374+437777234+434782602+431367743
2372+428088224+424985060+421997422+419315049+416885714+414820558+413687747
2359+413753309+414924355+417246417+420780930+425039022+428181463+428305419
2345+425608013+422714049+421409097+421347793+422107649+423350992+424348942
2332+424823521+425437263+426474534+427483910+428574013+430144126+431782104
2318+433132589+434476296+435816440+436917230+437832456+438809117+439982813
2305+441088513+441844981+442481794+443160273+443640327+443870165+444090315
2291+444505588+445116332+445731334+446160076+446382963+446507788+446580780
2278+446592511+446617841+446710732+446816744+447021470+447518989+448163666
2264+448568642+448679738+448789834+449061817+449365734+449584189+449865817
2251+450247765+450492897+450629627+450761708+450847039+451062105+451426241
2237+451728854+452045196+452499138+452929791+453205988+453485922+453842888
2224+454101750+454226749+454410098+454779230+455127897+455310899+455659654
2210+456325576+456983896+457303714+457246581+457254749+457730501+458420798
2197+458954683+459379819+459813384+460275276+460878895+461502847+461811586
2183+461959830+462370845+462994189+463598286+464191347+464727448+465160665
2170+465570724+466022016+466594960+467175986+467649306+468232852+468984757
2156+469633345+470079466+470469582+470815122+471023106+471157490+471300563
2143+471421217+471571590+471811682+471941286+471857432+471723048+471611822
2129+471460016+471093969+470479619+469821603+469211945+468640912+468077222
2116+467422205+466666519+465908530+465110874+464135039+463021779+461923725
2102+460922690+460002424+459086547+458083514+456971426+455912258+455033312
2089+454198681+453241138+452250356+451384227+450527438+449547258+448518460
2075+447504391+446559273+445780126+445134102+444366207+443392501+442482924
2062+441687831+440912376+440281907+439735900+439098435+438439985+437801608
2048+437117351+436396640+435704996+435103593+434558151+434053376+433605517
2035+433060205+432408576+431809215+431184785+430573563+430141997+429775168
2021+429338866+428724299+427998983+427545737+427289134+426902320+426484527
2008+426122738+425748392+425370224+424936833+424412289+423966602+423691578
1994+423218216+422305988+421497079+421135029+420921049+420707026+420482532
1981+420266727+420101626+419844198+419418498+418991885+418535640+417781128
1967+416926859+416576410+416673994+416678382+416452628+416098703+415619953
1954+415141680+414817343+414529242+414102151+413507830+412631664+411894356
1940+412113028+412644524+412620020+412288470+411920208+411530134+411221438
1927+410834450+409916878+408784761+408269906+407852982+407357331+407692964
1913+408226241+407962948+407415073+407466602+407887523+408008003+407794849
1900+407590601+407340430+406828572+406420555+406199493+405736037+405603304
1886+406093307+406503149+406797681+407033385+407052980+406989676+406953571
1873+406650871+405199284+402885998+402602806+404639764+406374327+406896785
1859+406937148+407061104+407164162+407062060+406819926+406374848+405584969
1846+404325377+403408804+404410360+405955404+406474691+406570884+406715695
1832+405768231+403489487+402458429+403175925+403989222+405139673+406353081
1819+406759708+406630277+406452446+405920602+405030011+404804909+405428123
1805+405982081+405698194+404493128+403633689+403951944+404147980+402804316
1792+401357074+402737016+405089665+406094132+406015709+405602609+405204845
1778+405388325+405398926+403660757+400792427+400860293+403713503+406268314
1765+407512960+407151345+406482772+407002537+407785899+408647858+408909065
1751+406904562+404275238+404484743+406170340+407182323+407203526+407052893
1738+407567574+407018960+404288142+404387768+407694007+410857260+412746670
1724+413257658+413302322+412508620+408748917+404731309+406722039+410991383
1711+413814657+414264428+412238810+410138939+410121299+409054745+405809724
1697+405472266+408720111+412797590+415055002+415186909+414338810+411557463
1684+407744363+409782885+414028898+416332799+415983436+414731795+414219112
1670+413495447+414551878+417596823+418868884+418267394+419232759+421184820
1657+421224358+417481513+412055069+413876961+416206192+416185033+419355846
1643+425139125+429283514+430770859+429582912+429559668+436045757+443318727
1630+448135903+451510095+454772843+458362795+463464728+468872836+472389623
1616+476306433+483251373+490101293+495397697+500057854+504999681+509953066
1603+514733442+519636428+524546104+528970643+533213962+537921086+542746256
1589+547352016+551813877+556117589+560307380+564452160+567928714+569955071
1576+573201613+579832296+585573431+590058102+596673883+604759455+611939013
1562+616935628+618348851+621555769+634199092+647348797+658982656+669711977
1549+680435477+689434494+695774294+700586040+707496135+725603353+744220516
1535+756674798+768484142+782608553+795450996+806242361+815724994+823576948
1522+833112066+846582242+859967000+873610966+887615896+898983290+905760957
1508+908514498+917618528+935097275+948453357+957556257+962440473+966237193
1495+974955234+984719408+989562088+989834679+994537023+1003263406+1009725729
1481+1012963277+1014856728+1014945014+1011216680+1004427891+1002071288
1470+1008580361+1016140433+1018226270+1016619835+1016718027+1015109333
1458+1005730192+998534993+1004102468+1009816708+1011451384+1010978065
1447+1011698341+1014304595+1016314746+1016688917+1015775038+1012887765
1435+1011819300+1015491238+1019637365+1021932185+1022085903+1019666909
1423+1017938994+1018912396+1017765117+1015224730+1017658235+1021701304
1412+1022995698+1021908115+1020454790+1018272673+1016118275+1015196054
1400+1012207809+1007191164+1004857675+1005347157+1006874257+1008286220
1389+1007034839+1002181906+998904385+999617536+1001551219+1002407052+1000942951
1375+998122240+997969912+1001411057+1003976904+1003658345+1001674350+998753187
1362+998108858+1000844846+1002242559+1001327724+1000882038+1001115004
1350+1000424099+999190879+998186716+997184986+995358271+992356992+990633422
1337+991705015+993499753+994648423+995082987+995582809+996836536+998162386
1323+999230243+1000710245+1003056595+1005860622+1008206971+1011157417
1312+1015796067+1019796818+1022009609+1024516193+1027977063+1030856863
1300+1032518129+1034172965+1037185628+1041526835+1045186608+1046315031
1288+1046672258+1049336297+1053967647+1057755157+1059374452+1059714474
1277+1059951612+1060730889+1061655891+1061334639+1059294682+1056355793
1265+1053118593+1051185692+1052188030+1053597647+1053419164+1053489810
1254+1054022826+1054376751+1054700784+1055175059+1056810691+1059028696
1242+1059377841+1058189808+1058539388+1060127922+1059152348+1056296444
1231+1055925922+1058292605+1060797538+1062445683+1063406312+1063694370
1219+1063206974+1063158312+1064786384+1065950435+1064626062+1063611037
1207+1065174198+1067076686+1068075722+1069214052+1069821885+1068997595
1196+1067928000+1067931997+1068914784+1070189713+1070722816+1069883755
1184+1068778619+1068514978+1068619514+1068379335+1067991173+1067694251
1173+1067244829+1066318002+1064737810+1062910313+1061207424+1060109066
1161+1060297195+1060877134+1060449870+1059385054+1058474042+1057487867
1150+1056504993+1055804268+1054709126+1052881890+1050478016+1047742896
1138+1046150973+1046120212+1045285408+1042598515+1038542412+1033410805
1126+1029652145+1028031199+1025691627+1022499699+1019934894+1017329944
1115+1014773134+1012699289+1009506926+1004840036+1001705545+1001540965
1103+1001224666+999217122+998406649+999588513+1000443477+1000255956+999572524
1090+998678544+999366756+1002784438+1006855053+1009960086+1011082774+1009972686
1076+1009676112+1011066351+1012425134+1014670163+1017409975+1017670053
1065+1016728107+1017925265+1020075317+1021587123+1022996740+1023492565
1053+1023496215+1024360129+1024853347+1024273668+1023317211+1023061651
1042+1025079970+1027737318+1027624441+1025897917+1025877757+1027107587
1030+1027520254+1027721243+1028301965+1028432916+1028414755+1028376086
1018+1028017469+1028161368+1028965672+1029455848+1029052654+1028091765
1007+1027715160+1028391380+1028720887+1027165547+1024484650+1023049486
995+1023397936+1023435041+1021922105+1020011189+1019032920+1018907009
984+1018888587+1019050212+1019812024+1020551678+1020120155+1019001290
972+1018700198+1018537443+1017200731+1015160340+1013340143+1012823463
961+1013243428+1012436865+1010587992+1009664989+1008951057+1006636337
949+1004373147+1004675108+1006379387+1007174133+1007108353+1007731393
937+1009272309+1009684454+1008253113+1007148412+1007330544+1007817072
926+1008771444+1009986763+1009207572+1007315511+1008257197+1010949303
914+1011460769+1010896384+1011989441+1013906961+1014463613+1012955370
903+1010673497+1009773521+1010348682+1010607456+1010105809+1009113812
891+1008267798+1008922642+1010171937+1010786722+1011483623+1011772637
880+1011480408+1011999781+1013175215+1013312336+1011079559+1008324801
868+1009250672+1013777487+1017368092+1018794740+1020594691+1023210242
856+1025648701+1027442395+1028284933+1029126602+1031123371+1033947297
845+1035721006+1034346147+1031125543+1031154914+1036341178+1041838268
833+1043464602+1041653963+1038482107+1037207091+1039612355+1043440532
822+1045099452+1043804537+1042760575+1046075374+1053552722+1059427719
810+1059716820+1057658529+1056771501+1056100495+1055705295+1056591106
799+1056595277+1053626496+1052940544+1062390244+1073741823+1072582378
787+1064736593+1059289295+1055543235+1053701226+1054230854+1055133523
775+1055517340+1056969536+1058324843+1055904633+1052612079+1054042030
764+1057257246+1056486050+1053306200+1051498776+1051381641+1051411967
752+1050161456+1048386357+1047922857+1048645218+1051490260+1057693548
741+1060731411+1055467549+1047836135+1043492148+1043060886+1043798193
729+1043325395+1044183053+1046592141+1045566775+1040350966+1035543131
718+1034491697+1037967078+1042722254+1045072080+1045415490+1043291332
706+1040356441+1040691335+1043703999+1045408104+1043292114+1040837841
694+1041044478+1042454182+1044566001+1044867441+1042014057+1039794054
683+1040198465+1041573758+1042490678+1045081290+1049916324+1051435690
671+1044711551+1034505687+1037328136+1048991931+1049316572+1040771801
660+1036067110+1038229589+1037294073+1032136484+1036783128+1052258502
648+1061906236+1054881526+1035010376+1019200715+1018937248+1028807348
637+1042071234+1054020741+1059346298+1055086165+1045537665+1039161716
625+1019491902+985015808+969829883+975494333+977228157+975687762+985045527
611+998946008+1001759942+1005404160+1029548566+1063022842+1071356458+1049094728
##END=
