##TITLE=Sample description
##JCAMP-DX=4.24
##DATA TYPE=INFRARED SPECTRUM
##DATE=24/8/2023
##SAMPLING PROCEDURE=Instrument type and / or accessory
##ORIGIN=Default
##XUNITS=1/CM
##YUNITS=ABSORBANCE
##RESOLUTION=4
##FIRSTX=4397.6552
##LASTX=599.8556
##DELTAX=-1.9287962
##MAXY=1.5289725
##MINY=0.53800821
##XFACTOR=1
##YFACTOR=1.4239666e-009
##NPOINTS=1970
##FIRSTY=0.67831117
##XYDATA=(X++(Y..Y))
4398+476353282+476261822+476948840+476944905+475524113+473880426+473120366
4384+473504121+474666858+475746882+476220717+476119797+475203480+473659834
4371+472643936+472962225+473813202+473815379+473528692+474078625+474932113
4357+475431146+475569320+475148771+473860167+472349045+471433858+470774340
4344+470163672+469955595+470287195+470671662+470562245+470378153+470197577
4330+469707836+469614116+470402640+471082542+470584555+469912815+470359065
4317+470596276+469370627+468051173+467695546+467727316+468202867+469138104
4303+469595824+469684228+470044083+470670825+471104518+470566096+469515079
4290+469092060+468941999+468239828+467323385+467264993+468648531+470362665
4276+470731771+470578277+470971074+470457767+468881932+467914464+467960173
4263+468548783+468853552+468120825+467357416+467909734+468548113+467832380
4249+466847876+466635823+466727743+466872782+467288475+467495213+467338705
4236+467280606+466596392+464755093+462842425+462074663+462918272+464778994
4222+466552609+467673278+467558879+465748094+463370173+462282489+462951257
4209+464086074+464288500+463920692+463877913+463586036+462667751+462160849
4195+462218487+461989691+461697981+462056287+463018858+463672264+463266491
4182+462363107+461810914+461535906+461327787+461636743+462133683+461582704
4168+460087069+458704996+458229445+459036513+460296234+460857218+461064876
4155+461368683+460969649+459685733+458480511+458145394+458483692+458661547
4141+458745473+459140112+459394777+459212861+458917761+458576868+458056236
4128+457723422+457585918+457132342+456545240+456096980+455832646+456102506
4114+456543607+456446412+456290198+456503214+456761353+456934646+456816313
4101+456603088+456858046+457110995+456685758+455979192+455647465+455556759
4087+455239097+454935751+455030978+455175431+455016579+454485985+453370967
4074+451944482+451293755+452017357+453348321+454449233+455251655+455627750
4060+455452113+454641488+452983193+451383080+451089361+451406897+451663572
4047+452561597+453301775+452906718+452573024+452719402+452494122+451818782
4033+451108072+450846751+451047336+450734697+449825202+449837174+451260101
4020+452719319+452911155+451799862+450327626+449557938+449324621+448976193
4006+449382552+450611759+450861820+450072208+449764341+450033866+450128172
3993+450444159+450815400+449635376+447616472+447032969+447770761+448414163
3979+449235798+450690537+451105895+450245835+449939643+449533367+447932208
3966+447151386+448599302+449894938+449255555+448239196+447934134+448272725
3952+449599252+451193797+450990325+450002053+450005486+449285190+447824424
3939+447777835+449316458+451422971+451999107+449748225+447632671+447813666
3925+448169419+447653014+448087000+448865813+447954058+445995514+445085183
3912+445361195+446480358+448999424+451622132+451216819+448063434+444976979
3898+443565605+444555216+446494506+446463238+445053580+445852694+446768091
3885+445728334+445299580+444279287+443066279+444360743+445902464+446606392
3871+445779233+442954727+442901735+444018511+442492529+441604466+443458490
3858+446489064+447699351+442295000+437341211+439010264+441677383+443516506
3844+444381212+444535334+443671716+440629296+438068078+437874568+438480925
3831+439298876+439873421+440208873+442061432+443911856+441132599+438269123
3817+438022453+437367623+438358951+440530427+441384041+440101465+439765595
3804+441202042+440076475+438904656+440012558+439623277+438734879+439458146
3790+441015605+442051972+441553064+440324569+440142737+439788658+438590803
3777+439092222+440953195+442120159+441701158+440976719+440951186+440485137
3763+440831304+442073822+441562901+440678103+442226562+444199338+443211108
3750+442560800+446467758+449238853+447767329+449174350+454588244+460508079
3736+462973274+458713075+454719679+456456542+460745540+462969716+461437539
3723+458554306+455839678+453723371+453405165+455413520+457633427+457237197
3709+457346907+460559606+465411220+470550274+475376647+480231526+485505530
3696+491018084+496356216+500494985+501100966+500261123+502416861+505226465
3682+506282045+506149020+505993391+503114051+498754145+498825974+498042472
3669+495653333+497179524+500348356+502564160+504506840+507229044+509744846
3655+512505267+517694677+523556454+524738989+522011636+522337627+524501276
3642+525456271+524805878+524163858+524312287+525771546+528374330+527080326
3628+518888388+515409346+517773789+520332830+518871812+513372569+510390760
3615+510354469+510878617+512278438+512439215+509948863+508429621+508653771
3601+508478343+508044316+508418989+508110871+506680702+507302757+509218898
3588+505982675+499490933+497652396+498638784+498707473+497605599+496595058
3574+496215782+497439924+500910092+503332132+499588085+494504494+493305299
3561+493461723+492691407+492008784+492206773+492112801+492405557+495204237
3547+498251847+497220713+493645397+491622475+491627456+492176719+492395051
3534+492674454+493259590+494269795+496484051+498915718+498604042+495421858
3520+492595049+491656547+491610922+492014937+493183575+494036017+493762265
3507+494378417+496677980+497702751+496128256+494226555+493158712+493007394
3493+493599269+493714002+492929161+492764240+494261549+496179491+496196987
3480+494141039+492663278+492806810+492448922+490620222+489175613+489334214
3466+490515828+491367809+491524778+491959977+492270146+491718707+491286060
3453+491374632+491345332+490987905+490701553+490691298+490581839+490903267
3439+492210373+492923050+491572036+489418349+488565949+489147987+489782264
3426+489867780+490009554+490466101+490341196+489468704+489230029+489830401
3412+490066188+489718723+489287877+488798597+488210112+487965786+488121582
3399+487885419+487508737+488126815+489128146+489128732+488385331+487757709
3385+487314557+486762113+486360400+486557468+486862823+486749932+486465254
3372+486508326+487104931+487141766+485734034+484366444+484409390+485159489
3358+485462667+485229434+484986698+484758822+484323623+483724674+483157579
3345+482785879+482391407+482065960+482191451+482414722+482748039+483514504
3331+483736143+482810073+482086931+482259805+482000075+480685645+479671672
3318+480117043+481116910+481348846+480947175+480260784+479542373+479346686
3304+479595700+479757691+479969452+480435291+480333785+479123456+477607604
3291+477056248+477693664+478316765+478144854+477772274+477646155+477315601
3277+476968932+477320959+477627319+476596394+474808673+473831452+473847484
3264+474036474+473959203+473772809+473722286+473598135+472849669+471478604
3250+470479157+470173969+469999253+469907876+470537925+471814056+472193416
3237+471802796+472142894+472522087+471619876+470075309+469378077+469564555
3223+469843582+469922485+470182968+470556720+469747685+468065279+467311037
3210+467449797+467219953+466682411+466550474+466480571+465692423+464315038
3196+463771384+465001512+467060976+467485460+465941730+465405569+466266885
3183+466241477+464997787+464613026+466265838+467356830+465593177+463715294
3169+465315155+468342548+468265864+465677229+465694558+469072136+469747476
3156+465675512+462557748+465111473+469848647+469199510+464029607+463345728
3142+470351196+475210972+470547385+464420981+466088653+472268049+472028956
3129+465115617+462794623+470261243+477121672+471974791+462819194+463405292
3115+473358162+477497266+468840367+461119627+465422815+475220809+474742119
3102+464457900+460355171+468281058+476855329+471948630+460596776+458794112
3088+468611068+476070530+469054974+458018020+456645699+463706127+467039628
3075+460651443+454338979+456676298+464987699+467476293+460218755+454193940
3061+456095599+462195926+462749458+456006064+450968642+451559136+454540777
3047+454885730+452161684+450102680+450121517+451093966+451366672+450339765
3034+449016963+449015289+450274592+450496524+449332322+449349735+456270650
3020+484681510+539956947+583936998+574466000+537598407+507411965+489024463
3007+477225229+468337776+462116395+458856564+457042515+454640358+452101115
2993+451069060+453335387+456993583+456079735+451247627+448892435+452480141
2980+458782517+459092603+452636063+447676832+448837015+454839519+458126600
2966+453800473+448115254+448056946+456212258+464867943+461280739+451221591
2953+447422166+452643639+461340010+461809533+453465189+447411995+449261038
2939+457389059+461697855+455613644+447768041+446164286+452341465+460515153
2926+459041661+449978278+445022856+448330321+455826535+457347493+450376893
2912+444128472+443892560+448494615+452176544+449482384+444318927+442865653
2899+446132851+451059182+451688728+446969345+442743385+442970926+446841008
2885+449397579+446818279+442719903+441931546+444501889+447105719+446301456
2872+443009729+440898319+441450721+443640783+445001257+444029896+442253896
2858+441638497+442284494+442946314+442172984+440173837+438443713+437767871
2845+438127600+438689505+438463763+437804413+437822580+438707420+439648978
2831+440115906+440020427+439518213+439361203+439811304+440129970+439882965
2818+439225792+438538438+438399176+438824832+438937640+438354137+437788549
2804+437730324+437976869+438177244+438002319+437576119+437424257+437659082
2791+438082142+438330864+437964479+437481938+437541921+437737357+437807218
2777+437935974+438010188+437953973+437823124+437667286+437711321+438060795
2764+438348360+438377912+438386200+438405497+438384526+438394865+438419226
2750+438422324+438321404+438204159+438558907+439314322+439567605+439114616
2737+438643419+438512863+438610602+438822321+439178366+439550234+439643201
2723+439661200+439966723+440361404+440692000+441033604+441209911+441018828
2710+440541143+440183507+440148304+440135244+440118250+440521930+441450847
2696+442313795+442510277+442215177+442015932+442187467+442576329+442925259
2683+443043508+442842212+442485204+442355653+442648828+443031411+443280760
2669+443653382+444050658+444218635+444386402+444678363+445049101+445552487
2656+445894050+445793507+445578398+445644282+446129921+446929161+447566745
2642+447813415+447988968+448251837+448554932+448953966+449431233+449912728
2629+450320720+450620759+450812009+450863578+451021593+451617946+452524176
2615+453233839+453394533+453342085+453605959+454117340+454674807+455306614
2602+455905940+456303551+456472490+456497814+456541054+456746661+457262521
2588+458007011+458486413+458572598+458777536+459254887+459653921+459953583
2575+460392257+460909164+461313514+461558426+461695386+461882324+462180480
2561+462441466+462713837+463198973+463882643+464689083+465430349+465726370
2548+465636961+465670573+465918918+466190326+466608071+467298354+468128234
2534+468869752+469280213+469267446+469134546+469300305+469706371+469997997
2521+470082216+470173550+470492886+470947257+471151148+471125238+471433104
2507+471945616+472080902+472119746+472399484+472639541+472831963+473217225
2494+473530869+473494075+473433925+473628942+473939070+474201855+474347940
2480+474301561+474213492+474347312+474615582+474804906+474833914+474874307
2467+475043665+475023824+474794860+474575942+474306836+474209180+474529814
2453+474787200+474528851+474139277+474020609+474020358+473923038+473740369
2440+473651462+473755522+473861213+473677331+473265027+472905675+472668297
2426+472528951+472374453+472104258+471804847+471486432+471149180+470818375
2413+470396319+469924954+469671043+469615539+469283394+468632960+468198179
2399+468058791+468000860+468481643+470556804+475182090+483180601+495450070
2386+512088444+531603018+551901555+571615039+589982281+606975947+623674429
2372+640926988+658487665+675231605+690031065+702353903+711872033+718057667
2359+718049044+708189686+690628088+671380108+654313525+644652742+647389095
2345+657803869+660549766+652137235+642317893+635780065+633636926+636715051
2332+641956866+642988168+639843866+638996154+641881605+642834758+637626889
2318+627639403+618158652+615576421+619278986+620597518+614330931+602212821
2305+588083845+576435301+568842102+562536796+555268542+546852496+537124739
2291+526910759+517877388+510237684+503371395+497386471+492548796+488585580
2278+485124077+482197939+479931863+478116306+476464625+474804571+473098851
2264+471595975+470581207+470017586+469584271+468983522+468230954+467574241
2251+467161603+466933267+466825649+466830045+466870396+466846202+466759095
2237+466794340+467101411+467521290+467850421+468121286+468399098+468691519
2224+469038314+469365227+469607711+469961413+470596192+471377977+472129499
2210+472861389+473567662+474242039+474922611+475582966+476280742+477029668
2197+477798059+478577960+479294740+480030941+480794099+481487438+482198567
2183+482859549+483406594+484042503+484803443+485586233+486387356+487186387
2170+487938997+488565488+489157279+489927679+490591717+490756973+490681921
2156+490853038+491287860+491631432+491726534+491688401+491553283+491285056
2143+491057013+490878990+490433619+489784817+489124128+488332966+487393794
2129+486430512+485549314+484692728+483557869+482035320+480505320+479238440
2116+477932758+476278398+474506960+473040751+471833896+470506406+468991350
2102+467496385+466062533+464649987+463291564+462028828+460925447+459790295
2089+458342713+456737578+455281499+454039902+452846442+451635024+450534364
2075+449465515+448235387+447048959+446402585+446319497+446051144+445024321
2062+443780296+442927603+442280810+441718990+441322844+441064077+440977598
2048+440998234+440965920+441096099+441568426+441832049+441767546+442037991
2035+442737316+443502065+444185064+444841275+445522601+446230506+446888014
2021+447497846+448166572+448408513+447838027+447002957+446249384+445538423
2008+444789790+443742749+442380349+440965334+439632193+438393777+437404626
1994+436778386+435897229+434223781+432235434+430258347+428469538+427081186
1981+425855788+424614651+423444673+422394326+421413045+420617195+420127413
1967+419423275+418087036+416741463+415818323+415114143+414588195+413982591
1954+413017467+412134762+411618818+411320620+411365827+411654020+411334894
1940+410330800+409516742+409096611+409022606+409114234+409004733+408829389
1927+409033699+409728126+410346790+410436534+410278937+410043988+409772872
1913+409630345+409839385+410354157+410663907+410681571+410805597+411038538
1900+411210910+411487718+411749792+411722082+411634975+411419908+411006433
1886+410857669+410935357+411328280+412149454+412503490+412111279+412053013
1873+413027848+414449393+414836707+414207076+414404647+415443357+416326690
1859+416568045+416368088+416252811+416619781+417852923+419831475+421391655
1846+421699062+421255867+420898315+420492416+419926159+419925363+420598652
1832+420442437+418441533+416658626+416543516+416129790+414739763+413692304
1819+413255765+412181601+410243609+408493770+406732671+404741059+402986364
1805+402189719+402754010+402134718+398861743+396375284+395421922+393988991
1792+391763811+389998944+389387648+389292881+388538722+387218055+385991024
1778+384785927+383536251+381872012+379935653+380162817+381709519+381612282
1765+380644312+380055744+379850430+380079771+379865080+379637246+380919404
1751+382364306+381455188+380028662+380185211+380330041+379175174+377823615
1738+377847223+378628882+378846503+379018624+379247337+378953576+379156840
1724+380038750+380622462+380768965+380868253+381411572+382304323+382915955
1711+383238682+383201344+382789711+383091215+384503468+384950472+383778233
1697+383678862+384752148+386422959+388481502+390557751+392118726+392358741
1684+392332454+394812509+397127559+397736428+397517049+397945007+399350605
1670+400841049+402580340+404897357+406870803+408359782+410507274+413224707
1657+415312006+415375840+413554591+415531050+418805825+420531093+422185077
1643+424929718+427424088+429132697+429676184+429486064+431510702+434631020
1630+436944856+438752376+440725528+442598933+444824155+447328488+448642458
1616+449346010+451984833+455242781+457520493+459284732+461513763+464364263
1603+467468298+470132110+472385545+474809720+477474955+480402600+483610569
1589+486993756+490571541+494344637+497959551+501193430+504207847+506780492
1576+509768203+514242758+518305094+521690751+526130857+531511181+536725915
1562+541046809+543844358+547780408+555982978+564422088+572395066+579603002
1549+586096629+592715536+599450559+603299502+604419919+612295996+622823829
1535+630448003+636993826+643897286+650721382+657265238+662698137+666887219
1522+672401992+679627969+687221712+695630642+703919147+712064581+720175105
1508+725041369+724825464+729453555+737248217+743704339+748125316+752830509
1495+759009530+764787381+769685290+774280146+779746907+785881306+791860747
1481+797466477+802508546+806719227+809404513+810188014+812036388+817558067
1468+823373088+827036432+830994123+836808977+841046950+841560717+844261825
1454+852748905+860760978+866598520+870489488+874130312+878764347+884178535
1441+889631483+893088048+895129889+900191715+906734985+911117201+914198800
1427+918214757+922717692+926758178+929719560+930839183+932518365+937103594
1414+941190877+943570180+946462998+949558327+950863297+951582169+953487051
1400+953846780+950805282+947395515+946468356+949268082+952668389+951798241
1387+946866595+944589761+947207823+950604865+951896775+951715948+951683382
1373+953103881+954955855+955370669+955712399+957218038+957550475+956705694
1360+957239972+957895973+957445328+956800963+956203982+955851787+956617373
1346+957304098+957257971+956847258+954122123+949781179+948094295+949418102
1333+950601432+950082140+949747358+950266065+950784771+951475096+951727752
1319+951775638+953910823+957723936+960754886+962706231+965449030+971724240
1306+979612246+983012050+982452741+982457513+983670396+985639572+988460227
1292+991231573+993268475+994968671+996550826+998018206+999144945+1000080559
1279+1001934122+1003857003+1003982662+1003552443+1004032808+1003982662
1267+1002769193+1001653422+1000716468+999320247+998246752+998570818+999199026
1254+998514393+997713563+999313801+1002860946+1005397970+1005701275+1004250303
1240+1002259360+1001813236+1003231056+1004352772+1003693756+1002810549
1229+1003753865+1005587337+1006194364+1006004579+1007004487+1008753489
1217+1009438540+1009021046+1008255209+1007417711+1007178282+1008513139
1205+1010583528+1011907503+1012434748+1012051913+1011117471+1011104160
1194+1012460700+1013793465+1013563412+1011809471+1009817105+1008857800
1182+1008955748+1009507606+1010673524+1012106747+1012675098+1012414238
1171+1012101055+1011591473+1010193745+1008425321+1007794853+1007944956
1159+1006998292+1005126646+1003955537+1003410795+1003064628+1003362993
1148+1002965926+1000240624+996472803+993836575+992319718+990575906+988585466
1134+986343291+983064541+979341256+976533912+974225015+970495200+965275318
1121+959747276+955021991+952503970+950655178+946552575+940803605+935628679
1107+931665798+928684743+926863159+925668108+923585998+920274347+917165205
1094+914823994+911795890+908583777+907065748+905240481+901436996+898622619
1080+898316636+898595495+898086165+896710705+894594272+891896094+889360745
1067+887890351+887260301+886682575+885925277+884713399+882956862+881172113
1053+879189878+877334137+876566542+876060811+874747888+873194531+872712492
1040+873606332+874221731+873347899+872029199+871138709+870127750+869422607
1026+869405278+868812650+868008303+868026135+868198339+868590383+869376479
1013+869820260+870353365+871592200+873068789+874207917+874252622+873451791
999+873435718+874273635+874764547+874500339+873694485+873094323+873170337
986+873282601+872334932+870339469+868808799+867912699+866352059+864815529
972+864138096+862633546+860041688+858185947+856604462+854227838+852090141
959+851119199+851092075+851369092+851756448+852311989+852543549+852790763
945+854108207+856171397+857983856+859363418+860755788+862855645+865640470
932+868269917+870671069+873184569+875858636+878672510+881105308+882699853
918+883481094+884099339+885214776+885990408+885522685+884338601+883581470
905+884031194+884962790+884778111+883290472+881840505+881505890+881891320
891+881713758+880910500+880294515+880044370+880440935+881257755+881207442
878+880280785+880629715+882997883+884871623+885322603+886677384+889579663
864+892907723+897426648+903192360+907836441+910980325+913646691+915899581
851+917814760+919168203+920134792+921721049+924352087+927013597+929528101
837+932778221+935166565+935779117+935595695+934745974+934851624+936577102
824+939195917+944226600+950124082+952841347+954178297+957039052+959207138
810+959753806+961508836+965005249+967373752+967442316+967441897+968658798
797+970673097+974011538+978978429+984373278+987868185+987260069+984647784
783+985149078+989455279+994438411+998244910+999908019+998598026+995976281
770+995688380+997827249+999734475+1000548449+999570224+997755253+997323612
756+997860066+998740427+999817689+1001215250+1003000585+1002126837+998355248
743+997799539+1001162844+1002388116+1000550291+998674375+997141864+995606255
729+994992195+994505636+992176647+990950370+993332770+995787919+996820225
716+997043748+993755705+987308374+983328163+983489401+985175113+988044659
702+990454434+989030335+985582226+984041259+984192116+983673410+983400913
689+985454559+987050695+985107220+982120890+981120312+982384680+985221157
675+988074378+990431914+990703574+985004583+980131454+984390440+989218111
662+991755302+993302381+993223269+990324171+987567141+991301727+996413699
648+992337047+982695184+977384805+977845496+977746794+975843754+986821898
635+1029123017+1073741823+1056479009+1009846490+989405636+987943195+983053657
621+973722382+968647831+968685420+981561665+998465921+990576576+976467943
608+975555351+971877190+969391316+979643388+988327788
##END=
