##TITLE=Sample description
##JCAMP-DX=4.24
##DATA TYPE=INFRARED SPECTRUM
##DATE=24/8/2023
##SAMPLING PROCEDURE=Instrument type and / or accessory
##ORIGIN=Default
##XUNITS=1/CM
##YUNITS=ABSORBANCE
##RESOLUTION=4
##FIRSTX=4397.6552
##LASTX=599.8556
##DELTAX=-1.9287962
##MAXY=1.368843
##MINY=0.45086771
##XFACTOR=1
##YFACTOR=1.2748344e-009
##NPOINTS=1970
##FIRSTY=0.59616047
##XYDATA=(X++(Y..Y))
4398+467637596+468657225+469864061+469810106+468035947+465686331+464736647
4384+465828092+467366886+467453803+466305973+465362554+465320989+465764973
4371+465759268+465035597+463702244+462236293+461921072+463083350+464263301
4357+464149033+463534254+463792714+464346525+464135661+463572499+463137632
4344+462698745+462876647+463972860+464544812+463650813+462701504+462953839
4330+462998771+461744479+460853893+461639328+463088820+463692706+463436817
4317+463147544+462860189+462256725+461689402+461733398+462316665+462713099
4303+462340977+461672711+461298672+460884097+460331221+459895654+459579685
4290+459646310+460081177+460031336+459469203+459307618+459549621+459921836
4276+460017543+459305468+458896316+459654258+460322244+459956201+459004320
4263+458364994+458718274+459290085+459061548+458882570+459173619+458807950
4249+457608408+456659519+456312177+455995180+455854869+456141756+456374361
4236+456321388+455927479+455193522+454436421+454116992+454529790+455684073
4222+457637396+459783395+460210500+457875939+454617643+453013906+453398043
4209+454244680+454684829+455030862+455416075+455762388+455813958+455379933
4195+455129187+455394521+455399570+454756411+454204891+454129756+453907718
4182+453218785+452681900+453053133+453767827+453681939+453039808+452312584
4168+451457064+451022665+451132071+451394319+452356860+453764461+454199140
4155+453725935+453169412+452764609+452558233+452228846+451675222+451133941
4141+450549506+450481384+451150633+451045294+450024263+449718580+450145965
4128+450262525+449738123+449364879+449811341+450060404+449462176+448683522
4114+448012403+447595864+447554954+447478089+447252590+447131636+447197139
4101+447469252+447613912+447504973+447724253+448188295+448140044+447626629
4087+447320291+447306966+447146176+446758953+446337318+446118319+446142538
4074+446019713+445770182+445458515+444681169+443882129+443733729+443841172
4060+443877454+443984008+443982091+443753039+443399433+442824489+442044104
4047+441497914+441918427+443374886+444677055+444845606+444231528+443707313
4033+443547505+443630355+443695391+443258139+442472986+441972943+441794199
4020+441397111+440551082+439833910+439579751+439583492+439587793+439494424
4006+439999142+441081142+441377287+440841570+440425967+440220713+440195793
3993+440173070+439671671+439218196+439496528+439986378+440358593+440616446
3979+440382064+440150487+440545986+440937792+440633090+439643104+438619127
3966+438283988+438291843+437891809+437391953+437597674+438468997+439062035
3952+438803715+437962829+437081782+436900607+436793959+435667402+435097601
3939+436268622+437543626+437276188+435636497+434345503+434610649+435346430
3925+434959066+434624536+435782652+436460176+435368966+434359295+434880004
3912+436348479+437669817+437971666+436170624+432918359+431370447+431426693
3898+432133205+433903062+435161655+433927421+432751117+434167086+434382299
3885+432617679+432618193+432549697+432440665+433841392+433880807+432364969
3871+430610822+429383180+431065278+432615481+431345106+430739678+432342901
3858+434613268+434715240+428176953+423751750+427277110+431445161+433652176
3844+433737223+432351924+429918757+426723018+426229755+428537059+429969533
3831+430476168+431638399+432752192+433426864+432266597+428141887+427390023
3817+429100501+429578522+431783292+434893235+435280552+431811579+429725893
3804+430013389+427439536+426280671+429023542+431474944+433216421+434517841
3790+435178206+435742256+436016520+435651365+435177084+434041035+433022248
3777+434371218+436549712+437307420+436036765+434801643+435214348+435565990
3763+436053690+436558361+435806451+435711678+437225132+437451332+434162364
3750+433717539+439845646+445791269+448761836+453223321+459274609+463373510
3736+463443783+461942953+464081472+469453553+473639886+473382594+469843956
3723+466524551+464135707+462502609+462326390+464369809+468438366+475671663
3709+487481415+501441562+515239282+527847419+540135847+552814491+563718228
3696+570925857+573679061+570691288+561234612+553107082+551567867+550758261
3682+547072999+541075151+534038692+522742074+511752074+509014813+505315993
3669+500423709+500591092+501406589+500774932+500975463+502808112+505023027
3655+508965721+515212632+519557042+517741553+515685790+517625928+518666831
3642+516883275+513641015+510535934+507839724+505659781+504358641+500017176
3628+491666345+489502626+490122688+486908996+478781326+470330066+466558308
3615+463594380+459867788+458883879+459326273+459213454+460389945+461659572
3601+460598893+458508765+456998865+454696238+451987077+451147874+449990085
3588+444897597+439935462+438744430+438320317+436760576+434917875+433447810
3574+432087619+431996775+433275940+431754070+425705493+422544073+423377104
3561+423934982+423437698+423258346+422885757+421409006+420583503+421213618
3547+421198984+420119883+419807140+420400926+420904615+420847949+420233263
3534+419606421+419207042+418415155+417391833+417229406+417380050+416840126
3520+416572221+417053047+417071609+416133848+415174860+414640639+414198572
3507+414192447+414324249+413373443+411981225+411747217+412369664+412331886
3493+411228426+409913213+409064613+408952588+409523184+409911062+409133857
3480+407989065+407689273+407698250+407361335+407144673+407183340+406989634
3466+406529614+405947002+405440086+405274200+405227773+404998861+404426161
3453+403729889+403445479+403072376+401999399+401082304+400847454+401081135
3439+401426653+401136726+400475333+400079319+399317450+397893578+396722137
3426+396524036+396931271+397126098+397169861+397490505+397674579+397353280
3412+396799189+396462694+396361844+395790453+394917775+394650290+394766663
3399+394946576+395285501+395497160+395655472+395881812+395548544+394574361
3385+393881454+394088344+394680354+394781905+394711586+395103999+395696289
3372+396341459+397093370+397826392+398380670+398836296+399279485+399337461
3358+399310343+399656796+399992916+400630746+402087298+403637221+404497088
3345+404735585+404850134+405410210+406300328+407090297+408034558+408843369
3331+408727043+408242383+408327944+408589210+408434498+408094918+407649532
3318+407163188+407193392+407853476+408367826+408352070+408393120+408554097
3304+408532730+408607585+409013417+409549133+409696598+409383902+409178648
3291+409248500+409389419+410093827+411472673+412334037+412283495+411905856
3277+411735342+412303787+413261653+413749165+413930527+414694033+415944818
3264+416764757+416923303+416836105+416709399+416512328+416619350+417121683
3250+417456308+417342039+417068991+417298650+418077866+418700640+418904024
3237+418884200+418717706+418552287+418420018+418237955+418270075+418461162
3223+418393040+418034758+417935918+418166700+417931290+417519941+417746281
3210+418101758+417970751+417958782+418625038+419402196+419897704+420276278
3196+420328549+420111093+420279831+420659246+421026459+421629642+421820916
3183+421370153+420669298+420416869+421460250+422775463+422927042+422756480
3169+423673856+424577159+424057433+423131781+423244600+424456813+425325003
3156+424856660+424324450+425679872+427550064+426649754+424036627+423733329
3142+426550961+428161477+425760945+423168904+424458309+427810348+428256623
3129+425502811+424278396+427610425+431598844+430174272+425824718+425832386
3115+430773949+432592899+427762565+423941855+426867444+432185103+431447265
3102+425410891+423012603+427861872+433559227+431786752+426019920+425430996
3088+431437868+435680400+431217185+424651406+424341422+429442372+432355665
3075+428803935+424658279+425983311+431275348+432884836+428198320+424193069
3061+425384054+429374110+430176329+426737746+424325104+425008286+426596406
3047+426466615+424676981+423359056+423469117+424228649+424340814+423580160
3034+422700561+422486378+422839844+422763961+422248723+422471182+426650502
3020+443208299+472875492+492370941+483395278+461929722+445970573+437550919
3007+432806428+429150528+426660461+425893869+425733219+424961391+424269887
2993+424750386+427087753+429749458+429472015+427299365+427101218+430389625
2980+434748015+435025785+431363340+429220427+430510065+433478014+435022606
2966+433389320+431066634+431513984+436147013+440390994+437769171+431912709
2953+429678858+432177856+436486499+436839919+432700435+429636124+430426841
2939+433995964+435471826+431912756+427794031+427033424+429812109+433100095
2926+431921827+427609817+425263941+426239433+428668206+428585871+425433614
2912+423474354+424410011+426674393+427795574+426368290+424389766+423928249
2899+425144249+427064843+427339481+425523804+424041630+424418520+426111886
2885+427024821+425855530+424363256+424595347+426319291+427981097+428514803
2872+428328906+428507369+429996136+433065262+436505949+438925885+440620887
2858+442562241+444669527+445847702+445138338+442890880+440289957+438110575
2845+436411411+434591386+432324713+430273065+428968465+428175504+427412839
2831+426251122+424809204+423747215+423407073+423497684+423304306+422573108
2818+421912743+421677332+421508547+420956139+420268890+420116376+420405368
2804+420692442+420865762+420776461+420480736+420371143+420509631+420699035
2791+420919717+420964742+420693237+420487188+420470310+420374837+420270807
2777+420356228+420410978+420257669+420241726+420566859+420931874+421057504
2764+421067416+421309746+421676397+421820916+421990590+422304081+422314974
2750+422180695+422452013+422929800+423288784+423699946+424017411+423946858
2737+423944801+424400286+424997859+425590336+426205630+426571813+426652839
2723+426844441+427251535+427548802+427628519+427771261+428159700+428486096
2710+428486096+428415823+428405678+428475436+428776256+429081144+429198359
2696+429221876+429058562+428734972+428480064+428365796+428416104+428688871
2683+429097415+429304071+429130471+428860368+428700326+428643987+428725387
2669+428831894+428820112+428648849+428415636+428422743+428716130+429059918
2656+429349143+429561831+429675024+429682365+429641735+429726174+430136214
2642+430811306+431366660+431645927+431832572+431973865+432118524+432558160
2629+433241855+433707954+433991148+434427698+435000631+435683065+436478177
2615+437206617+437773613+438237935+438596404+438862298+439213661+439745263
2602+440307490+440769240+441271294+441946620+442541902+442902569+443344916
2588+443986954+444568630+444981709+445279210+445610140+446055480+446380707
2575+446534249+446780320+447191342+447630930+447988979+448320704+448780397
2561+449351554+449854215+450209973+450403070+450473810+450695007+451223851
2548+451869301+452297388+452254982+451970385+451977913+452446863+453072256
2534+453427779+453417867+453332072+453486550+453993933+454613482+454984949
2521+455102256+455175708+455341080+455601738+455900969+456317320+456774489
2507+457012518+457115846+457230255+457275373+457263544+457298096+457426298
2494+457577971+457648991+457659090+457717627+457821563+457858733+457945463
2480+458163201+458300426+458354101+458383182+458225197+457943126+457785094
2467+457788227+457797157+457581992+457164892+456881043+456759855+456629082
2453+456556051+456501581+456255978+455798950+455372125+455135967+454937118
2440+454669166+454384430+454108342+453856428+453526572+452978606+452367801
2426+451962390+451659232+451170457+450513365+450003878+449880305+449886242
2413+449635543+449183284+448688758+448199562+447669971+447089697+446651604
2399+446290470+445967675+446327126+448532129+454384944+466362826+486776400
2386+516282429+552947976+593326556+634719530+676457086+719122211+762858068
2372+806784170+849254281+888212263+921016751+943283825+955746976+963942160
2359+962055790+940881937+906722121+866626032+826428954+803784101+810993319
2345+838905196+856771707+852067424+839583047+828385362+822289002+823988259
2332+829059286+828570044+821954705+815147204+809105360+799373906+783912603
2318+764231350+744281631+732259753+730076817+726518121+711280493+685319648
2305+656905110+634733088+619705810+606474197+591988667+575884485+558059633
2291+539846154+523075576+508211753+495360677+485159992+477826686+472689875
2278+468695424+465154261+461966705+459265960+457137961+455341127+453518156
2264+451682656+450107112+448921457+447902669+446832265+445882160+445136935
2251+444283286+443237380+442361148+441930443+441788963+441615923+441497727
2237+441651738+441886774+442006326+442106241+442305276+442639854+443151351
2224+443849448+444578495+445169617+445754099+446577544+447595630+448539517
2210+449277495+450018605+450902926+451772472+452661094+453716116+454845152
2197+455910647+456927892+457979641+459114427+460397800+461730172+462937849
2183+464118735+465426608+466941090+468655028+470415160+472071262+473513040
2170+474766630+476020127+477371855+478747803+480061567+481348586+482658703
2156+483872271+484867681+485742838+486542298+487161987+487560291+487692560
2143+487667920+487712945+487764937+487636875+487233101+486540148+485631187
2129+484519171+483175016+481646882+480026313+478337997+476602271+474898198
2116+473045071+470757311+468263924+466091648+464310103+462416019+460123069
2102+457789910+455702167+453741317+451889780+450198518+448498746+446755353
2089+445165736+443790677+442680764+441966117+441622656+441591611+441822720
2075+442130226+442478456+443199182+444470398+446015037+447564398+449096133
2062+450689771+452334184+453969714+455721010+457636040+459488466+461196747
2048+462904373+464540931+465981868+467305450+468324892+468846442+469164375
2035+469472115+469626079+469506059+469067218+468382073+467535905+466409394
2021+465003056+463354154+461340097+459213594+457313806+455500748+453504317
2008+451306326+449124279+446991652+444718292+442428148+440393051+438523934
1994+436532833+434343025+432370766+430823042+429379487+428032574+426890307
1981+425890268+425043632+424373636+423898981+423576934+423291729+422873695
1967+422382956+422322175+422830820+423549816+424314397+425109884+425961055
1954+427033891+428467487+430206813+432023612+433749052+435361999+437029323
1940+439080456+441330438+443353940+445209919+447005491+448617737+450122354
1927+451438502+452134494+452404831+452821136+453107556+453238703+453654119
1913+453864656+453325153+452348304+451529674+450909799+450246862+449539322
1900+448821869+447890233+446566604+445284119+444278143+443085193+442145328
1886+442024934+442180441+442508707+443049847+443358756+443441839+443627035
1873+443859967+443450863+442257119+442313271+444113238+445791970+446565201
1859+446709533+446637110+446573383+446415071+446067449+445537390+444529216
1846+442476773+439902780+438798244+438462498+437221298+435489733+433965760
1832+431605904+427673591+424526243+423110180+421428737+419632464+418186711
1819+416425972+414171501+411699574+409016549+406115226+403746206+402019971
1805+400369667+398402505+395535219+392488067+390686885+389401571+387128563
1792+384549567+384019017+384595948+384479178+383534497+382284857+381083282
1778+380279356+379404433+377408377+374693769+374516334+376591500+378053710
1765+378447479+378026733+377700594+378273785+378871849+379420774+379589723
1751+377943930+375289612+374547309+375016401+374813882+373672059+372504311
1738+372278929+371539759+368797028+367778825+369132704+370217486+370436275
1724+369765367+368782674+367280606+363547608+359723251+360806280+363525960
1711+364881944+364460776+362491767+360602382+359928037+357868347+354223178
1697+353667684+355879491+358698783+360400541+360586812+360020425+357834544
1684+354777410+356569522+360024679+361742521+361560388+361122436+361395086
1670+361583976+363316733+366587442+368610991+369535193+371693816+374431241
1657+375806954+374550956+372313551+375208820+378390018+380548360+385475780
1643+391693493+396361143+399233805+400652253+403746487+411522654+419118488
1630+424963027+430410851+436161553+442532037+450668918+458527187+464701441
1616+472264780+482197888+491566384+500108395+509028325+518996966+529444470
1603+540559025+552846892+565932816+579745358+595055783+611580010+628233795
1589+644732260+660279592+673468331+683235739+689269542+691420824+689047783
1576+684243305+683192725+683177903+680661933+679871403+682907427+686466497
1562+688670098+688046202+689921584+701767805+714329188+725555440+735850756
1549+746113485+755358034+762421191+766538841+770039140+782875721+798089551
1535+808339422+816501691+825347608+833473408+840052840+845467328+849964673
1522+855277704+862970928+871019021+879269470+887835887+894619917+898280819
1508+897395750+897742671+908319920+918312639+923841677+925313986+926544666
1495+931194339+935227035+934788195+933077717+937504743+944474951+948922830
1481+950825283+951926640+951963576+948800613+942972064+941126371+945547600
1468+948955839+947567034+946238823+949050471+950181844+944214433+940170048
1454+946905921+954609431+959319698+961163241+963162290+966960183+971153062
1441+974422065+975502101+975451793+979248003+985482664+989696582+992535348
1427+995596947+998037174+999999006+1001428114+1001344142+1002534426+1006395626
1414+1009513611+1011000414+1011535663+1011572880+1011597005+1012601205
1402+1014551068+1014229582+1010995365+1008809483+1009439364+1011832743
1391+1012915398+1010503504+1006415637+1005021034+1006614345+1009304523
1379+1012133470+1013156840+1011524161+1011280569+1014850954+1018006810
1368+1018445464+1017824279+1015525345+1012372668+1012494043+1014353108
1356+1015096790+1015737986+1016648957+1015941276+1013900802+1012153107
1344+1010992372+1009295453+1006629867+1005864491+1007473885+1008159591
1333+1007449199+1006998856+1007627428+1008420951+1008636117+1009232427
1321+1010988164+1012942422+1014122140+1015612216+1018486234+1022032867
1310+1026330757+1032423190+1038253141+1040892544+1041819038+1043699703
1298+1046117675+1047907169+1049776801+1052305769+1055025870+1057654707
1287+1059845918+1061369657+1062123719+1062056111+1061497765+1061018342
1275+1061335620+1062566581+1063735170+1063547403+1062231348+1060899023
1263+1059370234+1057506681+1056273850+1056018662+1055809388+1055557847
1252+1056368669+1058021638+1059578387+1060916229+1061961760+1062610156
1240+1063152699+1063538613+1063137363+1062011975+1061130834+1061361802
1229+1062399946+1062846081+1062338978+1062511036+1064163444+1065457244
1217+1065405439+1065458833+1066524750+1068047086+1069337893+1070437006
1205+1071521437+1072207423+1072288309+1072602689+1073573880+1073741823
1194+1072614377+1072053974+1072064821+1070631319+1068759723+1068389051
1182+1068774965+1069355941+1069914754+1069720628+1068811247+1067167161
1171+1064731235+1062508605+1061513195+1061649064+1062244627+1061876760
1159+1059888184+1057998074+1056967598+1055833700+1054544202+1052803614
1148+1049877978+1046650587+1043787696+1040986241+1038740327+1036656745
1136+1033197169+1028333079+1022932991+1017249008+1012006297+1007648561
1124+1003133168+998043533+992428092+985991824+979505061+974151541+969993168
1111+965709211+960359338+954678815+949379531+944430627+940080092+935986614
1097+931833664+929202958+928228494+926800321+924756856+923177478+921924542
1084+920309537+918723427+918095136+917722500+916394383+914513998+913055808
1070+912236477+911693467+910879933+909918654+909860958+910643727+910711615
1057+910003654+910001597+910635966+910545916+909898362+910388446+912005789
1043+912480631+911271364+910717787+912225630+914204574+914722056+914127709
1030+913787147+914275454+915228318+915752252+915700074+916023243+916752899
1016+917085045+917389419+918242227+919342835+920277744+920625132+920320385
1003+920025455+920512547+921865070+922628389+921570795+919982067+918927185
989+917728111+916201192+914586561+912726748+910303539+907740721+906258687
976+905508553+904058873+901971925+899822045+897440822+894842002+892751782
962+891662862+891256282+891427405+892062896+892081785+890761242+889185885
949+889393944+891915619+894981332+896816552+897793914+899547594+902460232
935+905889604+909230610+911663356+913645013+916489669+919639354+921737710
922+922965492+923822975+924305578+924919749+925543365+925687931+925757035
908+925833525+925770500+925283128+924182706+922962312+921309436+918989930
895+917006029+915700261+914799576+914486599+914719812+915174176+915384666
881+915001744+914817249+915536899+916716243+918113931+919741653+921759778
868+925411984+931724165+939863430+948152030+954912963+959370755+962375312
854+964209691+963850614+961178670+958035250+956656731+957646811+959695607
841+960666892+959889265+959240215+960294723+962099179+963378858+963087482
827+961043455+960830907+964184911+968066309+970964266+972976873+974265997
814+975921398+977950090+979232107+980267165+982396379+984707750+986299003
800+989259331+994745822+1000103737+1003222283+1004876094+1006042440+1008080763
787+1011638991+1014846465+1018204770+1023410451+1027463720+1029407224
775+1032694461+1037277275+1040932192+1041912921+1039836821+1038092772
764+1038476162+1037933993+1036537707+1038537691+1042965746+1046227269
752+1047151705+1044876242+1042705977+1044097119+1046289827+1046772804
741+1046880901+1047913060+1048928107+1048756985+1046637869+1041633608
729+1034823956+1028867860+1026249217+1029357477+1036983935+1040882539
718+1036661701+1032555413+1034784495+1038504308+1037965786+1034291886
706+1030501567+1027584721+1026220883+1026889103+1028602106+1029646983
694+1029413021+1028325224+1027968672+1029407224+1029553286+1027834766
683+1029583864+1034807873+1036544533+1033233638+1032042606+1035651984
671+1037995242+1035761203+1032236545+1032820419+1037063512+1039956232
660+1036240066+1030614246+1030436671+1030597508+1027128488+1029101354
648+1038159819+1043790034+1043086654+1039454553+1032492855+1023478900
637+1021448713+1034455715+1045618053+1033003604+1013495438+1002986732+998204837
623+1002624756+1012855552+1015515620+1011685653+1013714251+1020045227
611+1019271715+1015398172+1017199822+1018502879+1010893252+1002799245
600+1002783723
##END=
