##TITLE=Sample description
##JCAMP-DX=4.24
##DATA TYPE=INFRARED SPECTRUM
##DATE=24/8/2023
##SAMPLING PROCEDURE=Instrument type and / or accessory
##ORIGIN=Default
##XUNITS=1/CM
##YUNITS=ABSORBANCE
##RESOLUTION=4
##FIRSTX=4397.6552
##LASTX=599.8556
##DELTAX=-1.9287962
##MAXY=1.4014007
##MINY=0.5347774
##XFACTOR=1
##YFACTOR=1.3051561e-009
##NPOINTS=1970
##FIRSTY=0.66255689
##XYDATA=(X++(Y..Y))
4398+507645705+508142854+508514368+508263419+507236560+506140925+506092973
4384+506830430+506421102+504925729+504162425+504044371+503755563+503398526
4371+503114467+503152144+503964177+505361454+506626291+507171483+506490564
4357+504954546+503429581+502175612+501666362+501898450+502400028+503150728
4344+503174385+501840679+500771851+500899815+500804321+499704987+498918985
4330+499634064+500889813+500987909+500102624+498868156+497794350+498110651
4317+499406543+500235428+500184736+499395400+498785861+498960269+499200623
4303+499178611+499608672+500850401+501752219+500924521+499034298+497796725
4290+498134627+499968860+501797750+501775464+499724122+497315743+496117628
4276+495889833+495825257+495860148+496137950+496181244+495703916+495746114
4263+496783521+497782476+497925328+497670177+497657664+497258794+496612356
4249+496969941+497524312+496784115+495703916+495676378+495811511+495138767
4236+494471914+493932020+493083178+492854104+493702901+494494885+494418482
4222+494393821+495423556+496440824+496229424+495440636+494975730+494733184
4209+494147484+493214932+492575115+492297587+491911641+491852044+492624528
4195+492861000+491678275+491079149+492154461+493065413+492676134+491811216
4182+491491445+491590820+491034850+490047952+489729687+489849111+489987212
4168+490488151+490805320+489906836+488600486+488155902+488180974+488056710
4155+487928153+487955371+487787722+487340946+487358254+487909657+488089226
4141+487720726+487920252+489048860+489505089+488641450+487444248+486190463
4128+485408525+485687606+486188499+486587049+486860832+486192746+485372812
4114+485902111+487132286+487554720+486661991+485245945+484453549+484267586
4101+484195750+484314808+484767977+484982848+484079523+482787010+482607168
4087+483331563+483864607+483660285+482894286+482303197+482203777+481919216
4074+481187742+481061423+481793490+482165415+481827057+481672697+481862632
4060+481405810+480352555+479955740+480068953+480047489+480424985+480552218
4047+479363830+478521746+479405068+480464077+480124988+478731000+477773649
4033+478022771+478494711+477953401+476837991+476598140+477693775+478868828
4020+478683550+477897137+477810595+477909924+477938832+478063462+477838316
4006+477798493+478368574+478157950+476697788+475751581+476159447+477031717
3993+477773467+477892433+477073550+476233339+476067790+476191004+476056693
3979+476077974+476944490+477360714+476171458+474680241+473843821+473451482
3966+473772989+474685493+474690882+473874602+473777875+473844278+473489296
3952+473990052+475198443+474771807+473599220+473850945+473836651+472945702
3939+472689547+473451162+475233151+476320749+475229223+474063213+473997998
3925+473842771+473689415+474449889+474922239+473510121+471184447+470110231
3912+470501610+471536735+472678130+473178064+472788511+471868198+470117172
3898+468982719+470112742+471819241+470646563+467954445+468563664+469852751
3885+468753371+467916631+466957636+466267173+467512647+468192241+468019340
3871+467431220+466277174+467316683+467909233+465797426+465187430+467105785
3858+469869831+471328988+466013255+460183066+462694290+467112772+469362636
3844+469010211+467866441+466100300+462657025+461974051+464732480+465939501
3831+465215242+464750336+464815916+466222737+467113138+464107140+462968576
3817+464240812+463778143+464686811+466792681+467024221+464543640+463391467
3804+464777098+463782070+462386530+463333742+463847559+464726543+466489944
3790+467721215+468029524+467250692+466236529+466758886+466928408+465161216
3777+464806097+466277265+467099483+466500768+465926394+465807838+465427601
3763+466387098+468025551+467119988+465763539+467795655+470522390+468525941
3750+465605572+469052729+473044347+473986398+477907093+484809855+490446502
3736+491571776+488553082+487461876+490250264+493991892+495562069+493650245
3723+489910900+486576271+484695181+484647321+487121325+491346264+495419812
3709+500575887+508376814+517809479+527476014+536782817+545565481+553850678
3696+561899539+568790199+571588999+567216825+561520901+561083715+561840992
3682+560460156+557440869+554906079+550239936+543880310+542873318+540945966
3669+535991152+535750889+538562431+540774024+543146598+547058433+550771747
3655+554707055+561562277+569200212+571806930+569528158+568655842+568497190
3642+567503304+566259109+565455844+564680072+564371854+564825526+561933791
3628+554181958+551451980+552732299+552521265+548210332+542048040+539349757
3615+537739117+535448061+535303154+535760206+534802261+535584975+538037607
3601+538550100+536923065+535473178+533799561+532153437+532510383+533448781
3588+530817220+526262051+524964561+525615293+525102297+522927970+520719437
3574+519996503+521882524+525966027+527972568+523131378+517727459+517062615
3561+517692979+517322744+518047961+520099531+520499131+519820770+521226404
3547+522922398+521369666+518847253+518655855+520449124+522499416+522951032
3534+522250385+522044785+522112694+522696750+524556649+525494591+524004790
3520+522433516+521905496+521640709+522231204+524253318+526055355+526112030
3507+526347041+527835015+528022713+526390380+525155319+524873954+524906242
3493+525356352+526498569+527269957+527163275+526964526+526750157+526368322
3480+525935978+525505277+525042197+524376304+524159424+525230809+526614704
3466+527019282+526641146+525948445+525688636+526624751+527949643+528219270
3453+527724908+528052397+528855525+528738294+528504242+529012351+529566311
3439+529517583+528990750+528591469+528167254+527695086+528218585+529107570
3426+528797617+528215571+528505201+528729891+528294852+527547759+526813637
3412+527029786+528578682+529640842+528575074+526787879+526631739+528205113
3399+529875076+530269881+529381490+528422632+528414047+529122412+529592753
3385+529292711+528305173+527308821+527305853+527875203+527867942+527803777
3372+528256764+528830636+529372357+529298784+528425281+527746692+527365770
3358+526701977+526012655+526231727+527492729+528028878+526824003+525591545
3345+525641643+526131804+526232823+525960913+525257525+524482300+524337759
3331+524513446+524482209+524133392+522810784+520791273+519770809+520074139
3318+520535392+520589418+520543384+520440264+520166527+519947911+519565026
3304+518971791+518695085+518735867+518680562+518034169+516569942+515351504
3291+515425990+515806227+515809697+515970907+515880073+514983918+513460733
3277+512095242+511490818+511115331+510440441+509742396+509616625+509914567
3264+509690106+508482263+507213909+507154859+507892224+508253098+507927435
3250+507351143+507063750+506895233+506333190+505573127+505270984+505286877
3237+504905316+504530559+504953176+505099133+503987286+502728979+502157802
3223+502057970+502244572+502546396+502281381+501182549+500011515+499576202
3210+500091206+500328911+499700968+499243826+499318950+499723803+499954109
3196+500125960+501107744+502118983+501127746+498831621+498232129+499382110
3183+499532999+497867785+497138686+498682787+499633013+498185228+496589567
3169+497982002+500836335+500237985+496305326+494835893+497606150+499285475
3156+497031776+495072730+497863492+502204977+501209767+496013366+494590333
3142+500030695+503982216+499863411+494717520+496276737+501243014+500678642
3129+494871240+493252197+499896887+505631446+500878761+492738197+493475106
3115+502956591+506874774+498325659+490477876+494359889+503508633+502639423
3102+492393217+488171612+496071000+505145943+501102355+490234143+488204722
3088+498024017+506108683+499395171+488148960+486256499+492615760+495991034
3075+490230215+484059201+486173611+494208041+496510971+489055527+482373070
3061+483585389+489793030+491217433+485266221+480563863+481113165+483614069
3047+483388146+480442979+478422965+478778724+480273548+480483806+479003824
3034+477795707+478213392+479728676+479959668+478334916+477973586+485129444
3020+513230015+565235310+603141386+590508676+554022620+525123670+507940222
3007+497330311+490102982+485942710+484546895+483943157+482063848+479893083
2993+479662548+482715539+486340758+484987186+480256240+478481101+482669505
2980+489461521+490069736+484128114+480054613+481320592+486458994+489724070
2966+486719853+482261182+482515374+489601267+496409952+492323115+483127287
2953+480118960+485432455+493619236+493931289+486097938+480509655+482217706
2939+489604464+493395231+487605550+480594690+479796403+485770951+492609229
2926+490318995+481755859+477391220+480236328+486440224+487241662+480657804
2912+475237078+475791404+480481340+483595390+480965656+476769214+475956952
2899+478754291+482641647+482897848+479011542+475644671+475492138+478269336
2885+480552263+479074930+476092908+474919819+475982573+477805343+478060448
2872+476507898+475156793+475596719+477699164+479195176+478617468+477691217
2858+478034965+479297153+480348445+479695292+477234805+474955577+474280732
2845+474594110+474585570+473945753+473209393+472735490+472711879+473180530
2831+473450614+472823037+472009862+471996526+472431976+472574782+472248297
2818+471633644+471158142+471100234+471262860+471354334+471205044+470918565
2804+470885683+471129965+471237743+471091283+471083154+471343146+471438228
2791+471291312+471233495+471381188+471632502+471766402+471719820+471644832
2777+471690364+471947204+472291134+472427272+472350412+472290815+472117502
2764+471773024+471733521+472226559+472816734+472930129+472706810+472717816
2750+472847835+472861809+473151987+473828842+474341106+474243147+473693708
2737+473349139+473480664+473681743+473953289+474560772+475125921+475265530
2723+475236987+475368924+475581054+475660974+475625855+475709794+475889454
2710+475834424+475690842+475955674+476390850+476356507+476112819+476277363
2696+476726742+477031352+476991940+476705552+476396969+476385552+476950336
2683+477616412+477736110+477680896+477970024+478315461+478392185+478188777
2669+477753327+477378616+477379895+477699849+478049442+478294043+478418261
2656+478357568+478392139+478881478+479389952+479370954+479282996+479590209
2642+480013831+480398223+480761837+481143169+481591818+481862724+481866971
2629+481868889+482066862+482483040+482981011+483438473+483901096+484336637
2615+484684906+484988922+485210003+485489541+486010620+486689849+487420774
2602+487952266+488148504+488255140+488475947+488895368+489467595+489912864
2588+490067955+490254511+490766182+491372524+491773129+492069152+492693625
2575+493637549+494230053+494310795+494450450+494860645+495205671+495305138
2561+495402320+495804250+496450369+497084569+497602359+497803621+497698994
2548+497905690+498569803+499096316+499299359+499356810+499326531+499434675
2534+499873002+500399652+500719469+500816013+500858439+501024672+501135510
2521+501037323+501176292+501677231+502041529+502224341+502449715+502606587
2507+502643715+502602157+502525251+502597727+502905762+503378112+503725102
2494+503663176+503442185+503408527+503586315+503804748+503863706+503860007
2480+504018112+504277372+504396293+504325005+504202430+504111687+504069078
2467+504008795+503897455+503809041+503689207+503482328+503271065+503057016
2453+502923710+502973397+502977599+502699248+502199862+501803002+501627224
2440+501400342+501132268+501015402+500979643+500765275+500322518+499961462
2426+499651509+499260084+499038728+498940403+498678631+498348904+497999767
2413+497402148+496815672+496507363+496080179+495458904+494887316+494266360
2399+493649331+493362715+493806066+495861975+501029148+511055186+527348918
2386+550246649+578513135+609526677+640808477+671288748+700918075+730277867
2372+760245416+790618274+818904214+842915300+861522238+873541390+879400854
2359+876456417+860063857+833663391+804486365+777342505+761607893+765943076
2345+784288333+794240707+788582094+778440287+769125629+764120853+766626095
2332+772442265+772923977+767903172+763973298+762491946+758217685+747315860
2318+731582984+716772659+710293701+712020248+711028828+699594006+680038120
2305+658624390+641701892+630363841+620328624+609189506+596997818+583263719
2291+568915651+556009158+544723078+534579581+526257530+520300382+516166323
2278+512779221+509495649+506421604+503935132+502126336+500593150+499032563
2264+497531664+496366110+495643862+494871925+493769029+492857666+492429523
2251+491995580+491312469+490873777+490784312+490686079+490566519+490528294
2237+490685851+491066772+491440798+491788245+492219630+492691615+493250919
2224+493784739+494068980+494428940+495244261+496227872+496999671+497654285
2210+498318078+498876467+499475731+500426962+501550683+502442271+503231881
2197+504259699+505346794+506320996+507414577+508693800+509952426+511109851
2183+512252570+513279886+514120096+515032372+516155683+517383620+518619595
2170+519852784+521097664+522327108+523513578+524607432+525574830+526505282
2156+527492637+528370205+528889229+529102273+529278919+529570924+529877680
2143+530106479+530104881+529662444+529043040+528618003+528230048+527446740
2129+526200399+524956614+523909982+522656059+521026649+519285123+517574286
2116+515876008+514032184+511949422+509892326+507995207+506172345+504376884
2102+502465699+500451166+498650865+497184857+495788403+494308284+492737101
2089+490925793+488968346+487346746+486312626+485515389+484565346+483596030
2075+482843229+482288309+482006945+482238439+482894149+483406916+483519900
2062+483757377+484363262+485015729+485714641+486660940+487923494+489403020
2048+490869210+492310328+493877218+495613492+497278112+498587888+499623469
2035+500590592+501565937+502445377+503086336+503563390+503868730+503725056
2021+503290383+502924075+502248317+500964436+499380740+497653645+495881019
2008+494140588+492287996+490207335+488012731+485937733+483965534+482093990
1994+480403658+478495030+476302618+474282148+472338949+470496633+469106481
1981+468036009+466876072+465626305+464613376+463828515+463101243+462455535
1967+461756668+460932122+460284450+459978014+459946228+460107301+460291254
1954+460323999+460379075+460825394+461639757+462618754+463652737+464500803
1940+465265843+466283294+467436928+468532609+469631395+470725752+471718633
1927+472854456+474232278+475306540+475833419+476220369+476787527+477567866
1913+478172564+478234719+477931297+477616549+477407524+477326873+477287872
1900+477170595+476857400+476187396+475393859+474815146+474189898+473535832
1886+473214325+472986530+472913871+473236520+473419149+473210900+473278581
1873+474017773+474727371+474476240+474119614+474987591+476440081+477442780
1859+477733552+477751135+477892205+478253854+479039172+480045890+480364657
1846+479452472+477735470+476512100+475890185+475146015+474355720+473678455
1832+472264327+469254904+466361341+464932919+463354658+461307792+459590242
1819+458049611+455951688+453428589+451104012+448566528+445979219+443949844
1805+442576635+441734552+439946946+436907199+434825852+433618831+431712807
1792+429153173+427446447+426933406+426616420+425637194+424307827+423090485
1778+421983661+420963881+419469742+417275959+416839505+418185221+418606605
1765+418153162+417583537+417312905+417766394+418015517+418099638+418822618
1751+419091149+417777401+416792603+417065884+416981671+415650203+414382580
1738+414723359+415357604+414331842+413410296+413659920+413718011+413764364
1724+413838256+413685905+413357640+412316122+411152258+411764217+412835830
1711+413312519+413205244+412498020+412011649+412591777+412432714+410506869
1697+409742103+410715757+412785595+415015044+416571841+417256231+416731361
1684+416171556+418578702+421417599+422996453+423563200+424188449+425656101
1670+427450740+429694849+432473372+434804388+436708175+439373440+442516992
1657+444968299+445596288+444878971+447436504+450854707+453709314+457568127
1643+461787906+465017589+467257177+468585356+470256005+474725910+479748588
1630+483771260+487233670+490900630+495012265+499833955+504466532+507986576
1616+511852879+517524051+523374746+528484605+533264919+538437573+543888393
1603+549449687+555251196+561365628+567772931+574743603+582659295+591209278
1589+599791092+608107434+616201645+623744270+630007124+634440403+636813206
1576+638770608+642696874+646640494+649667271+653787081+659605214+665808425
1562+671055381+674866471+681823762+693360791+703972756+714000895+723631945
1549+733225546+742462111+750705384+755906717+758946373+769896788+783649520
1535+793277556+801042587+809606180+817588867+823875606+828840604+832588261
1522+837011355+844493424+852607911+860445738+868490261+875666350+881141466
1508+883133896+882734022+888868410+896978604+902532179+904296540+905952849
1495+911602419+917067671+918489974+917434207+920089379+925097397+928555971
1481+930584114+932311848+932594993+929937446+925639849+924641260+928371653
1468+931444875+930824605+929687913+931226032+931786385+927789196+925868466
1454+931864661+938485329+943129277+945113851+946275934+949541695+954295248
1441+958820732+961227558+960886322+963691927+970461291+974765100+976578874
1427+979550072+982278497+983668923+984902797+985713871+987604186+991905802
1414+996193352+999334073+1001615585+1002813746+1002124881+1000917768+1001281108
1400+1001345775+1000332388+999709195+999089472+999263926+1000175562+999625530
1387+996946336+995358439+997033929+1000471678+1003670215+1004937427+1003744563
1373+1003148223+1004991224+1006488515+1007404079+1008730843+1008162086
1362+1006098323+1005947433+1006863637+1006527699+1004291947+1002171189
1350+1001933438+1002363454+1002424193+1003111688+1003415932+1000598545
1339+996253544+994637789+996253818+998307900+998102391+997036669+997298898
1325+998326441+999637221+1001020066+1002209276+1004038669+1006856878+1009952204
1312+1012900020+1016680649+1023516416+1031675658+1035424137+1034604111
1300+1033927394+1035390616+1038145071+1041019087+1043973846+1047321080
1288+1050421429+1052614252+1054122503+1055350075+1057003096+1060150027
1277+1063207722+1063100401+1061133089+1060508252+1060157334+1057846503
1265+1054939241+1053895622+1054555898+1054725968+1054100308+1054157577
1254+1054767344+1055720630+1057868150+1060382389+1061416235+1061326450
1242+1061387555+1061359149+1061512504+1062809857+1064056975+1064051313
1231+1063617735+1062931427+1062018147+1061938044+1062606815+1063283897
1219+1063940612+1064031310+1063522379+1063959975+1065414155+1066749322
1207+1068050420+1069033026+1068899947+1067899440+1067435173+1068309178
1196+1069784183+1071540323+1073038344+1072905266+1071776612+1072164064
1184+1073741823+1073612581+1072316689+1071705826+1071110764+1070505016
1173+1070564476+1070777201+1070517255+1069217253+1066533309+1064033776
1161+1062434370+1060132216+1057627933+1056347843+1055770866+1055298013
1150+1054930198+1054106793+1051678594+1048138913+1045619833+1044563792
1138+1043039649+1039917744+1035794783+1030975924+1025986082+1021261575
1126+1016424997+1012075337+1008415821+1004355518+1000231095+996421695+991321518
1113+984778578+978795901+974131037+970118868+965859267+961152753+957533608
1099+955513412+952992688+949792964+947630373+945708730+942800737+939619463
1086+936632645+933508274+930925624+930383720+931680069+932791825+932214300
1072+930256031+927994796+926125306+925612813+926783847+927698498+926147410
1059+923363818+922512920+923601294+924139453+922939465+920655031+918521303
1045+917565002+918084071+918839704+918684431+917995383+917460421+917752152
1032+919018359+920542686+921211365+920718419+920496013+920826196+920302195
1018+919361148+919664935+921394588+923261429+924049486+924109860+924610479
1005+925540200+926042829+925850016+925589979+925911303+926516869+926867147
991+926491020+924959478+923295132+922633485+922152504+920988137+919623651
978+918526600+917068128+914616455+911980920+909972324+908197003+906245310
964+904017048+901731518+900323098+900138871+900608984+901756727+903123770
951+903682663+904195978+905527309+907407576+909689362+911422759+912276670
937+913842372+916772378+919979044+922279737+923726061+925266828+927547700
924+930690704+934045519+936837332+938485694+938915162+939169536+939599003
910+939648051+939386370+939279506+939121036+938391343+937607852+936759512
897+934841432+932583576+931817440+932197859+931705734+930318414+929592466
883+929797244+930326543+930897035+931226671+931117706+931107202+932367381
870+935885598+940787665+945815321+952266832+960732511+968432053+973139754
856+975738389+977062230+976737070+976253165+977087804+977128723+974863013
843+973381250+975396331+978880936+980436317+979776315+978070775+975190914
829+972916344+974233517+978293547+982882418+987268704+990572096+993043589
816+995675836+996832347+996530569+997880533+1000249272+1002217862+1005263775
802+1008695952+1010496939+1011746158+1014830889+1019178630+1021950440
791+1022081143+1021642633+1023962324+1029402367+1034399607+1038050446
779+1042106457+1044670018+1044499765+1043773360+1044032484+1045644951
768+1047763517+1049491617+1050139106+1049725440+1049333512+1047812017
756+1044532464+1043773269+1048122107+1051132398+1046987607+1040878337
745+1040112840+1044840544+1048358944+1047793841+1048425986+1050888619
733+1051332700+1050089510+1048287427+1045693725+1043097009+1041742478
721+1041625932+1040060778+1035076325+1030997114+1032223773+1035265667
710+1034688050+1031382009+1029197772+1029560198+1032067860+1034990194
698+1035492457+1033221632+1031363377+1031085985+1031282543+1033068825
687+1035328781+1035069200+1033617213+1032878021+1033518569+1036353584
675+1040054293+1041986896+1040886649+1036393224+1033946849+1038979802
664+1043302791+1042634934+1038378712+1031550161+1026314165+1027472960
652+1032761566+1036037009+1036062675+1034141123+1032608576+1037297828
640+1042506605+1035155423+1021789047+1016931553+1020839962+1029565587
629+1039475215+1037828588+1023450105+1011970025+1007285067+1001488900+989021556
615+981300458+992053312+1007919129+1012903491+1015992241+1020109265+1015882180
602+1007489297+1006848110
##END=
