##TITLE=Sample description
##JCAMP-DX=4.24
##DATA TYPE=INFRARED SPECTRUM
##DATE=24/8/2023
##SAMPLING PROCEDURE=Instrument type and / or accessory
##ORIGIN=Default
##XUNITS=1/CM
##YUNITS=ABSORBANCE
##RESOLUTION=4
##FIRSTX=4397.6552
##LASTX=599.8556
##DELTAX=-1.9287962
##MAXY=1.5447189
##MINY=0.58808255
##XFACTOR=1
##YFACTOR=1.4386315e-009
##NPOINTS=1970
##FIRSTY=0.83617496
##XYDATA=(X++(Y..Y))
4398+581229409+580233686+579278069+579000851+578987593+579416574+579549197
4384+579686086+581491670+583581267+583493888+581307093+578945374+578428931
4371+579327331+579660109+579111473+578692435+578493895+577760434+576842560
4357+577279041+579275749+580489857+579182279+577067948+576875996+578190285
4344+578583801+577881994+576831995+575377584+574463896+575112091+576241472
4330+575901941+574932154+575649002+577502564+578389239+577504511+575651612
4317+574648515+575012822+575397182+575270194+574692349+573552113+572749419
4303+572863853+573698698+574974207+575947930+576115976+575513894+574458178
4290+573674750+573535333+573227829+572681638+573062849+573999946+574221604
4276+573732962+573639534+574055174+573602867+572423685+571993958+572564345
4263+573271498+573538979+573321630+572594880+571837471+571393574+570975903
4249+570806324+571764842+573969287+575257599+573799749+571442007+570566477
4236+570608199+570376472+570055544+569514698+568292386+566925188+566561378
4222+567889257+570069258+571601477+571733312+570584749+569409876+568573830
4209+567080680+565936260+566493265+567953186+569381702+570083055+569916832
4195+569455906+568442658+567097212+566660109+567058100+567309299+567400987
4182+567630601+567932760+568183214+567948546+567397921+567170214+567228384
4168+568165605+569597478+569160790+567469266+567143491+567982478+568524236
4155+568411336+567994742+567554532+567239985+566990194+566252258+564804973
4141+563688022+564221908+565470363+565214026+563653758+562885204+563804403
4128+565174128+565778862+566324349+567472912+568098072+567295088+565814534
4114+564747301+564460180+564375163+563850847+563386856+563865929+565019588
4101+565433489+564550128+563553991+563672236+564477540+564340402+562840209
4087+561197119+560513790+561056045+562255072+563223906+563384743+562656295
4074+562084085+562644901+563178704+562592035+561754580+561704614+562446527
4060+563138516+563314268+563028598+562537304+562422000+562416904+561955274
4047+561277248+560817731+560951928+561776746+562452659+561998901+561056004
4033+560590148+560443771+560504923+560442569+559781820+559332164+559644433
4020+560150436+560897321+561380619+560575440+559464040+559204099+559269602
4006+559122396+558818248+558548321+558807558+559531656+559945805+559734298
3993+558683927+557247538+557033793+558055287+558283574+557650791+557803259
3979+558059678+557695744+557696324+557877380+557654354+557479430+557843696
3966+558520148+558898127+558828564+558606988+558356991+558007392+557609525
3952+557107334+556448076+556447911+557666245+557951957+555794122+554117307
3939+554870241+556793491+557760253+556045777+553880857+554568868+556315081
3925+556403330+555654953+555509115+555035718+553488874+552318144+553089433
3912+554746734+555379393+554459655+552297097+550514797+550820645+551710427
3898+552796222+554925552+555942239+553110107+550202818+551644468+553119885
3885+551871264+551158311+550517615+550839247+553644988+555514584+555274032
3871+553375890+550715782+550612410+550119997+547928188+548904604+552397486
3858+554937692+553315317+544363299+540694126+546382628+551836710+553972338
3844+552791872+550301467+547392479+543554390+542658393+545162636+547577636
3831+549807231+551857302+552220988+552042128+550464458+545556691+544739580
3817+547170241+548665959+552220698+556126071+556517267+553122744+551500784
3804+552381410+550158570+548106468+548827914+549388814+551336508+554448634
3790+556143472+556050003+554929695+553932978+553960489+553507104+552443972
3777+552620387+553178013+552871172+551490468+550418138+550644188+551515119
3763+553436463+554210569+551407729+549547455+550985418+550536052+543956939
3750+539758396+543389410+545587889+544226202+545910061+549164214+549858978
3736+546825365+543438217+543656063+546936981+550348077+551530035+551275770
3723+551177453+550910302+551032360+552232215+553375269+551317905+545878821
3709+544540584+547561354+550049853+549593361+547953793+548993143+551463951
3696+552811345+552885466+551313721+547441161+545601769+548100709+551004435
3682+551887050+551310158+549854960+545146312+541537423+542980067+541754855
3669+539155154+541014640+543835047+545384751+545716368+544218993+540311258
3655+537629978+538326731+536571362+528796536+525511226+528859181+531794684
3642+531926022+530572165+529304030+527182614+523943542+521249998+516308920
3628+508123177+506233570+508462956+509117740+505649841+499778005+496956397
3615+496002312+494689597+493532623+491284219+488558193+487710422+487034011
3601+484870045+482716519+481021349+478386804+476267791+476439731+475479639
3588+470234247+466732541+468052134+469318653+468142164+466120266+464627158
3574+463602019+463256895+462505038+458626222+453369395+452698453+454136623
3561+453456649+451864769+451583200+451399742+449918649+448428483+447777636
3547+447109387+446421541+446019739+445744675+445562460+445030852+443907769
3534+442460360+440542786+438461020+437087525+436388575+436190284+436362266
3520+436235403+436055383+436048464+435291677+434008958+432961031+431895372
3507+431331738+431326683+430925958+430441334+429949998+428857450+427601910
3493+426883861+426919533+427113930+426221206+424386785+422806588+422040271
3480+422146626+422335181+421953804+421598777+421685245+421776643+421313397
3466+420284239+419095073+417946012+417181974+417032655+417058964+416728299
3453+415869507+414874406+414281438+414052819+413970660+413887673+413683499
3439+413443652+413046821+412478133+411941719+411385004+410858949+410350129
3426+409684532+409031737+408779129+409207117+410193103+411173704+411653066
3412+411686791+411604177+411392545+410995963+411013654+411848995+412598657
3399+412319823+411380903+410708801+410601369+410638285+410551320+410730801
3385+411699925+413240016+414634932+415575758+416014559+416270274+417069073
3372+418468173+419785404+420554745+420862374+420944947+421072929+421827852
3358+423226662+424562247+426067453+428010134+429483769+430387639+431065582
3345+431235907+431349098+432042288+433169639+434154797+434704468+435067242
3331+435294867+435718090+436555047+437069005+437190358+437277032+437026537
3318+436841960+437300234+437530759+436827542+436058905+436162194+436905309
3304+437516713+437585241+437360972+437695407+438828227+439800376+440086170
3291+440061560+440197496+440866408+441846552+442803040+443779414+444127687
3277+443588125+443404045+444290844+445786811+447233184+448323910+449080904
3264+449260386+449290175+450115780+451060459+451115770+450845720+450883713
3250+451307391+451912084+452041516+451813145+452011519+452514083+452838906
3237+453146369+453680255+454243599+454598584+454641424+454556448+454685880
3223+454798905+454578490+454435468+454841953+455604375+456296778+456658060
3210+456637966+456606105+456843674+457222730+457890026+458873029+459413669
3196+459125057+458521234+458122705+458253338+458949595+459876831+460731149
3183+461476998+462009476+462280728+462704489+463308560+463816261+464188648
3169+464400901+465023575+466209758+466961118+467103104+467354966+467727021
3156+467799112+467800645+468058639+468240647+468311951+468601350+468984881
3142+469357516+469640120+469737774+469912242+470244067+470735527+471391843
3129+471899710+472125512+472109437+472031214+472141380+472377084+472590332
3115+472541816+472141919+471900125+472172537+472538335+472607402+472552546
3102+472696521+473283646+474167960+474856013+474827052+474110867+473757084
3088+474112027+474210759+473864847+473688556+473912576+474478075+474981964
3075+475013038+475054967+475520201+475764771+475588729+475435101+475190531
3061+474882280+474804845+474580493+474036332+473858301+474267644+474906932
3047+475614872+476127462+476270484+476311708+476506602+476843108+477139095
3034+477240602+477133004+476770769+476279019+476345723+477270143+478191082
3020+478469543+478495562+478628515+478752188+478903579+479168119+479351205
3007+479584050+479941355+479879746+479543861+479922628+481110634+482195103
2993+482739016+483173384+483875357+484664876+485371324+486246813+487315745
2980+488222598+488868887+489219025+489226690+489089759+488839885+488380162
2966+487782968+487261014+486964323+486712710+486470460+486604035+487220411
2953+487946498+488519951+488933106+489098791+489071446+488872782+488503586
2939+488418569+488761911+489166076+489454480+489547411+489458499+489329937
2926+489096471+488687832+488404192+488329491+488257193+488328041+488481213
2912+488458550+488342252+488095403+487679721+487437885+487884765+488995253
2899+489823137+489789288+489692670+490386564+491317861+491549546+491272038
2885+491125081+491112775+490918710+490739643+490940503+491306012+491579584
2872+491689999+491423553+490946014+490774032+490902676+491002775+490932466
2858+490622931+490427126+490673684+490866631+490645221+490214499+489742470
2845+489558846+490034189+490882458+491530446+491992863+492465348+492840386
2831+493181035+493626175+494017288+494204434+494357979+494788867+495369322
2818+495659218+495842263+496340435+496857375+497031802+497100537+497328451
2804+497598378+497763068+497964010+498393241+499011564+499701688+500401425
2791+500853857+500885386+500943349+501370714+501814529+501998194+502151159
2777+502408407+502530920+502602845+502943537+503345132+503599231+503870400
2764+504194809+504488351+504833351+505314536+505665254+505674493+505615826
2750+505830524+506391879+507064892+507520639+507722907+507862821+508060657
2737+508375660+508769177+509054018+509186599+509381493+509820293+510344402
2723+510728264+510917482+510917689+511151073+511921284+512692117+513051908
2710+513228199+513428686+513682537+514129458+514812622+515486505+515975397
2696+516246234+516304197+516287749+516439056+516813556+517114970+517264662
2683+517627394+518082768+518220983+518416954+518827582+518851156+518644206
2669+518842248+519358526+519708705+519656709+519582173+519955181+520587798
2656+521139541+521581035+521990213+522328004+522550698+522953163+523504948
2642+523685506+523603306+523562993+523367893+523136788+523405637+524181690
2629+524833283+525136561+525520963+526203712+526986933+527518665+527666782
2615+527768662+528065892+528587721+529429816+530352164+530905523+531194301
2602+531648970+532060923+532114162+532411558+533273250+533958817+534161458
2588+534421731+534880419+535086167+535005997+535214481+535864748+536467452
2575+536846964+537122732+537465080+538091235+538548348+538525727+538583192
2561+538882866+539274642+539773353+539976077+539616618+539262378+539452797
2548+539937007+540332347+540791656+541406665+541832581+542035844+542300466
2534+542667259+543146249+543702508+544095196+544341340+544585827+544574351
2521+544414798+544640724+545120542+545647302+546302541+546879184+547280904
2507+547573493+547812056+548114464+548350707+548339479+548332062+548555254
2494+548643254+548459174+548687876+549512197+550108313+550213259+550282077
2480+550339004+550330054+550246860+549787633+549172624+548927971+549018458
2467+549408121+550102347+550663122+550798727+550660968+550479746+550442997
2453+550578561+550534063+549961024+549271563+549018541+548961075+548789880
2440+548542700+548206898+547973887+547961955+547776093+547260437+546684581
2426+546160058+545791691+545748312+545876874+545890753+545668183+545176350
2413+544609940+544158586+543698241+543256830+542980854+542692864+542228334
2399+541661924+541053420+540597508+540395488+540083965+539575932+539058080
2386+538362652+537360507+536016801+534083360+531207559+527447485+523593238
2372+520133088+516671653+512840897+508790887+505456605+503789858+503343599
2359+503379147+504190666+506224910+509732252+514267674+517432666+516851755
2345+513192568+509778986+508009572+507727050+508859497+509732293+509258234
2332+508578219+509018346+510574927+512215655+513222606+514117112+515647466
2318+517391401+518673415+519707048+520648703+521378353+522200395+523188743
2305+523980954+524365563+524520185+524814266+525146463+525381670+525771665
2291+526272820+526772898+527246916+527434103+527280641+527069962+527102941
2278+527502506+528006562+528200958+528098001+528058227+528228718+528514222
2264+528847083+529295537+529867043+530265117+530386221+530623002+531132319
2251+531564532+531752010+531990945+532467739+532959986+533302376+533632171
2237+534043668+534412616+534725340+535199648+535870010+536563158+537214793
2224+537757877+538156406+538529704+538932335+539337618+539792080+540314904
2210+540744051+541070739+541619581+542441126+543153209+543575645+543908961
2197+544387909+545202452+546266951+547116753+547653207+548181418+548764773
2183+549436129+550313233+551219423+551947001+552551528+553124774+553859727
2170+554773664+555480817+555980274+556584800+557168860+557551521+557911395
2156+558408863+559032365+559790189+560592841+561106260+561136049+560983043
2143+561049706+561317105+561406473+561133190+560724427+560348395+560012842
2129+559666557+559174475+558540491+557798909+556976991+556296064+555764333
2116+554904754+553496622+551987687+550740350+549656047+548515977+547166595
2102+545635535+544177603+542980233+541948506+540865860+539551487+538042760
2089+536605377+535370594+534261929+533240477+532307275+531318429+530170446
2075+528965784+527740779+526515608+525353952+524197185+523084128+522082729
2062+520963002+519652690+518538141+517765983+516977500+515870906+514505035
2048+513193977+512054611+510867599+509688458+508823700+508133328+507230660
2035+506149132+505205862+504437846+503607020+502697724+501861843+501013036
2021+500065705+499137392+498269858+497466667+496845029+496353278+495731268
2008+494960600+494253199+493618013+492871376+491997255+491184618+490415898
1994+489417026+488210873+487230106+486587587+486108970+485751127+485324797
1981+484680993+483957475+483306130+482731931+482147084+481513431+480674361
1967+479586411+478823368+478596862+478324035+477817204+477284188+476649375
1954+475928922+475379292+474970902+474381954+473518356+472514305+471793231
1940+471808851+471925439+471514149+470902413+470435273+470098145+469749458
1927+469192908+468110221+466809479+466168576+465739801+465156819+465160009
1913+465361904+464967891+464327112+464117220+464126749+463934797+463610471
1900+463258925+462803966+462202754+461752186+461432832+460800422+460429362
1886+460726011+460918750+460809620+460640082+460446141+460275941+460114234
1873+459691467+458286608+456128069+455671660+457139536+458368062+458736720
1859+458672708+458393833+458113756+458025424+457921845+457426863+456513050
1846+455037716+453598097+454038596+455312283+455685581+455567004+455553621
1832+454646313+452409344+451215910+451708116+452129226+452660336+453464811
1819+453824768+453696786+453342009+452488561+451203771+450593112+450808017
1805+450928210+450304998+448752187+447423106+447284062+447194736+445819791
1792+444216599+445042743+446908527+447478417+446693456+445517009+444638579
1778+444532059+444357508+442489610+439253148+438656742+440830694+442800098
1765+443727169+443204552+442096964+441937950+442014391+442203858+442140592
1751+440179971+437326129+436861723+437964961+438549227+438101767+437427677
1738+437577369+437011829+434354248+434018943+436617111+439009946+440211086
1724+440158716+439475677+437942546+434072721+430572216+432486061+435982464
1711+437927341+437825212+435741250+433751627+433379738+431446545+427620761
1697+427256620+430231318+433824795+435640364+435286788+433993463+430925709
1684+426995850+428859604+432583963+434156247+433179748+431536451+430538864
1670+428913838+429068129+431717341+432747908+431666919+431815534+432970643
1657+432660902+428975405+422384318+422121394+423577587+423104025+425292187
1643+429701492+432341631+432427808+430177084+428906919+433628658+439277303
1630+442707457+444984656+447340948+449874400+453786568+458146528+460633370
1616+463287596+469021382+474684569+478389041+481206838+484636661+488359156
1603+491852783+495434950+499056559+502136078+504750447+507646259+510959784
1589+514483697+518229974+522000198+525466356+528504900+530617781+531212903
1576+532930031+538216399+542845912+545486382+549020032+553964300+558481078
1562+561468703+560839690+559342812+567136074+577055062+585278964+591473676
1549+596629949+600723297+602642030+601971669+601839047+611647661+624301418
1535+632393774+638900631+646799047+654118043+659387590+663232970+666412340
1522+670921453+678059104+685407434+693233303+701188895+706872880+709250136
1508+708721802+712531759+724368569+734061465+740131758+744122273+749312147
1495+756573347+762321386+765200625+768385630+776078628+784983663+791831708
1481+796985454+801382329+805058793+806987015+807198978+811421178+820304006
1468+827503142+831776137+836755290+842990397+846103808+844990709+849029617
1454+860229873+869894265+877211977+883926613+891842844+899575783+905515152
1441+910460829+914653778+918459426+924287925+931655355+937971088+942818489
1427+947130595+950701741+954291779+958523674+961487268+964148247+969286663
1414+974796222+978995303+981815876+982981841+982982338+983871541+986428609
1400+987000032+982804183+978356844+978602864+982182628+984922989+984401367
1387+981240144+980249020+983510175+987960497+990172856+989106326+986630049
1373+986873915+989950866+991398979+991260267+992044067+992375437+992182449
1360+993659813+995827591+996871167+995552817+992341380+989650239+989184218
1346+989896176+990379765+989900485+987531516+985896132+987475086+989289205
1333+989530668+989558675+990476300+992007691+993548279+994512887+995327181
1319+997425686+1001166370+1005519576+1008698697+1009713105+1010180452
1308+1012426785+1016445473+1020366798+1023664247+1026664467+1029269927
1296+1032089589+1035366736+1038200153+1040180992+1042420033+1045957039
1285+1049420048+1051006129+1051420029+1052182700+1053116649+1052942968
1273+1051657183+1050633494+1050320769+1050296656+1050128195+1049198556
1261+1047140405+1044501799+1043240293+1044089639+1045412546+1046471867
1250+1047437717+1047694344+1046955621+1046302660+1046692696+1047306463
1238+1047255253+1047172970+1047502599+1047283924+1046347821+1046083239
1227+1046644802+1047351457+1047844658+1047775218+1048271650+1049469435
1215+1049728216+1050310328+1052207725+1052955563+1051911407+1051395916
1204+1053092453+1055767767+1056918236+1056299415+1055188389+1055115055
1192+1056273645+1056639071+1056227573+1056743147+1057392378+1057188618
1180+1056898598+1057097552+1057937036+1058578313+1057938859+1057299737
1169+1057002673+1055251530+1053082260+1052557655+1053120377+1053769194
1157+1054522833+1054763219+1053180204+1051230522+1050993699+1050869488
1146+1049530505+1047261136+1043767716+1040673281+1039636583+1038755749
1134+1036582916+1033719586+1030251854+1026869553+1023894523+1020531281
1123+1016920278+1013385592+1010480085+1008694139+1007020141+1004420896
1111+1001852392+1000043576+996555294+991098269+986627315+983063627+980035814
1097+978798090+979033752+980184967+981019977+978979808+974726286+971539044
1084+970147775+969374001+968537416+967291737+965561309+963355000+960399940
1070+957308323+955033734+952075360+947427576+944040635+943452639+942925133
1057+940756941+938220008+935617116+932444459+929689762+927836697+926741912
1043+926269013+924730910+921630343+919004250+918196170+918930585+919609481
1030+918956852+917238771+914851572+912670701+911535147+911024960+910817222
1016+910571202+909641065+908224440+906949924+906386622+906739950+907476187
1003+908058300+908176048+907710938+907515464+908392652+909350465+909313094
989+908658808+907969222+907657906+907193127+905752389+904386061+903560746
976+902027698+899714744+897741279+896344955+894374225+891277967+888115667
962+886026443+885134589+884320377+882742004+881376339+881405755+882409309
949+883470452+884624733+885888394+886718266+887494444+889525167+892735693
935+895897827+899085068+902831054+906635045+909784335+912029839+913461048
922+914724543+916664034+918661197+920393779+922568932+924178877+924849984
908+925638840+926197750+925952559+925191131+924119878+922583019+921269724
895+921155041+921194898+920405297+920300724+921295825+921096871+919123655
881+917371021+917239600+918199485+919005576+919777196+920971914+922314543
868+923897143+925883368+927944751+929867669+931532137+932819082+934530534
854+938044504+944029365+950072479+952573864+953704115+957070838+961189873
841+964125543+965667457+965880000+966810634+970320047+973720909+975129580
827+977434745+980837513+982695052+983265647+984034698+986093263+990558169
814+996646029+1001271274+1002837964+1004008901+1006675183+1008439584+1009071912
800+1010946604+1013721602+1016259032+1018743512+1021556545+1023552796
789+1023440434+1023059265+1025074492+1028679032+1031446986+1034073080
777+1037672647+1039940690+1040200548+1041191009+1043301115+1045556645
766+1048113299+1048368849+1043859943+1037666930+1034266731+1034811306
754+1037820475+1040396188+1040061587+1038832149+1038470701+1036214093
743+1032874135+1033339328+1037923391+1040856989+1039429260+1038116130
731+1038816156+1038840767+1036860259+1033153384+1029094092+1026868973
719+1027597338+1030551486+1033194401+1032009460+1027678378+1024777014
708+1024398910+1025642518+1028659227+1031378459+1030083642+1025456076
696+1024082705+1027397721+1028377162+1024602090+1021200897+1022364624
685+1027369051+1031141056+1028408070+1020680683+1015669793+1016989800
673+1020843177+1022158876+1021663604+1025643844+1031088687+1032693411
662+1033232021+1035082102+1038150767+1039913014+1036265717+1026271365
650+1018824055+1028454804+1053615069+1070709701+1071622437+1068570842
638+1058202944+1046698083+1054537997+1069387042+1062542975+1042345290
627+1034146165+1046064512+1065248451+1073626561+1073741823+1072963491
615+1061918188+1048715796+1044722132+1026514319+997605499+990728369+1003784425
602+1018817343+1031705187
##END=
