##TITLE=Sample description
##JCAMP-DX=4.24
##DATA TYPE=INFRARED SPECTRUM
##DATE=24/8/2023
##SAMPLING PROCEDURE=Instrument type and / or accessory
##ORIGIN=Default
##XUNITS=1/CM
##YUNITS=ABSORBANCE
##RESOLUTION=4
##FIRSTX=4397.6552
##LASTX=599.8556
##DELTAX=-1.9287962
##MAXY=1.4370605
##MINY=0.39638886
##XFACTOR=1
##YFACTOR=1.3383669e-009
##NPOINTS=1970
##FIRSTY=0.57370275
##XYDATA=(X++(Y..Y))
4398+428658814+428768282+428353747+428287612+428068854+427466959+427322219
4384+427596290+426958321+425447370+424647960+424734314+424824944+424867787
4371+425031454+424954007+424556574+424453252+425138339+426461885+427248380
4357+426489942+425274172+424730573+424474005+424474539+425030163+425799021
4344+426107027+425768425+425348679+425088905+425043078+425180336+424834118
4330+424266827+424640567+425663500+425825876+424900520+424423903+424983400
4317+425242106+424845786+424907690+425318974+425478233+426076298+426947365
4303+426657796+425709104+425534525+425498764+424871483+424264689+423790699
4290+423364807+423509325+424061697+424204165+423898207+423754670+424299649
4276+425352643+425670447+424747274+423585881+422805488+422539033+422532664
4263+421961677+421477933+421995301+422784957+423623781+424290208+424128500
4249+423511017+422667250+422111182+422375766+422306291+421733344+421868375
4236+422149838+421916206+422051772+422759616+423306689+423070740+422256456
4222+422003183+422453881+422473967+421809232+421363032+421510489+421688987
4209+421699987+422204929+423161014+423401994+423008168+422987593+423054752
4195+422847975+422684530+422660125+422961762+423405914+423296446+422868060
4182+422923640+423460737+423801833+423218331+421704752+420336581+420071997
4168+420800729+421762069+422019172+421375858+420779441+420743768+421030977
4155+421537967+421911352+421811058+421645164+421881290+422297117+422377325
4141+422157142+422041528+421825532+421395855+421072305+420707873+420458207
4128+420345310+420161557+420461369+420707917+420148642+419670822+419903163
4114+420726043+421386413+420924136+419923783+419608829+420007465+420438033
4101+420251786+419472328+419161783+419594845+419916836+419989695+420176655
4087+420533250+420747732+420359428+419267777+417998965+417460577+417771211
4074+418417642+419209881+419692110+419516685+419046481+418498741+418061804
4060+418050003+418189621+418294813+418545637+418423610+417837435+418012682
4047+419105446+419757488+419654122+419387711+419058060+418831954+418307194
4033+417167757+416798826+417596276+418213091+418154260+417958349+418353467
4020+418962621+418590216+417677331+417420495+417822293+418511389+419103264
4006+419165836+418725159+417733980+416540788+416250596+417027693+417793702
3993+417932474+417921028+418069064+418149049+418099526+417880724+417556907
3979+417536198+417905174+418021188+417584430+417162012+417067909+417274731
3966+417647180+417524574+416489885+415510374+415669855+416460402+416839576
3952+416655244+416214611+416161882+416774020+416652082+415602518+415655604
3939+416526938+416825369+416424818+415124831+413919526+414440234+415398011
3925+415231761+415285159+416228150+416188692+415037453+414988241+416277852
3912+417437998+418245958+418711174+417197240+413435605+410654239+409938066
3898+411369610+414820254+417083674+415465571+413517907+414299858+414115259
3885+413059638+414010111+414045383+414026367+415716484+415617882+413821504
3871+412202110+411384841+412873391+413643096+412688747+413383766+415547784
3858+417672877+417225297+409646537+405240521+409880838+414792464+416830046
3844+416384915+414911997+412780000+409960912+409471157+411321067+412595134
3831+413439747+414662287+415605145+416546801+415443838+410886268+410347435
3817+411821154+411547618+414083906+417888250+418950730+416508500+414842388
3804+414999019+413245350+412998090+414993586+415780659+416791166+418453983
3790+419439773+419791469+419583533+419237627+419439595+418784791+417787244
3777+419072757+420941950+420931618+418882725+417204054+417442763+418379030
3763+419789732+420413138+418879206+417947928+418942981+418763014+414425003
3750+410934633+413187098+414901976+413327696+414374722+417398450+417966944
3736+414696490+412189283+414455910+418664769+421509153+421496416+420123079
3723+420180752+421932773+424521970+427216136+428943885+427852145+425930578
3709+429155651+435951523+444070942+454298175+467799647+482886533+497143771
3696+509812343+519775481+525312695+525482330+524446215+525980057+526925454
3682+524536132+519345893+512291492+499834998+487856323+484365018+478731385
3669+471072105+469332821+468726651+465679631+461873060+458446822+453234715
3655+448349588+446909537+443096331+432253708+426432225+429533132+433159914
3642+433754951+432234113+430681699+428974926+426923628+425387960+421079208
3628+414439744+414555759+417308845+417545150+414051930+408884359+406682620
3615+405482392+402912791+400347956+397005132+393588691+392869178+392691036
3601+390143614+386495144+383590994+380918471+379099024+378879019+377485998
3588+372224480+367955922+367957547+368523213+367288492+365020841+363160622
3574+361872325+360901655+359414820+354925299+348863125+347283077+348407394
3561+348747511+348371721+347930554+346917664+345065906+343616592+342991895
3547+341718718+339676460+338493958+338170430+337596771+336419857+335277837
3534+334917590+334683045+333315965+331293281+330024268+329475793+329300947
3520+329407075+329217466+328404050+326999583+325494043+324168648+322760886
3507+321808007+321064200+319857247+319142521+319092775+318829327+318130344
3493+317124825+315991244+314849469+313947272+313692084+313574310+312851123
3480+311864665+311054945+310674524+310419938+309634913+308965079+308871711
3466+308485433+307244166+305763477+304947856+304582488+304123351+303737541
3453+303457214+303024241+302187444+300968333+299972611+299353392+299031780
3439+299399018+300201857+300487908+299738489+298638466+298196942+298179907
3426+297860567+297251011+296805480+296502082+296173545+296297287+296828861
3412+297112373+297249297+297433851+297366425+297282765+297445542+297350192
3399+296929199+296792208+297060244+297275751+297339659+297663297+298280780
3385+298731634+298824980+299055139+299810436+300607730+301084258+301692522
3372+302710244+303832602+304895661+306005037+306917811+307217334+307390754
3358+308399970+309897828+310929356+311691556+312742078+314186894+315926913
3345+317632595+318966429+319785812+320228717+320733948+321335910+321715240
3331+322228532+323081540+323689782+323818734+323425665+322721449+322586797
3318+323135428+323651459+324024042+324424927+324683610+324849282+325097322
3304+325279494+325379787+325682427+326295479+326826763+326829435+326656081
3291+327085469+328197673+329507725+330545198+331023441+331376829+332191693
3277+333164612+334011429+335087025+336500555+337775558+338503599+338862376
3264+338988077+338811205+338864714+339448996+339957278+340124219+340207611
3250+340437926+340871010+341172804+341223106+341261785+341336004+341583754
3237+342261471+343141734+343511489+343227487+342976152+343171706+343734656
3223+344286337+344514113+344548272+344378770+344094613+343868195+343753650
3210+344267365+345175775+345587861+345681675+345862778+345978725+345966144
3196+345932564+346107254+346800648+347673741+348109497+348149913+347991902
3183+347978519+348254660+348373503+348592839+349550817+350953169+352037538
3169+352576995+352937865+353103870+352804682+352554037+352851644+353454675
3156+354123396+354659423+355030581+355417482+355650246+355824134+356347336
3142+356953484+357085309+356789015+356538637+356755279+357378374+357785961
3129+357899437+358285180+358718977+358518568+357981984+357669011+357490380
3115+357616415+358286494+358910345+358992558+359095011+359638209+359967926
3102+360075613+360620904+361062205+360850840+360642325+360889586+361165816
3088+361371080+361984421+362583688+362578144+362734574+363474395+364040084
3075+364167187+364312662+364622940+364733855+364482498+364096421+363766258
3061+363491052+363249069+363236532+363424449+363429148+363194201+363024076
3047+363149621+363654808+364455687+364944953+364463526+363362322+362681154
3034+362466694+361981793+361752970+362334669+363013477+363482390+363890512
3020+364258596+364745345+365230046+365004430+363943197+363665942+365282709
3007+366772706+366320004+366172281+368260254+370291890+370295965+369972371
2993+370598494+371074733+371609379+372926468+374376049+376154836+378041309
2980+378773871+378594795+378655407+379026431+378799746+377922979+377276949
2966+377154432+377140849+376967918+376806745+376605890+376362994+376367359
2953+376524390+376782562+377395725+378323129+379229691+379710272+379509239
2939+379118441+379181548+379327668+379154916+379072347+379145786+378970807
2926+378582948+378154696+377651625+377182846+376869450+376676078+376695807
2912+377060552+377516059+377746752+377912647+378145611+378188320+378150599
2899+378440346+378953616+379571099+380224878+380554039+380590736+380496766
2885+380370998+380451607+380551322+380584278+380832518+381253689+381395712
2872+380740775+379785314+379567981+379884405+380043708+379948358+379784022
2858+379789589+379924843+379982205+379772042+379304376+379053286+379218690
2845+379583925+380097685+380639324+380998101+381340800+382034795+382863865
2831+383367560+383767042+384333888+384851656+385272649+385651199+385812996
2818+385898281+386299456+387021686+387832585+388486453+388844161+389075567
2804+389332803+389509119+389535974+389663657+390065855+390426503+390627313
2791+391011786+391636261+392239359+392701012+393085174+393452101+393764517
2777+393959092+394048875+394260685+394765671+395336214+395848059+396393840
2764+396868141+397289713+397822534+398433247+398962194+399335578+399785385
2750+400283647+400404961+400366972+400606083+401029168+401734119+402761772
2737+403617742+404041941+404210240+404512101+405176746+405807411+406081794
2723+406259178+406612967+407091677+407582190+408149125+408778454+409228306
2710+409317421+409311186+409666222+410271101+410728034+411027267+411300848
2696+411531496+411768157+412083824+412413163+412779466+413139935+413226022
2683+413021605+412904788+413127064+413509044+413956669+414481607+414759597
2669+414667052+414476842+414476218+414848890+415453235+416001198+416327731
2656+416451272+416589955+416782081+416940092+417124870+417279229+417292723
2642+417295707+417410030+417518607+417641168+417988722+418464048+418878939
2629+419315920+419714912+419874438+419899556+419987780+420205158+420598850
2615+421063755+421409928+421689699+422102497+422578714+422876166+422931122
2602+422779880+422672995+422905826+423335459+423666445+423700559+423468129
2588+423277964+423185998+422979354+422668720+422499352+422609621+422851537
2575+423049764+423166892+423119284+422944483+422862092+422862983+422872692
2561+422887210+422732049+422525717+422652821+422969556+423091049+423043841
2548+423094611+423243671+423154111+422838756+422661060+422619107+422600002
2534+422727150+422960738+422981269+422822322+422974678+423413128+423640749
2521+423665911+423781480+423918382+423829890+423514224+423265583+423332787
2507+423624760+423866765+423955346+423997076+423980731+423836570+423720155
2494+423745362+423811720+423726078+423356479+422856036+422589313+422754495
2480+423084413+423220958+423120442+422856125+422601382+422456999+422362183
2467+422437136+422688672+422754495+422431792+422054444+421992762+422002738
2453+421780640+421510578+421338092+421288035+421451346+421677719+421630378
2440+421325444+421130424+421126104+421088160+420963817+420814490+420600810
2426+420365440+420350699+420603927+420813154+420845131+420911934+420902626
2413+420514322+420116310+420148419+420334087+420333286+420195404+420109985
2399+420212951+420477358+420670775+420607401+420367400+420077519+419821352
2386+419608161+419171848+418208504+416631596+414389909+411564541+408552437
2372+405610209+402620728+399676763+397127159+395060451+393517078+392716555
2359+392778637+393725415+395523396+398513678+402816016+406442307+406889710
2345+404330842+401917560+401267344+401572366+402289964+402912969+403165040
2332+403378230+404043277+405185698+406316139+407166586+408080229+409444302
2318+411119989+412710080+413913960+414836866+415943525+417325590+418630744
2305+419614886+420268220+420728181+421214952+421873185+422520283+422818403
2291+422884048+423144625+423707819+424369970+424875669+425128274+425206790
2278+425133974+424989903+424924970+424877451+424812563+424948663+425353801
2264+425825341+426201131+426372636+426370276+426437658+426717830+427133879
2251+427523296+427798703+427975731+428129200+428375525+428709317+429016211
2237+429211498+429361716+429666160+430162506+430665444+430928425+430958264
2224+431067910+431408294+431848793+432193007+432336589+432378719+432569642
2210+432966586+433337343+433654256+434108294+434635949+435028662+435387349
2197+435840719+436160617+436310300+436534313+436937848+437460069+437891617
2183+438148809+438409652+438863690+439468347+440027800+440502992+440881855
2170+441133123+441345512+441691062+442378109+443264318+443914356+444277586
2156+444600067+444970378+445389189+445877831+446364602+446690378+446860860
2143+447052896+447251836+447292140+447246001+447282699+447315744+447167975
2129+446761234+446117743+445371018+444625630+444014917+443605860+443155830
2116+442477022+441616421+440669599+439757871+438879322+437923905+436907297
2102+435896611+434912246+433990721+433080685+432143171+431253622+430322566
2089+429279236+428268195+427306988+426352195+425451155+424584809+423739216
2075+422923774+422119554+421409349+420797077+420075560+419245109+418552139
2062+417964985+417308222+416650479+416010461+415282887+414501381+413731053
2048+412976847+412311355+411784501+411270964+410781966+410459352+410144353
2035+409655444+409138968+408721805+408232851+407638126+407091811+406519487
2021+405953888+405489785+404970191+404469614+404227252+404151186+404026754
2008+403760032+403293702+402709042+402209088+401828623+401502268+401161706
1994+400618642+399907278+399464196+399284318+399051932+398855799+398672981
1981+398298127+397831352+397471640+397217565+397013148+396731774+396102177
1967+395334922+395086014+395253645+395154910+394672236+394199627+393911483
1954+393695932+393419457+393069008+392672554+392117599+391191887+390320508
1940+390357117+390794187+390809061+390569372+390334092+390071021+389768136
1927+389452336+388886693+388072497+387548361+387163620+386975458+387463476
1913+387837351+387455237+386965081+387048674+387416937+387611022+387729842
1900+387873424+387739774+387265116+386955818+386836107+386404648+386141133
1886+386528724+387007078+387318157+387527830+387702943+387892574+387999727
1873+387877833+386930611+385195424+384943710+386617349+388084745+388521191
1859+388466813+388412970+388493178+388677510+388796909+388552099+387796423
1846+386469046+385392983+386186069+387703299+388436307+388703073+388917734
1832+388303903+386614009+385905184+386654091+387328980+388052323+388889899
1819+389320690+389451178+389496560+389170071+388486810+388335657+388855117
1805+389307285+389164593+388310138+387620241+387800787+388023731+387168251
1792+386153380+387438759+389628206+390580239+390429130+390072491+389933986
1778+390296192+390486314+389249478+386962988+387060120+389616449+391940215
1765+393119867+392918701+392458918+393088425+393893313+394691386+395105833
1751+393596262+391452285+391916121+393702034+394725456+394722517+394449248
1738+394987101+395009948+392910640+392780419+395620171+398470879+400305246
1724+400973856+401041772+400261290+396972977+393587177+395560049+399485217
1711+402008367+402554371+401272198+399925360+400054468+399211992+396684522
1697+396649250+399559635+403216790+405318636+405569147+405108251+403017895
1684+399644297+401342297+405356624+407905338+408264115+407706711+407507549
1670+406993254+408220426+411493864+413333887+413513587+414818829+416868702
1657+417493400+415010375+410510033+412132946+414726819+415588890+419499094
1643+425592199+430071877+432318730+432504131+433670779+440128762+447317570
1630+452645869+457012917+461356005+465721316+471171775+476890872+481020769
1616+485714840+493174468+500316291+505892073+510844538+515993360+521191705
1603+526470792+532029161+537373226+541816563+545784218+550188586+554998761
1589+559788761+564205822+568296306+572602474+577187790+580932189+583034525
1576+586520084+593564642+600170260+606174472+613556252+621177810+628048948
1562+633286573+635469963+640384083+654158468+667703629+679700519+690984843
1549+702540031+712732215+720635325+726910802+735159997+754013773+772357975
1535+785214531+798646394+814166610+827415611+838338619+848435853+857563197
1522+867248211+879343747+892572885+907233657+921521134+931846834+937388012
1508+938994759+945036158+960382864+973515806+982371661+987311968+992833017
1495+1002900323+1012029982+1016138814+1016953009+1020708408+1027008914
1483+1032621883+1036084953+1037121290+1035621251+1031136095+1025662521
1472+1025012840+1029966151+1033603710+1032426640+1029491760+1028411333
1460+1025865870+1016320607+1009123248+1015913732+1024421321+1028131473
1449+1026511365+1025091400+1026902208+1027700727+1026776529+1025318263
1437+1021801662+1021135413+1025295906+1027409554+1027366088+1029149105
1425+1030923216+1031184371+1030932479+1029156320+1028336959+1031363492
1414+1033371057+1033025196+1032898715+1032094763+1028726287+1025686125
1402+1024989236+1022026833+1015651953+1010716723+1009352160+1011935834
1391+1014838559+1012035593+1004655283+1002196041+1005919553+1010272706
1379+1012290246+1011873930+1009802145+1008057250+1008582945+1010286957
1368+1011641366+1011976450+1010487010+1007827982+1006259090+1006444268
1356+1007218649+1007567717+1007635856+1007446225+1007009422+1005785323
1344+1003575657+1001392534+999154632+997227765+997237118+998666703+1000044716
1331+1000889462+1001489532+1002354141+1003618589+1005320641+1007055828
1319+1008074530+1009811052+1013325693+1016957819+1020477448+1024571405
1308+1028397972+1031555173+1034723240+1037858172+1040085386+1041807568
1296+1044449405+1047910693+1050883072+1053158294+1055484999+1057989222
1285+1060133243+1061714694+1062959457+1063624637+1064047634+1064913401
1273+1064663558+1062366246+1060259011+1059732603+1059801366+1059664820
1261+1059321542+1059219912+1060409986+1061816947+1061280919+1060265068
1250+1060876538+1062354489+1063770446+1065408011+1066907873+1067613758
1238+1068046196+1068015289+1067361064+1067443544+1067603693+1066566910
1227+1066013959+1066642086+1066887654+1066619194+1066548116+1066868949
1215+1067597458+1068427330+1069601549+1071324800+1072599402+1072838022
1204+1072782442+1072846395+1072788232+1073040124+1073559228+1073535179
1192+1073533665+1073741823+1072790637+1071390712+1071801685+1073365766
1180+1073587909+1072583280+1072001470+1071712080+1071275544+1070889333
1169+1069906171+1068425727+1067837860+1067595053+1066367659+1065028926
1157+1064005147+1062575206+1060607100+1058222231+1056485174+1055843865
1146+1054969191+1053366719+1051015787+1047495178+1044003962+1042420463
1134+1041960235+1039936192+1036095819+1033220795+1031937108+1029547073
1123+1025369033+1021754010+1020180397+1019184854+1016733628+1012958900
1111+1008925778+1005761185+1003974159+1002930340+1002226859+1001958578
1099+1002316464+1003215633+1004240748+1005834134+1009015651+1011936012
1088+1011293367+1009142844+1009717617+1012551936+1015070054+1016136409
1076+1016146207+1016887453+1019384016+1022139508+1023870508+1025048735
1065+1025962244+1027308548+1029895607+1033126202+1035934067+1036762246
1053+1035761181+1035791910+1037252759+1037620354+1036755210+1037389304
1042+1039924880+1041826629+1042027127+1041310375+1040791449+1040160739
1030+1037658921+1034878045+1035859604+1040360792+1044167764+1044681702
1018+1042638152+1040478098+1040191113+1041753858+1043179524+1042435427
1007+1039923811+1037860310+1038172859+1040136958+1040272256+1038148187
995+1037108731+1038096526+1038957394+1038212941+1037034714+1037284379
984+1038217929+1038166090+1037758324+1037603786+1036627304+1034832529
972+1033729745+1033618852+1033077213+1031483649+1029649861+1028363324
961+1027779732+1027093977+1025773949+1024610507+1023931343+1022861871
949+1021724260+1022000379+1022881823+1022777521+1022174423+1021846376
937+1021772269+1021431395+1020971880+1020775835+1019916748+1018871681
926+1019374753+1020807544+1021811995+1022706443+1023624316+1024031459
914+1024358081+1024785442+1024872910+1024860440+1024760146+1024355231
903+1023731201+1022742338+1022076891+1022750800+1023257345+1022374743
891+1022013027+1022525718+1022308475+1021489826+1020978382+1021081348
880+1021724883+1022591987+1022262069+1019902319+1018680446+1021321749
868+1025638918+1028768150+1030171815+1031215457+1033215094+1035066340
856+1036477755+1038840801+1041848362+1044125010+1044684552+1044564752
845+1045567955+1046703785+1046487343+1046309380+1048339479+1050547453
833+1049386951+1047147446+1046873286+1047317037+1048603574+1051914956
822+1055138069+1057154808+1059594544+1061472689+1061587590+1062149626
810+1063819969+1065359913+1066546869+1067053147+1068124846+1071026235
799+1071107111+1066643867+1061235582+1051922616+1043357398+1046906154
787+1055560353+1058179388+1058912885+1062082467+1064663023+1062775170
775+1058503517+1056000808+1053964829+1051354256+1050917275+1053194457
764+1054742328+1053226878+1050657901+1049586648+1050414025+1052961181
752+1055531850+1056347115+1056161937+1054891165+1052520815+1051022646
741+1050581389+1050358802+1051824282+1055677392+1058665269+1056785521
729+1049829365+1044552549+1047075121+1052278275+1052843963+1050078051
718+1046397738+1041367024+1037881954+1038538940+1040722152+1044099268
706+1048440931+1049076450+1046940000+1046237767+1045480399+1043047343
694+1041657216+1043138284+1044004853+1042172758+1042355442+1045401393
683+1047084206+1047334584+1046578284+1044710560+1044480224+1045605632
671+1044273045+1040530294+1040533857+1047665036+1055334291+1057423445
660+1053666799+1046549158+1038532349+1035065271+1040391076+1053321917
648+1064178657+1064813197+1056833173+1042688032+1030946374+1036037122
637+1023011688+944623226+883274883+910197752+985042179+1024412770+1034632833
623+1047816812+1044742537+1029846707+1031927755+1038386807+1032316727
611+1024350866+1014610538+1003629367+1000062619+1008967463+1022515653
600+1024895266
##END=
