##TITLE=Sample description
##JCAMP-DX=4.24
##DATA TYPE=INFRARED SPECTRUM
##DATE=24/8/2023
##SAMPLING PROCEDURE=Instrument type and / or accessory
##ORIGIN=Default
##XUNITS=1/CM
##YUNITS=ABSORBANCE
##RESOLUTION=4
##FIRSTX=4397.6552
##LASTX=599.8556
##DELTAX=-1.9287962
##MAXY=1.3692889
##MINY=0.3410168
##XFACTOR=1
##YFACTOR=1.2752497e-009
##NPOINTS=1970
##FIRSTY=0.40393984
##XYDATA=(X++(Y..Y))
4398+316753533+315619093+315448517+316648392+317361662+317058205+316717660
4384+316399130+316038955+316089130+316199482+316017221+315964148+316108947
4371+316182586+316079104+315825612+315577472+315328163+314934311+314522886
4357+314380658+314650041+315190374+315550596+315582800+315539379+315287663
4344+314680469+314231021+314445462+315035900+315325919+315069132+314525574
4330+314181781+314320036+314784815+315133866+314816387+314201902+314255863
4317+314441069+313875590+313127008+312700767+312673447+313382277+314397461
4303+314674439+314207301+313960095+314471776+315246859+315452934+314968642
4290+314230250+313554162+313090996+312822757+312635986+312758210+313419224
4276+313842381+313454630+313165802+313405927+313648716+313617353+313019391
4263+312040266+311467169+311462214+311676749+312180952+313054375+313582766
4249+313152832+312255245+311924983+312207337+311975415+311291124+311179393
4236+311394933+311444033+311503392+311620311+311675043+311583924+311486612
4222+311864011+312665712+313035843+312732316+312208692+311733327+311443308
4209+311316340+311401850+311719025+312078990+312373216+312519581+312574430
4195+312559099+312413108+312225332+312041715+311860015+311646555+311428889
4182+311426131+311737768+311870298+311505939+311232022+311191242+311055440
4168+310942423+310853291+310824546+310852473+310752941+310787715+310900568
4155+310754507+310638967+310592578+310370401+310179844+310222050+310523730
4141+310856282+310835553+310653479+310666823+310501412+309881622+309452272
4128+309722660+310307162+310497346+310341586+310420038+310391668+309835794
4114+309326496+309262626+309467930+309490692+309125913+309059753+309591579
4101+309875148+309558277+309268258+309375853+309598637+309586999+309322242
4087+309052929+308958889+308853538+308549380+308154711+307914516+307973408
4074+307857704+307154437+306578699+306855607+307636439+308358308+308691048
4060+308462117+308166022+308213953+308380323+308589482+308724116+308339776
4047+307416786+306855420+307165982+307654036+307803393+307619262+307289047
4033+307084281+306964043+306604476+306027803+305873796+306227544+306436937
4020+306429786+306602115+306787788+306674281+306669794+306791013+306658039
4006+306583934+306559535+306318383+306091392+306062483+306185479+306292746
3993+306307235+306218360+306031074+305858068+305746547+305911912+306336564
3979+306348015+305733507+305093922+304784085+304508883+304240270+304415310
3966+304736878+304631060+304589158+305030824+305319768+305054918+304433328
3952+303828378+303349601+302866781+302805458+302828875+302603310+303484117
3939+304949871+304984388+303673389+302220863+301757744+302762645+303586407
3925+302758579+301831616+301777071+301055692+299999424+300768407+303072902
3912+304800094+305195254+304701964+302904546+300261516+298849677+298515045
3898+299377180+301728041+303070916+301482050+300631717+302638879+303004686
3885+300959736+299976288+299294381+299963551+302132806+302348813+300847631
3871+299211208+298311728+299680193+300297926+299636070+300974435+302894007
3858+303399075+301063731+293888340+291718781+297074998+301877374+303504542
3844+302260124+300146607+298321262+296871938+297478805+299150446+300226368
3831+301631944+303085101+303367923+303333733+301725190+297668941+297929187
3817+300329008+300621364+302282139+304908646+305506820+303356238+302094713
3804+302108688+299861028+299212306+301304697+303059465+305020494+306695104
3790+307285027+307521740+307301363+306701437+306564233+305895553+305237506
3777+306391530+307872170+308211640+306975401+305589385+305589198+306130536
3763+307001248+307090170+305658747+305357066+306640465+306195247+301736431
3750+299002936+301447767+302792044+301891092+303879815+306784960+306614992
3736+303116253+301426126+304440807+308873893+311961019+312571602+312049451
3723+312855615+315499370+319318274+323252813+326620400+329000754+333990743
3709+347254363+366152837+387660923+412577868+441471299+468087532+487740734
3696+501545178+510477627+513814740+509996443+503169191+499169965+494716898
3682+487259036+477772769+466929792+451015056+436248571+431099084+424366199
3669+415607995+412729257+411689909+409359146+406276764+402870336+398075695
3655+394121246+392698119+388515229+379067242+375372665+378669278+381381179
3642+381447479+379924797+378141542+376506801+375152241+374060217+370257812
3628+364623471+365261677+368450976+368923420+365518160+361745785+361622766
3615+362266581+361911477+361717063+360581221+359189457+359967414+361276379
3601+361290518+360561240+359443439+357608116+356287816+356349770+355429140
3588+351905349+349896388+350973805+351952953+351367587+349927937+348499809
3574+347305683+346545861+345644324+342442148+337886183+336902385+337896513
3561+338025421+337839280+337656599+336447375+334330352+332979602+332466588
3547+330892071+328225882+326637671+326457069+326466253+325989696+325135741
3534+324200224+322777121+320471270+318301688+316951802+315728651+314992198
3520+315042443+314658922+313404385+311570346+309081604+306519082+305041901
3507+304626853+303734151+301945100+300838563+300424474+299523825+298452110
3493+297423956+295836516+294197499+293353031+293051327+292371850+290997847
3480+289806922+289120014+288402281+287417174+286269670+285148083+283839445
3466+282230622+280619274+279206617+278272410+277738947+277070244+276120402
3453+275203932+274465447+273426683+272089253+271555954+271672266+271301621
3439+270621420+270168677+269801444+269207103+268512389+268212531+268117720
3426+267894702+267702112+267485263+267411789+267952893+268853425+269561833
3412+270028388+270261875+270472040+271167315+272225008+273259612+274235582
3399+275156936+275944217+276516684+276958069+277364610+278073650+279378782
3385+280671997+281490874+282117418+282735807+283472236+284395085+285609286
3372+287265106+288928148+290026808+290677540+291381719+292190851+292491013
3358+292252758+292465540+293570954+295039372+296188652+296699609+296849526
3345+296923398+297046721+297463100+298037016+298338790+298114253+297291262
3331+296238430+295631282+295449021+294934933+294071325+293465603+293013024
3318+292414267+291780501+291278144+290919932+290612105+290541645+290713974
3304+290827130+291203805+292268229+293772379+295440071+297145925+298575759
3291+299828030+301251858+302662061+303975491+305125448+305572138+305306494
3277+305159848+305513574+305732922+305483894+305301726+305399319+305182190
3264+304268034+303211275+302677883+302553672+302286953+301877374+301651154
3250+301365809+300777919+300022630+299362363+299055191+298948110+298897398
3237+298955822+299041146+299201229+299138504+298407567+297751600+297951552
3223+298279057+297986350+297407761+296851513+296262454+295846401+295704476
3210+295609689+295519247+295435163+295433247+295771548+296222585+296384421
3196+296409847+296556936+296868409+297381142+298001844+298336476+298298430
3183+298140380+297830777+297556089+297361582+296845063+296408305+296676426
3169+297260040+297354968+296906946+296491618+296341794+296437774+296567687
3156+296426556+296329525+296592856+296758150+296378929+295848434+295807794
3142+296131957+296180613+295801321+295333411+295029604+295117848+295518243
3129+295657480+295556943+295735208+295999637+296104661+296390637+296874275
3115+297020476+296542587+296004872+296004732+296352077+296659974+296664134
3102+296480050+296600474+297109422+297666394+297952370+298023204+298202871
3088+298570174+298937734+299132334+299273535+299709452+300433144+300940783
3075+301050667+301087895+301180744+301076234+300441604+299466523+298731285
3061+298331639+298018997+297661720+297411149+297490560+297591494+297284345
3047+296790518+296549154+296612089+296754879+296795121+296754224+296577034
3034+296170797+295929738+296208236+296555511+296561423+296409496+296179888
3020+296193606+296957775+297732460+297512738+296828003+296576918+296703699
3007+296901758+297233632+297810165+298680830+299857499+301308249+303089869
2993+305087519+307009357+308855220+310938357+313416233+316006705+318311130
2980+320033951+320900456+320857760+320227850+319321242+318242353+317168768
2966+316092285+314883833+313762901+313029066+312885528+313228036+313753833
2953+314423214+315177871+315897404+316646312+317523872+318368175+318923231
2939+319192451+319097734+318510708+317647942+316818454+315980998+314880958
2926+313659910+312659566+311862586+311037983+310253739+309710391+309074990
2912+308152748+307389724+306914476+306429576+305971411+305765640+305607123
2899+305313224+305061859+304853470+304660366+304624166+304763333+305066322
2885+305384619+305242671+304658636+304252773+303957823+303374910+302792044
2872+302388191+301918925+301441340+301137089+300897852+300561327+300058783
2858+299478792+299066572+298797001+298457228+297963494+297308369+296863665
2845+297027581+297526152+297914535+298037296+297911917+297719490+297760200
2831+298102171+298513853+298958019+299514103+300085238+300536789+300749337
2818+300862213+301119398+301402266+301574127+301755781+302045940+302333505
2804+302402330+302391836+302672064+303154229+303475284+303446235+303296248
2791+303617933+304391356+304949216+305098433+305165714+305306587+305460781
2777+305681836+305997095+306361570+306789447+307149553+307330482+307440273
2764+307606409+307904327+308287662+308686701+309241032+309912517+310352710
2750+310530461+310680892+310944457+311342655+311716922+311997850+312350757
2737+312859681+313319038+313574470+313872622+314289071+314494305+314690074
2723+315437603+316293615+316513408+316509529+316877089+317374492+317594472
2710+317681080+317996128+318389442+318541743+318485842+318314191+318122302
2696+318077175+318168901+318297949+318430853+318479626+318450975+318446301
2683+318463828+318467871+318509703+318733375+319008812+319045222+318987802
2669+319058075+319147511+319146950+319146039+319267071+319426079+319421499
2656+319288548+319275601+319419816+319489248+319387916+319288478+319312362
2642+319472842+319822501+320167112+320213525+320104037+320124135+320339838
2629+320719854+321087859+321201529+321175963+321387413+321859529+322245715
2615+322466396+322740921+323011146+323107336+323141573+323226569+323233276
2602+323056156+322826057+322544288+322197737+322034686+322029474+321954878
2588+321697740+321224502+320749721+320435608+320161293+319931358+319900299
2575+319974755+320016798+320101513+320093404+319725680+319170016+318853660
2561+318850551+318902199+318854571+318754782+318745130+318833655+318785303
2548+318562729+318459271+318522884+318518513+318417603+318369297+318494092
2534+318779764+319051882+319153611+319114069+319187076+319485322+319751574
2521+319863328+319971063+320095741+320147926+320102728+320058162+320165616
2507+320334089+320340609+320225513+320239044+320454701+320639860+320611162
2494+320416374+320179451+320015466+319982327+320005697+319941757+319841431
2480+319902426+320089595+320137292+319992960+319878028+319876462+319924183
2467+319991161+320065944+320107496+320078704+320097049+320280269+320551171
2453+320755821+320858437+320961451+321019525+320968860+321002138+321176220
2440+321383533+321712253+322121925+322286098+322136929+322026880+322193484
2426+322461091+322702922+323011754+323320632+323466109+323450171+323443861
2413+323653558+324132756+324692556+325081756+325266097+325357660+325430270
2399+325563922+325799419+326039100+326230826+326412947+326565061+326687355
2386+326695815+326348820+325508115+324187324+322372987+320077255+317658295
2372+315509465+313566384+311665882+309763908+308030407+306700712+305866644
2359+305887817+307055746+309186838+312236713+315937577+318645668+318664808
2345+316384594+314350885+313800596+313991153+314615991+315463754+316020049
2332+316310722+316868933+317834830+318852327+319673378+320540865+321828728
2318+323365479+324701647+325681028+326346319+326951807+327880266+329031041
2305+329937813+330474220+330834395+331191906+331632169+332113751+332556585
2291+332946440+333246695+333541856+333988873+334372231+334420840+334264894
2278+334085787+333967490+333966555+334037085+334160968+334328600+334469660
2264+334553791+334592421+334686064+334889475+335055237+335130137+335188608
2251+335244205+335318194+335415552+335568391+335809637+336072033+336288531
2237+336388413+336432068+336533797+336587804+336587010+336699115+336938632
2224+337179528+337328977+337442040+337630775+337881790+338046640+338042223
2210+337964729+337985575+338233225+338605903+338864910+338956964+338987415
2197+339156822+339576894+339990493+340172263+340270370+340393762+340484624
2183+340591214+340870015+341365268+341881834+342249160+342526630+342766334
2170+342932563+343092506+343405241+343882312+344318088+344546364+344686186
2156+344975200+345386999+345710087+345889169+345974773+345972389+345869562
2143+345726329+345685642+345712073+345570569+345199246+344702591+344103016
2129+343426460+342732985+341925091+340973216+340084136+339284538+338479402
2116+337740706+337038935+336217183+335258624+334271554+333341226+332490752
2102+331689823+330838929+329914793+329055650+328365166+327765263+327114555
2089+326410913+325661654+324826465+324092349+323595531+323128719+322569130
2075+322000706+321456283+320972202+320551709+320014250+319375437+318958590
2062+318688272+318268690+317880962+317649554+317292043+316754725+316240099
2048+315818835+315536037+315350434+315032137+314569415+314174092+313904732
2035+313747360+313642803+313405833+312952716+312455454+312095793+311806265
2021+311429520+310902321+310340137+310020508+309913966+309714948+309403219
2008+309102146+308765013+308379411+307972941+307516809+307116134+306766592
1994+306125886+305233767+304682964+304559034+304538936+304552608+304488972
1981+304246837+303984278+303801105+303610314+303358224+302954207+302272534
1967+301630285+301562372+301820048+301834724+301602685+301281491+300920217
1954+300648029+300493859+300299188+299907020+299287977+298455335+297923228
1940+298331545+299009433+299203823+299071106+298890200+298782535+298752272
1927+298551689+297879527+297201943+297237815+297454266+297584904+298114159
1913+298511937+298282188+298096071+298584804+299329389+299774560+299991525
1900+300216202+300308232+300143359+300134221+300339478+300288181+300386848
1886+301034776+301729022+302283471+302734531+303074001+303418238+303805078
1873+303897225+302929599+301211849+301186539+303056801+304664082+305351948
1859+305637060+305858161+306098005+306336331+306528781+306482789+306031775
1846+305173660+304691658+305869168+307512906+308259080+308531759+308871018
1832+308498597+307150160+306844273+307891637+308845148+309985454+311268035
1819+312016896+312354590+312603058+312512850+312152488+312419651+313372485
1805+314177738+314268296+313724083+313572811+314324243+314975793+314526088
1792+314076430+315849052+318325829+319586887+319854167+319921472+320193824
1778+320987906+321528917+320536892+318582874+319211568+322398226+325377361
1765+327079056+327388636+327548438+328641607+329931503+331248648+331915061
1751+330740074+329284276+330320213+332509729+334111377+335044767+335958993
1738+337302219+337623437+336336065+337548350+341257907+344830798+347380887
1724+348782326+349634880+349574072+347189418+345457366+349166502+354210452
1711+357630014+359093430+358840008+358660014+359817426+360225323+359678703
1697+361674227+366611259+372044713+375657239+377529510+378455935+377927755
1684+377763839+382774463+389109570+393721482+396437005+398681861+401043052
1670+403484634+408298718+414115320+418011859+421132661+425734828+430487730
1657+433414703+433574225+434242321+440580536+445905157+450904610+460237805
1643+470326545+478013758+483208583+486577900+492389594+503417612+513647553
1630+521410624+527994783+534238024+540304869+547456400+554611296+559965269
1616+565450347+572888999+579854927+585314438+590157641+595145362+600071061
1603+605241020+610906933+616304327+620945662+625502257+630585421+636093775
1589+642031853+648245086+654381480+660458608+666547655+671648112+674866507
1576+679471478+687613467+694717604+700535935+707471810+714838903+721631615
1562+726513191+727389090+729652128+740977130+752673151+763206618+772803845
1549+781959616+789689643+795235762+798889115+803868844+820417930+838910729
1535+852161869+865313361+879859001+891687950+900886675+908837733+915392680
1522+923413473+934634433+944592022+954830422+967315688+978065887+984082487
1508+985323797+991145306+1006639666+1018537509+1024788087+1027072625+1030373375
1495+1037993984+1044756268+1046228471+1044823946+1048724459+1055348860
1483+1059425113+1061010988+1061416874+1059823615+1054821544+1046819073
1472+1042016299+1044865171+1047667209+1044952574+1041016353+1041125162
1460+1040347977+1031494377+1022392310+1025978919+1031794071+1033946336
1449+1032128166+1029943651+1029716029+1030205393+1030836938+1029872513
1437+1025938816+1024230671+1025736060+1026063517+1026724602+1029020918
1425+1029130475+1027965631+1029035688+1028159320+1025455248+1028387783
1414+1032161444+1031932233+1030360848+1029433909+1027422424+1025349617
1402+1024796968+1021888270+1015991884+1012054074+1011296892+1012749652
1391+1013702672+1010429125+1004207151+1001813804+1004066278+1007310286
1379+1010137750+1011730355+1010137283+1007427322+1007681772+1008956454
1368+1010012582+1011293807+1009877691+1006282202+1005569423+1007072475
1356+1007883687+1007477894+1006167783+1004219584+1002867127+1002736443
1344+1002778041+1001567580+998553437+996189162+997134610+999914494+1002214362
1331+1003003794+1003249083+1004429164+1005736377+1006650977+1007772353
1319+1008828481+1010492410+1013665094+1017732747+1021819937+1024954387
1308+1026894080+1028773852+1031032683+1033085579+1034934504+1037251572
1296+1041211911+1046503019+1050392221+1051838904+1052607397+1053855531
1285+1055668092+1057963566+1060055817+1061680485+1062877019+1062865147
1273+1061630848+1060083768+1058822079+1058135007+1058125659+1058537996
1261+1058620538+1058364125+1058286070+1058038069+1057715660+1058357581
1250+1060424499+1063297301+1065565667+1066312098+1066494289+1066823616
1238+1066148977+1064486824+1063758901+1064131603+1063828917+1062660428
1227+1062276789+1063356754+1064743331+1065475459+1065770854+1065842833
1215+1065761412+1065704670+1065804693+1066254702+1066866430+1066846519
1204+1065836476+1064750622+1064624799+1065170904+1065184178+1064295285
1192+1063217096+1062203501+1061229355+1060654084+1060224734+1058943602
1180+1056767220+1054953443+1053890492+1052598983+1050828581+1049593348
1169+1049209709+1048640327+1047437905+1046236884+1045014737+1043313230
1157+1041788304+1041169939+1040780224+1039613604+1037743366+1036510189
1146+1036541691+1035880794+1033410046+1031390241+1031138408+1030802164
1134+1028934543+1026450054+1024774346+1024491852+1024446140+1022253212
1123+1018283619+1015660968+1015113927+1014310941+1012338998+1010670021
1111+1009225955+1007303368+1006490660+1007002365+1007112110+1007243168
1099+1008645823+1010883808+1013352873+1016396649+1019356947+1020961798
1088+1022215727+1024735926+1028465932+1031883811+1033833039+1035394702
1076+1036654147+1037098173+1038531302+1041391578+1044710930+1048396253
1065+1051624089+1053316249+1054001171+1054742087+1055082632+1055481694
1053+1058168753+1062020469+1063445840+1062227339+1061488292+1063124178
1042+1064855880+1064816151+1064757726+1064685280+1063768810+1063756284
1030+1065186983+1066918124+1067997341+1067645859+1065913503+1063966893
1018+1064144596+1067073299+1069510488+1069282866+1067653057+1065986510
1007+1065226337+1065977723+1067567710+1068231693+1066965985+1065382167
995+1064969831+1065110797+1064886728+1063910244+1063170076+1063372645
984+1063251590+1063139789+1064544594+1065854985+1065027975+1063304312
972+1062189853+1061295071+1060043665+1058652882+1057632089+1056680004
961+1055235938+1054211219+1054413788+1054063522+1051077329+1047343584
949+1046797572+1048918989+1049795076+1049106882+1048751287+1048269869
937+1046854221+1045442311+1045587858+1047559895+1049495381+1049540251
926+1048210884+1047220939+1047316662+1048380829+1050118794+1051529488
914+1051275412+1049646257+1048067861+1047269455+1047279925+1047458190
903+1047326945+1046663056+1044766457+1042383486+1041201348+1041279029
891+1042129970+1043653213+1044561644+1043573008+1042064161+1041438692
880+1041086649+1041057484+1041869724+1042622792+1042255793+1041174893
868+1041528245+1044884614+1048491321+1048760822+1047392941+1048380923
856+1052296485+1055635187+1056427797+1057389137+1060141725+1062495811
845+1062064217+1059613193+1057228914+1055556010+1056464628+1060585283
833+1063529784+1062861127+1061362937+1061534845+1063908842+1067286058
822+1068910913+1067941814+1067334293+1069208270+1070702441+1070044722
810+1070773485+1073266762+1073741823+1072263450+1070546331+1068712363
799+1068038565+1069277538+1070467995+1069795039+1067932279+1065877046
787+1063785356+1063144556+1063955301+1062955822+1059965329+1057741834
775+1056478556+1055811208+1056708328+1058826473+1060195288+1059249653
764+1055612659+1050757537+1046951159+1044643625+1045095971+1050423723
752+1057041862+1058991744+1055936097+1051260549+1048215277+1047590837
741+1048622940+1051307662+1053631741+1053070773+1051567908+1051433485
729+1051140615+1049411157+1047843230+1048047763+1049327212+1049822932
718+1048978348+1047064268+1043865691+1041513008+1043056349+1046320081
706+1048316422+1049841628+1049458364+1046254271+1043910281+1045519805
694+1050756509+1053967238+1050882612+1047572889+1048927776+1050064856
683+1047410889+1043492990+1040362840+1039672963+1044362159+1053475725
671+1058666436+1052462223+1044673538+1050026904+1058435449+1059899146
660+1054526618+1049468366+1049148293+1050617225+1051184830+1055013831
648+1063962686+1069543299+1064114029+1052962804+1047792658+1049551375
637+1051674287+1055835513+1057093556+1049183067+1044014417+1045156919
625+1045709101+1046416084+1044441523+1035543521+1027431678+1026267395
613+1024516156+1016773183+1013107864+1023519949+1038867173+1042667382
602+1035618959+1027376245
##END=
