##TITLE=Sample description
##JCAMP-DX=4.24
##DATA TYPE=INFRARED SPECTRUM
##DATE=24/8/2023
##SAMPLING PROCEDURE=Instrument type and / or accessory
##ORIGIN=Default
##XUNITS=1/CM
##YUNITS=ABSORBANCE
##RESOLUTION=4
##FIRSTX=4397.6552
##LASTX=599.8556
##DELTAX=-1.9287962
##MAXY=1.4381933
##MINY=0.5331623
##XFACTOR=1
##YFACTOR=1.3394219e-009
##NPOINTS=1970
##FIRSTY=0.67215866
##XYDATA=(X++(Y..Y))
4398+501827434+503265682+503838401+501862633+499992064+499523788+499328521
4384+499853980+500835878+500671049+500412592+501512728+502214230+500960568
4371+499562547+500188889+501460796+501184627+500270458+499801380+499430693
4357+499458862+500200592+500939520+500970269+500331290+499682832+499813351
4344+500329866+500327196+499711000+498625105+497979762+498250101+498253216
4330+497891429+497958980+497742798+496557355+495633262+496120985+497161135
4317+497503965+497111072+496968181+497891206+498830963+498290552+496772425
4303+495138953+493528889+492800330+493524572+494612381+495054314+495267247
4290+495840945+496447528+496621346+496726011+496917095+496624550+496346646
4276+496987183+497875453+497614281+495973556+494744102+495206415+495758130
4263+495013818+493895126+493286273+493219345+493445985+493646592+493827218
4249+493755128+492941262+491657741+490780240+490499710+490458414+491052537
4236+491923764+491503236+490058668+489596844+490857759+492293027+492351011
4222+491831960+492322664+493133326+492437964+490809121+489663639+488903040
4209+488431337+488548195+489275107+490291894+491128455+491499186+491338318
4195+490931986+490720209+490741836+490562678+490101611+489686512+489226824
4182+488654239+488119791+487672341+487723828+488332057+488202962+486790924
4168+485805510+486170189+486594277+486531042+486734186+486873783+486438259
4155+486450630+487390031+488385235+488711823+487881626+486451342+485719313
4141+485513588+485326509+485343775+485089100+484177868+483063981+482393851
4128+482559882+482951751+482672201+482126316+482275258+483242472+484393516
4114+484760955+483986516+483019258+482709403+482720928+482504257+482101930
4101+481779881+481778991+482013997+481970832+481713042+481898519+482690179
4087+483339349+483008222+481952854+480947281+480374696+480146053+480034625
4074+480061503+480049755+479828900+479667987+479911315+480356807+480161896
4060+479418830+479129267+479285685+479409396+479723390+480319872+480425871
4047+479198821+477121014+475863525+476121048+477252423+478250920+478117419
4033+477363451+477220650+477464867+477450716+477103436+476923076+477320909
4020+477788607+477906355+477560676+477023514+477115095+477419967+477071218
4006+476709342+476690607+476370116+475876786+475892762+476294243+476694034
3993+477537581+478392921+477648609+476125632+475785204+476055588+476012957
3979+476633914+477834131+477480264+476013891+475693712+475669904+474770465
3966+474322836+475122017+476027775+476070896+475214399+473562950+472410659
3952+473546440+475964007+476485639+475745955+475846971+475159798+473814243
3939+473855094+475031325+476881558+477553156+475234336+472907372+472346490
3925+471964500+471782004+472756115+473804453+473131519+470943530+469531180
3912+469722798+470984693+472920588+474215902+473498780+471650773+469475955
3898+468663736+470818128+473301511+472202532+469829109+471176355+473036155
3885+472060620+470599276+468302394+466736785+468292604+469579240+469143449
3871+467372605+465252078+466283728+467551719+466168250+465653782+467263580
3858+469506082+469445117+461888258+456319493+459731329+464294655+467128521
3844+468272668+468081406+465897021+461639813+459805155+461640703+463509937
3831+464435810+465193605+465671360+466571289+465997858+461649113+460597394
3817+462136347+461748838+463041349+465779095+466622553+463980928+462034308
3804+463082378+462459508+461798812+463142587+463763277+464596411+465932220
3790+466845855+467561998+467252543+466004800+465796761+465458159+464060539
3777+463998728+465241710+466202070+465577331+464356911+464424284+464715316
3763+465419355+466238827+465323946+464655374+466573069+468191366+465051026
3750+462184452+465774378+469058721+469177447+472293980+477880945+482089425
3736+482306453+478499988+476927883+480330418+485047180+487144923+485516925
3723+482410628+480049488+479249907+479817374+481067076+480993339+479429733
3709+481315921+486583374+492188095+496723875+501110846+506906206+512930564
3696+518131044+522599984+525511237+525528503+525883393+529246412+532547532
3682+533724208+533440741+532783917+528671602+523299573+523790723+524440783
3669+523428268+525360248+528384219+530253409+532229488+535221420+537445277
3655+540101721+545470234+550286276+549915500+548550810+551011720+554132925
3642+555583144+555207517+554357295+553869394+553961465+555208452+554413721
3628+548331780+545709645+547559744+548806019+546104808+540717115+538055197
3615+537149439+536274786+536573872+536763399+535723872+535145191+535078574
3601+534737168+534835024+535486508+535228273+533934694+533814989+534639490
3588+532401882+528058833+526903651+527780662+527682583+526340277+525205876
3574+525132584+526682128+529824337+531173185+526141850+520453870+518913270
3561+518399025+517502122+517765118+519062301+519518162+519668173+522090723
3547+525381875+525056578+521528462+518902902+519130787+521083371+521680297
3534+521007676+521195111+521974266+523605691+526000073+525948986+523291786
3520+521482138+521076562+520766084+520377641+520725944+521753678+521629567
3507+521257278+523249955+525641934+525352905+523457727+521624316+520748061
3493+521254919+522018499+522046668+521897058+522017565+522245673+522237797
3480+521762000+521173083+520846896+520659817+519989910+518711194+517712341
3466+517833337+518994038+520782237+522272818+521573986+519397967+518753692
3453+519767898+520633695+520555820+520052789+519900865+519934195+520321570
3439+520805422+520365581+519525460+519150857+518999467+518923639+519108760
3426+519360275+519452257+519656425+519687041+519237722+519045213+518869259
3412+517836141+516844808+517021830+517551295+517654980+517851493+517791062
3399+516962778+516163776+515562088+514680359+514111468+514716004+516132225
3385+517084887+516787803+515864957+515298958+515331176+515975095+516814904
3372+517175267+516956415+516218556+515224197+514603418+514572758+514800911
3358+515125140+515146055+514530215+514066834+514095047+514197353+514464577
3345+514773276+514595720+514126998+513830671+513214342+511983910+510818136
3331+510428135+511083402+511851121+511281428+509563718+508323450+508394428
3318+508837028+508525749+508299865+509400491+510740394+510819382+509836949
3304+508701703+508254074+508716877+509161969+508696763+507499261+505891866
3291+504625344+504624276+505389414+505765841+505281144+504461449+503953479
3277+503717672+503554801+503305332+502729499+501995912+501573782+501218447
3264+500503773+499894742+499803961+499470076+498895177+499322246+500171445
3250+500446946+500421002+500280203+500273083+500310508+500190224+499992420
3237+499712335+499381876+499003580+498360729+497104085+496071723+496627665
3223+497692868+497206436+495863596+495065795+494569884+494099783+493830022
3210+494112732+494565656+494216240+493279464+493118062+493807060+493772305
3196+493102754+493094966+493519810+492953233+491892168+492749288+494949337
3183+495099615+492462439+491345304+494103165+496012048+493685485+491190088
3169+493016557+496506669+496476898+493347772+492659576+496336099+498094305
3156+494489917+491825106+496062512+501961824+499771165+492210434+490645493
3142+497882173+502720154+497408111+490885172+493336024+500873303+500882648
3129+493042189+489894951+497519050+505191432+500214610+490368434+490467359
3115+500797030+505160237+495810418+487519171+491857325+501980025+501703634
3102+491143941+486724129+495132500+504562732+499491614+487477563+485730972
3088+496194544+504252877+497545572+486610431+485170135+492349943+495805478
3075+488879989+481896338+483967826+492319104+494660442+486294924+478735039
3061+480415369+488126644+490267730+483595626+477939062+478228270+481517063
3047+482144561+478917579+476306169+476434908+477736408+477942311+476464590
3034+475103772+475561324+476851921+476463122+474805264+475215734+483468400
3020+514245013+573430736+620979548+610829302+570799079+538415828+518551127
3007+505238469+495310057+488930141+485928731+484042498+481128531+478079016
2993+476980259+479761304+483773227+482011283+475959245+473622892+478238549
2980+485487778+486055468+479554022+474964664+476298159+481817795+484721171
2966+480278219+474326441+474204911+483209097+493060123+489491556+478517254
2953+474185153+479581300+488743596+489107163+479976863+473571716+475803005
2939+484459510+488956352+482479114+474384959+473499759+480677253+488773500
2926+486267956+476601340+471767631+475488210+483214971+483998220+475782846
2912+469176201+469510621+474800324+478672427+475740348+470487580+469096946
2899+472754780+478520191+479353815+473941691+469251140+469668419+473609497
2885+475528838+472479145+468610469+468083052+470725924+473304893+472409458
2872+469295551+467568451+468124704+469835028+470599676+469173887+467242086
2858+466832194+468157190+469618401+468825094+466007559+463855481+463805063
2845+464893940+465451662+465182791+464756390+464672328+465169085+465835299
2831+466009250+465740958+465572925+465766323+466079650+465959810+465188665
2818+464325938+464098052+464619818+465217635+465276331+464947251+464541364
2804+464211350+464101790+463991296+463580870+463273818+463484928+463923300
2791+464290516+464509190+464603487+464715805+464657688+464247351+463929218
2777+463996236+464101835+464103615+464098408+463911552+463744898+464043673
2764+464431982+464453921+464415873+464543233+464735341+465007327+465277176
2750+465281849+465022457+464967410+465481254+465989448+465798986+465490822
2737+465563402+465378681+464905999+464929629+465549340+466198599+466524519
2723+466651745+466740034+466713245+466550062+466478684+466790364+467314799
2710+467438377+467076678+466812302+466924843+467195227+467504371+467952800
2696+468373105+468367364+467977942+467674006+467815783+468315789+468715713
2683+468896873+469149546+469420552+469433591+469367642+469612438+470123078
2669+470650451+471004985+471025499+470924217+471002092+471238478+471600799
2656+471995027+472232302+472421028+472739072+473118703+473592053+474157562
2642+474557308+474767350+474974587+475240032+475579569+476093636+476799277
2629+477311030+477406038+477488097+477805917+478305255+478940452+479367699
2615+479447132+479672526+480212403+480732923+481235687+481813078+482177135
2602+482348417+482700592+483035189+483099092+483415044+484249824+485010156
2588+485314227+485459253+485796521+486374846+487002300+487432885+487621966
2575+487707540+487856038+488235714+488797619+489320764+489843109+490469005
2561+490998692+491254034+491422245+491742291+492196417+492714667+493200566
2548+493603738+494042733+494393885+494501798+494719093+495314596+495946188
2534+496254575+496301834+496327600+496570037+497068619+497720948+498431261
2521+498856729+498823976+498739426+498974165+499359315+499527392+499715895
2507+500364665+501083611+501282483+501050548+500843933+500903118+501098163
2494+501373219+501718719+501945849+502090964+502192024+502228337+502480475
2480+502895930+503012209+502751927+502464588+502337229+502313599+502523818
2467+502918981+503068101+502952757+502916800+502953691+502859261+502740268
2453+502790998+502797184+502485548+502132438+502100042+502197854+502156914
2440+502056076+501929206+501720499+501550909+501404458+501097006+500673942
2426+500298093+500092679+500049425+499898747+499446669+498917293+498565029
2413+498296915+497941046+497441664+496984023+496820841+496781280+496540311
2399+496106790+495886513+496550457+498832075+503612651+512021379+524949555
2386+542394508+563092477+584751651+605478678+624545667+641980653+658771096
2372+676235230+694576731+712317967+728043208+740909083+749317099+752887356
2359+750985325+741897879+727137227+709755374+692609151+682375155+685103601
2345+695841740+697986831+688245632+677552749+670120002+667227840+670961324
2332+677701736+679385582+675788803+674419307+677723764+679835792+675066030
2318+664303148+653934762+651211924+655388452+657227827+651039663+638274848
2305+622941877+610116675+601736962+595181670+587936491+579115202+568599564
2291+557660284+547999185+539934311+532822677+526558462+521495443+517557614
2278+514167805+510955419+508205970+506071380+504215852+502601338+501319641
2264+500115775+498984800+498145481+497430406+496724409+496166197+495691424
2251+495178336+494711394+494457387+494450133+494482574+494337058+494222870
2237+494456942+494795678+494954010+495211088+495833647+496513745+496942594
2224+497328767+497797711+498278047+498795140+499255674+499705126+500407830
2210+501267976+501947095+502466725+503052793+503696490+504319271+504960431
2197+505669854+506569249+507701915+508738237+509507558+510262950+511077216
2183+511837771+512548218+513323546+514194728+514915098+515300782+515652156
2170+516393620+517374317+518216752+518900409+519464361+519896726+520235062
2156+520525115+520826025+521142467+521346456+521318643+521056982+520621502
2143+520344888+520395930+520321570+519805189+518953943+517928345+516794656
2129+515646683+514665363+513686535+512322868+510569290+508818115+507533259
2116+506599688+505251774+503335236+501476059+499928295+498417644+496748439
2102+495140867+493714855+492252621+490724615+489318050+488263393+487324927
2089+485910041+484076629+482298621+480803011+479558338+478398261+477210148
2075+476060350+475046411+474178655+473533891+473111895+472559646+471523635
2062+470260406+469219233+468490497+468007001+467637426+467384086+467241997
2048+466985275+466667632+466766066+467392141+467861930+468025869+468499441
2035+469259417+469941206+470558959+471293480+472146995+473003670+473845749
2021+474673321+475349858+475366056+474530163+473494909+472724698+472140632
2008+471479091+470432578+468911291+467242753+465769127+464457615+463446034
1994+462852801+461863872+459969495+457827741+455775967+453985854+452596689
1981+451234803+449773547+448483840+447418459+446402073+445542194+444942686
1967+444006311+442444307+441025594+440187476+439654095+439065891+438210239
1954+437301855+436697319+436240657+435653921+435244652+435304104+435215371
1940+434601712+434005408+433732577+433722965+433698668+433542561+433447953
1927+433572109+433973145+434358251+434352288+434067753+433901545+434078344
1913+434315753+434423978+434483697+434462115+434522412+434926875+435402450
1900+435721650+436097633+436350840+436262017+436020336+435496123+435025355
1886+435214837+435547120+435872862+436518517+436843235+436601910+436737458
1873+437639968+438302266+437579581+436952216+438249355+440136033+441104404
1859+441134486+440929384+440942601+441361749+442633878+444680757+446116826
1846+446064227+445448877+445288142+445120687+444779059+444977975+445506683
1832+444629093+441840082+440020377+440176884+439932711+438908849+438243347
1819+437917917+436711559+434512444+432412921+430342679+428296423+426640034
1805+425840097+426086629+424989029+421605139+419112634+417657030+415348133
1792+412800582+411808359+412087910+412343697+411374392+409584947+408128542
1778+406956716+405505028+403134054+400238821+400352163+402667869+403241299
1765+402481190+401673777+401196734+401381900+401104396+400697396+401441263
1751+401863437+400390834+399433144+400153470+400457718+399261106+398054036
1738+398312226+398788157+398381825+399011860+400330047+400853014+401282219
1724+401960804+402339813+402097998+401140797+400707854+401907359+403300663
1711+404261824+404459539+403839116+403890247+404958698+404238951+401667325
1697+401640580+404103759+407349476+410283023+412422908+413196768+411906972
1684+411232525+415159096+418755564+419913372+419592169+419457600+420282324
1670+421490017+423916617+427264907+429658043+431211636+433605751+436529197
1657+438409245+437617362+434914994+437082113+440032125+441411990+444612672
1643+449235984+452541019+453852398+452721601+451168497+454424360+459148999
1630+462074625+463930197+466016682+467995654+470480638+473130140+473682655
1616+473635708+477122349+481527565+484302157+486199293+488632256+491556814
1603+494538956+497320312+499863414+502454843+505427862+509011514+512923399
1589+516582746+519879193+523364766+527253467+531040352+534010745+535575241
1576+537789931+542974569+547835379+551589467+556655245+562629941+567757085
1562+571218272+571955552+574256572+584278213+594507491+603724477+612168449
1549+619701500+626240727+631541288+633512161+633395882+643077006+656937107
1535+666474984+673846010+681338610+688181195+694287167+699590710+703043131
1522+706748980+713840277+723120276+733354227+743399452+752430338+759250628
1508+760677574+759951063+768814539+779359502+786201509+789538317+793850572
1495+801435021+808711350+814339211+819631184+826225324+832830055+838462455
1481+843924686+849387896+853530426+854740567+854126997+857676962+865990148
1468+873489690+877813782+881048329+885364322+888468928+889676577+895438206
1454+905301870+912909281+918113855+921836214+925999660+931564865+937375355
1441+942452124+945411126+946185786+949727118+956422274+962200101+967998843
1427+974966073+979855407+981986081+983803561+985551532+988507596+993745012
1414+997854879+999599379+1000746596+1001639272+1001992248+1003476688+1005898571
1400+1006197168+1003974023+1001120843+1000034325+1003430052+1007594833
1389+1007518826+1003574055+1000833461+1002191075+1006516413+1010290214
1377+1010568341+1009004779+1010058190+1013883612+1016135326+1015403296
1366+1013239426+1010305700+1009596455+1012440646+1014666193+1014510353
1354+1013516840+1013099428+1012862152+1012451593+1011701229+1010350735
1342+1008205554+1004851035+1002295651+1001924785+1002105011+1002130911
1331+1002212880+1002740564+1003397210+1004457385+1006419669+1007523098
1319+1007828014+1010075367+1013722788+1016570716+1018934482+1022954993
1308+1030323082+1038253565+1042044454+1042776128+1043875552+1045428789
1296+1047096571+1049626144+1051841724+1052405187+1052680732+1054009689
1285+1056455068+1059562344+1062093075+1063276070+1063880206+1064286137
1273+1063905660+1063027848+1061692839+1059642089+1057833864+1056785438
1261+1056424719+1056929708+1057581459+1057571847+1057631922+1058804148
1250+1061170940+1063434402+1063764416+1062543596+1061233952+1060853920
1238+1062155553+1064039606+1065154071+1065894021+1066737480+1066674200
1227+1065051542+1064036936+1065021371+1065917695+1065116156+1063725790
1215+1063494032+1065323973+1068599104+1071015914+1071303564+1070992863
1204+1071497496+1071696056+1070644337+1069856237+1069955562+1069870210
1192+1070283618+1071973115+1073320494+1073261309+1072812657+1073173287
1180+1073741823+1073287386+1072832949+1072682093+1071443651+1069988670
1169+1069211072+1068338955+1067816522+1067762499+1066680163+1065134669
1157+1064809372+1064720727+1063192855+1060854276+1059784578+1059914430
1146+1058922430+1056236304+1053204501+1051100439+1049793376+1047599869
1134+1043409634+1037926043+1033354173+1031165383+1029290675+1024962845
1123+1019938764+1016751654+1013449200+1008515009+1003528931+998982516+994545572
1109+990377498+985929250+980966935+977103688+975344147+973769194+971063132
1096+968242259+966006476+964623764+963620016+962084222+960489154+958768507
1082+955713741+952204182+950272336+949217234+947074546+944165385+941757297
1069+940067087+938887207+937608447+935768717+934002768+932874686+932622725
1055+932728191+931627610+929834516+928843495+927883446+926376756+925120780
1042+924406194+923842198+923172113+922555962+921892196+920996227+920725131
1028+921932157+922935638+921553638+919269616+918211667+918225373+919328001
1015+921186243+922261726+921954051+921506378+922541455+924679159+925991650
1001+925923031+925754197+926327805+927236946+927581823+926388237+924433072
988+923820126+924108309+923395148+922254517+921630890+920241146+917437985
974+914614977+912625992+910703402+908469132+906809183+905972400+904850459
961+902640575+900632634+900616614+901682039+901456067+899862512+899356366
947+900970569+903070537+905025256+907619889+910297293+912043929+913671749
934+916121133+918443691+920035733+921987693+924935125+928042579+930683670
920+933313993+935678381+936818478+937002353+936722981+935950545+935271026
907+935138237+935422060+936246561+937444597+937861031+936851409+935387794
893+934339546+933745200+933018867+931241793+929365394+929281734+930468378
880+931014485+930668896+930817972+932472314+935555471+938863800+940608211
866+941039241+942900153+947616114+953345436+957944361+961665475+965695509
853+969664488+971676168+971339746+970336353+970339201+973429123+979272810
839+983685991+984941611+985093535+985915811+987460861+989076933+990570540
826+991515726+992856519+996210505+999897353+1002548501+1005368840+1007662384
812+1009474168+1013084743+1017300788+1019534079+1020053842+1020688060
800+1022897676+1025434904+1025742935+1026980043+1035308893+1044924423
789+1046381718+1045376902+1047226778+1049498963+1051509841+1051779958
777+1051444070+1054002569+1057687547+1059749868+1060114770+1058730100
766+1055609384+1052414443+1051770346+1054029536+1057101123+1059507520
754+1060733146+1060338963+1057826388+1053814510+1051355959+1052636766
743+1055394003+1055423373+1052707699+1050841180+1050562697+1050621972
731+1050486157+1048505627+1045909659+1047323077+1050749242+1050052635
719+1045595754+1041494164+1039074150+1036715012+1035543765+1038144094
708+1041250658+1042038135+1042517225+1042942470+1041244339+1039451334
696+1042324806+1045693121+1043220508+1039359397+1037297966+1032586010
685+1026602769+1028147285+1036029085+1039613849+1038400238+1038822189
673+1041214346+1040649816+1034568319+1031283131+1038978563+1049999858
662+1055995380+1053626185+1047059101+1043370296+1046553578+1054399600
650+1060742135+1057199557+1045113816+1035490810+1029514067+1024719518
638+1026084875+1025725313+1008656164+998707682+1021162166+1046091754+1049928123
625+1039560894+1022013901+1006933380+999059324+1001431900+1004880405+999776935
611+999388092+1003889295+1003572898+1001070647+996262214+992493308+993437693
##END=
