##TITLE=Sample description
##JCAMP-DX=4.24
##DATA TYPE=INFRARED SPECTRUM
##DATE=24/8/2023
##SAMPLING PROCEDURE=Instrument type and / or accessory
##ORIGIN=Default
##XUNITS=1/CM
##YUNITS=ABSORBANCE
##RESOLUTION=4
##FIRSTX=4397.6552
##LASTX=599.8556
##DELTAX=-1.9287962
##MAXY=1.5284765
##MINY=0.59220445
##XFACTOR=1
##YFACTOR=1.4235046e-009
##NPOINTS=1970
##FIRSTY=0.84143537
##XYDATA=(X++(Y..Y))
4398+591101247+589050829+588082419+588135679+588555737+588736414+589137838
4384+589249175+588467932+589121508+590996107+590863666+588892721+587650260
4371+588145017+589393675+590227383+590745714+591048740+590391646+588170391
4357+585344089+584591486+585579032+585222661+584303283+584468048+584799212
4344+585013386+585221614+585953323+587761220+588837199+587586448+585306405
4330+583772391+583606537+584383551+584534248+583145822+581908009+582574733
4317+583288102+582311401+581769413+582407162+582680627+583008566+583656992
4303+583314063+582339623+582615767+584056951+584745826+584042631+583075854
4290+583136401+583726876+583437166+582911340+582910879+583010115+583342996
4276+583417821+582774294+582234357+582146259+582464568+583035992+583199166
4263+583012167+583017987+582651107+581386538+579904738+578805856+578460581
4249+579303250+580816998+581432011+580213166+578621494+579049298+580802929
4236+581215115+580380025+579528562+579177133+580219907+581590830+581393656
4222+580531056+580000792+579341103+579105490+579333566+578778765+578122927
4209+578418123+578726467+578456813+578273833+578389190+578544911+578820427
4195+578890144+578552783+578197417+578201814+578662278+578582051+577858465
4182+577440669+576880676+575925874+575338832+575682641+576452747+576505296
4168+576013344+575788996+575745323+575583489+575302990+574817068+574565335
4155+574873386+574862122+574382942+574140379+574563786+575854609+577068848
4141+577161971+576317208+575103345+574053788+573955850+575292648+576789814
4128+576672615+575235870+574098633+574005761+574457097+575143500+575837818
4114+575617698+574394122+572974627+572047754+572380341+573490110+574026027
4101+574157295+574241248+573945256+573429982+572255019+569988166+568334859
4087+569055807+571214045+572855669+573355534+572673988+571423404+570703084
4074+570358982+570306517+570709407+570645678+570028153+569881560+570573491
4060+571226816+570635377+569354185+568924749+569566601+570529777+571264291
4047+571794681+572430085+572709495+571876582+570445196+569366831+568704629
4033+568345369+568690811+569496633+569812849+569635145+569342796+569265082
4020+569835459+570266487+569721819+568880741+568481662+568366933+568471277
4006+569220991+570049466+569704987+568636755+568259616+568350687+567939548
3993+567229529+567007441+567894829+569186782+569187745+568577422+569372902
3979+570912569+571154587+569976735+568791220+568180813+567650842+566985709
3966+566441083+565806559+564968998+564980889+565926605+566543585+566679710
3952+566835683+566804363+566540529+566855195+567140509+565891516+564376889
3939+564158067+564311779+563355218+561014210+559816887+561714306+563925428
3925+563785493+563364137+564410512+564250855+561776737+560905009+563513661
3912+566440623+567420631+566932993+564381244+560027251+557625110+557505357
3898+558739569+561940288+565024436+564413820+562220829+563175086+563866849
3885+562204289+561433681+560249464+560028046+562243272+562853134+561812788
3871+560908861+560433281+562035504+562248213+559236084+558089384+560071761
3858+562869464+563156453+556460447+553128669+558397351+563222945+564352478
3844+562679994+560408158+557456995+553904720+554217042+557167912+558441274
3831+559117084+560508274+561102183+561465253+560597754+556321516+555214846
3817+556537449+556376117+558845923+563017899+564407246+561486230+559116917
3804+558905339+556650210+555679371+557308308+558145157+559450635+561437617
3790+562661194+563038710+562306749+561603011+562454138+562529675+561456878
3777+562011135+562812728+561918640+559786321+558721522+559083126+559195887
3763+559751358+559598945+557341429+556848933+558829509+558906972+554363509
3750+551346649+554201340+555710524+553791499+555187922+558362765+558180539
3736+553828974+550932663+552706350+556255861+558729059+558646781+557097191
3723+556054500+556173918+557786358+560224132+561902436+559984918+554700451
3709+553765120+556869157+559178594+559216027+558748906+559925921+561048252
3696+561044023+560654741+558924977+554878322+552689351+554730264+558053877
3682+560113297+560022938+558132763+553323875+549702387+550586132+549058148
3669+546729994+549336553+552934175+554182581+553233725+551164967+548292020
3655+546873447+547555705+545172407+536612521+532446448+535877211+539653499
3642+540390735+538461955+535741128+532930946+530479313+528709603+523497909
3628+515122845+514265898+516937400+516842811+512730041+507886484+506318889
3615+504951734+502349027+500526475+498208664+495703435+495134732+494267903
3601+491331814+488507270+487149327+485920684+484590125+483586710+481022358
3588+476271421+474163387+475069994+475642340+475564416+474991443+473191962
3574+471015761+470230540+469714303+465413320+458645839+457290324+459276720
3561+459579244+458623772+458501339+458602376+457296521+455491974+454543955
3547+453321300+451783601+451566957+452021433+451891128+451256897+450429134
3534+449925793+449625238+448418912+446675624+445285272+443667514+442397712
3520+442434391+442600706+441864349+440644792+439352378+438107364+437529115
3507+437915381+437834527+436596840+435936397+436007746+435355175+434130174
3493+432946878+431718780+430810749+430445920+430375199+430324911+429923277
3480+429541490+429386565+428521997+426800020+425669860+425946674+426373850
3466+425515311+423926068+422981944+422637674+422471025+422815462+423112961
3453+422616780+421443199+419660132+418155093+417881587+417923333+417707861
3439+417994808+418709936+418944334+418435341+417622861+417114831+417219929
3426+417723186+418266765+418531688+418182059+417288180+416505723+416335681
3412+416334007+416061338+416018628+416326637+416535284+416802175+417112068
3399+416827298+416480306+417188902+418380824+419146491+419535647+419610765
3385+419862121+420946558+422043682+422126671+421814224+421763978+422095477
3372+423157973+424372421+425125904+426220808+427792674+429030697+430264322
3358+431813577+433132873+434455853+435821877+436509788+437229606+438897107
3345+440490872+441161406+441520331+441993984+442468056+443068832+443710266
3331+443886127+443912925+444262303+444281606+443831945+443829223+444616496
3318+445423532+445691847+445706209+445255459+444492430+444375231+444839882
3304+445665300+446898633+447954010+448413804+448419750+448284881+448155790
3291+448255026+448915260+449795865+450422811+450952615+451702496+452617436
3277+453300448+453791478+454471894+455021880+455262433+455896078+456944170
3264+457769086+458548194+459413599+459692674+459292171+459053963+459231038
3250+459460244+459820760+460167458+460108419+460026309+460403573+460941081
3237+461322365+461913176+462862618+463697792+464148123+464405341+464592424
3223+464802327+465673009+466903243+466912120+466019581+465702737+465634738
3210+465254291+465016292+465223725+465801010+466072298+465695787+465740590
3196+466695643+467820360+468871802+469782722+470025494+469739552+469593754
3183+469632653+470059368+471123874+471917344+472008876+472309096+472875621
3169+472927751+472853555+473474764+474486470+475301964+475947375+476459299
3156+476662419+476684695+476706133+476778320+477051324+477522382+478159419
3142+479011593+479790617+479878882+479183644+478424969+478217578+478673227
3129+479532310+480347385+480408769+479366958+478515077+478971438+479985823
3115+480661466+480661424+480021163+479595117+479822690+479830185+479423066
3102+479562834+480348642+481065402+481337653+481133109+480663978+480495444
3088+481004186+481690925+481970712+481925030+481824872+481812353+481819973
3075+481922685+482561773+483383256+483192739+482079495+481517366+482065342
3061+482862957+483179968+483034799+482776743+482732024+482842733+482928444
3047+482936861+482965668+483138222+483066286+482752960+482870285+483238128
3034+483189138+483024205+483439196+483986251+483985539+483862310+484175679
3020+485109461+486378133+486957680+486494579+485999906+486056600+486192892
3007+486050738+485759687+485936302+486920582+488008703+488727432+489272142
2993+489618798+490083868+491136942+492243152+492941615+493669849+494580853
2980+495421889+496105320+496450092+496308105+496047537+495928412+495659176
2966+495165885+494799675+494794148+494902386+494619165+494064783+493954242
2953+494313837+494646005+495127405+495963710+496752741+497138631+497094373
2939+496838243+496544890+496259324+496108460+496206733+496365092+496242994
2926+495952111+495720686+495328641+494672845+494096815+493793664+493519278
2912+493340611+493709041+494266228+494310906+494168165+494320704+494676823
2899+495261897+496038744+496651244+496854573+496889913+497118198+497307081
2885+497265084+497422898+497841909+497787015+497128917+496835019+497192604
2872+497550147+497675343+497661442+497626814+497950273+498626628+498941880
2858+498814967+498860230+498841849+498190617+497051873+496020362+495782028
2845+496457880+497461044+498220932+498568929+498718034+499066868+499833665
2831+500663940+500845580+500350363+500055753+500589743+501718397+502691371
2818+503032374+503103640+503417218+504005683+504685765+505306346+505760738
2804+505989023+506156761+506362100+506449947+506586910+507032593+507560470
2791+507985343+508506605+509023260+509171486+509119147+509248153+509610637
2777+510100118+510511466+510750638+510944797+511036664+510893253+510827221
2764+511292291+512003650+512295831+512399925+512909378+513532304+513813306
2750+513962118+514207570+514485348+514888238+515529797+516060103+516054073
2737+515822271+515963546+516358104+516643209+517026754+517675054+518156663
2723+518212185+518194097+518451608+518912197+519276900+519584365+519997011
2710+520354721+520862542+521768563+522517147+522715158+522724370+522912667
2696+523346961+523813078+523860351+523593795+523816427+524608683+525147154
2683+525274151+525644423+526255122+526415198+526148391+526137463+526616266
2669+527110604+527173496+527155281+527357396+527410992+527396170+527824937
2656+528627367+529270894+529509396+529592595+529781771+529946327+529825109
2642+529771387+530284442+530924159+531251973+531737266+532486436+532849757
2629+532929355+533319516+533826960+534195557+534531453+534872331+535200898
2615+535404102+535608604+536183587+537092162+537815120+538115005+538410829
2602+538831515+539069598+539355749+539936678+540388349+540602313+540992516
2588+541562977+542087379+542577237+543038664+543465672+543985007+544455562
2575+544554547+544511921+544704364+545108217+545578521+546030568+546447779
2561+546619118+546583317+546780366+547126143+547453957+547941805+548431704
2548+548592911+548556733+548786065+549376331+550087356+550614270+550814710
2534+551102830+551572924+551712985+551641091+551982890+552726658+553325383
2521+553611744+553725844+553813189+554141003+554765269+555514061+556095325
2507+556231366+556205741+556450188+556846421+557083666+557180055+557297254
2494+557496270+557898826+558384538+558559688+558399109+558213659+558336218
2480+558748278+558984518+558986570+559102764+559192286+558943107+558602187
2467+558617387+558992139+559352822+559374596+559018728+558606165+558436375
2453+558406437+558397267+558335171+557999695+557420106+556949802+556858731
2440+557011354+557077343+556838298+556337469+556061409+556111655+556042985
2426+555896727+555794016+555539101+555211035+555028433+554858266+554433226
2413+553826336+553230124+552732143+552415509+552210003+551949644+551627650
2399+551221452+550635834+550106282+549709379+549096795+548491414+548251195
2386+547857098+546681590+544808960+542649131+540287103+537452510+534036863
2372+530239011+526227571+522327133+518898380+515927285+513837382+512919595
2359+512232521+511912872+513519785+517213502+521824378+525296468+525259872
2345+521494596+517261864+515282837+515291756+516162688+516824932+516879407
2332+517005692+517882780+519006451+519847278+520720346+521933329+523239602
2318+524450366+525789173+527174961+528406619+529539459+530548778+531511075
2305+532383515+532744910+532682731+532850720+533284512+533510033+533562540
2291+533805689+534338466+534996103+535488348+535608645+535515188+535507651
2278+535595079+535731874+535926536+536096158+536288810+536540669+536819702
2264+537159408+537482281+537741928+537912848+537947560+538089422+538589831
2251+539312077+539924200+540307285+540721229+541291271+541723555+541955818
2237+542261063+542639877+543070109+543677543+544284265+544810467+545431844
2224+546060674+546570337+547097210+547804047+548494805+548905944+549180455
2210+549452496+549828128+550511265+551395723+552157747+552688053+553230208
2197+553926745+554606868+555187922+555747245+556335250+556967598+557679292
2183+558397309+559152675+560064894+560888218+561577134+562388274+563162524
2170+563715483+564172262+564663334+565398309+566473283+567546456+568303707
2156+568731259+569002923+569412555+569935952+570240066+570283236+570484848
2143+571118536+571799705+572013461+571815994+571576571+571263621+570691486
2129+569998675+569374451+568897197+568247557+567083815+565825401+564781538
2116+563681106+562510791+561444401+560351380+558986528+557438990+556052365
2102+554947746+553986621+552875429+551472432+550053607+548741849+547374401
2089+545901645+544370395+543047457+542111539+541172356+539929560+538622198
2075+537464276+536343244+535075325+533728771+532480448+531297697+530156984
2062+529127818+528146470+527043400+525760449+524607176+523777319+522843956
2048+521570426+520288690+519134411+517901999+516554650+515345896+514406796
2035+513552026+512640729+511774109+511049560+510409090+509664024+508707003
2021+507678925+506655622+505649820+504755816+503881952+502993308+502159558
2008+501252197+500301373+499494964+498778078+498120189+497590930+496951925
1994+495887126+494608195+493638236+493012965+492555516+492219327+491768494
1981+491143558+490512718+489785489+488859747+487957368+487278502+486542480
1967+485641232+485170593+485153175+484893863+484253016+483494174+482728716
1954+482098839+481647294+481129299+480339346+479391746+478417851+477659637
1940+477552948+477759334+477670440+477211442+476557028+475899181+475355476
1927+474882786+474033920+472822109+472094001+471584589+470952954+470913134
1913+471072456+470613290+469901805+469706390+469890458+469844524+469491294
1900+469037488+468364148+467530524+467108498+466909356+466247238+465818094
1886+466181625+466484693+466410496+466253560+466129829+466040684+465925537
1873+465488522+463988215+461751090+461273710+462671306+463839821+464187357
1859+464087032+463872816+463732922+463644866+463528128+463151282+462298982
1846+460865251+459602399+460110513+461245698+461410463+461103501+460939950
1832+459935405+457713606+456553632+457053246+457639451+458364083+459061458
1819+459022266+458493048+458011816+457330647+456338244+455924174+456184030
1805+456317476+455789389+454362483+453059685+452871890+452670864+451180355
1792+449675693+450625805+452429473+452921550+452160196+451155567+450457188
1778+450151775+449440835+447298005+444421039+444190367+446291366+448016022
1765+448649082+447957653+447020354+447195587+447497608+447740841+447640726
1751+445629960+442695336+442166789+443237031+443702352+443158228+442618794
1738+442963273+442369364+439447385+438967284+441408701+443539345+444753459
1724+444906584+444428743+443275344+439671944+435667789+437073801+440659070
1711+442843018+442863284+440776437+438576620+438030361+436446395+433102935
1697+432460161+434827381+438243824+440285532+440138730+438923570+435949502
1684+431661792+432846470+436394264+438180388+437437206+435686087+434723037
1670+433746210+434197002+436425542+437180030+436056568+435991877+436866954
1657+436453220+432594067+425559402+425325171+426884727+426240697+428355012
1643+432879046+435644048+435953899+434040736+432670357+436818718+442304840
1630+445691470+447510212+449404992+451881707+455742786+459966558+462338132
1616+464830884+470468288+476127256+479975648+483172641+486967143+490838355
1603+494333391+497911249+501629712+504823020+507543428+510557609+514001938
1589+517821103+521769568+525269294+528246627+531014015+533277645+534346714
1576+536423847+541598652+545988278+548845230+553030229+558259551+562787982
1562+565763933+565047005+563611222+571519207+581201925+588884472+594522672
1549+599539411+603846173+605939049+605221995+604761657+614205749+626751910
1535+634817835+641057397+648045710+654286905+659035497+663171087+666764396
1522+670669357+676303621+682964915+691022172+699122222+704780521+707369284
1508+707294250+711438047+723187346+732789881+738647824+741682521+745446374
1495+752213185+758135443+760689369+762689332+769528498+778325754+785306196
1481+790720717+795269748+798382160+799360117+799326703+803393372+811682473
1468+818450457+822248058+826595938+832722781+836725135+837022927+841044877
1454+851702078+861862428+869611132+875403085+882130034+890138008+897345813
1441+903979388+910033543+915098183+921122692+928253369+934329715+939845566
1427+946117620+952050514+957435054+962154169+964769228+967254066+972364095
1414+977500085+980788945+983077488+985110529+986150121+986623188+988602801
1400+990525134+989516694+987330737+987832445+991875917+995323219+994770595
1387+991946094+991426465+993362364+995654341+998050661+999403119+998431862
1373+997945396+999663813+1001466811+1002782505+1003288567+1001779593+1000596716
1360+1002069848+1003973087+1005022812+1005580711+1006028404+1005339697
1348+1003024775+1001471417+1001793243+1001534057+998794304+996271028+996948597
1335+999237307+1000946345+1001961651+1003333538+1004848709+1006004035
1323+1007167567+1008126849+1008941841+1010521076+1012908269+1015677165
1312+1019292708+1023400830+1026697142+1029632939+1033259871+1036959743
1300+1040276740+1043293098+1045559533+1048319970+1051896823+1053776782
1288+1054888477+1057668929+1060632361+1061959277+1062289227+1063023406
1277+1064029501+1064113831+1063031111+1061594742+1060255013+1058589438
1265+1057186148+1056660322+1056112472+1055448219+1054840073+1054457282
1254+1055215495+1056223516+1056739209+1058496315+1061618022+1063250854
1242+1061341836+1057858860+1056319905+1057144192+1058974407+1061190177
1231+1062951805+1063171213+1061352304+1058504690+1057995194+1061388565
1219+1064527021+1064114333+1062693122+1062371965+1062684161+1063942575
1207+1065874957+1066905086+1067432335+1067758014+1066262689+1064547538
1196+1065236999+1067220380+1069058048+1069781424+1069004955+1068324287
1184+1068090475+1067779284+1068210312+1069070023+1068606252+1066985563
1173+1066111365+1066517186+1067522611+1067968963+1066884820+1065050837
1161+1064129909+1065124196+1066084567+1064509351+1062307315+1060811321
1150+1058237966+1055280815+1054120800+1054193238+1053800481+1052401211
1138+1049956570+1047107197+1044787752+1042448461+1039379763+1037123713
1126+1037215328+1037369416+1034036508+1028300663+1024006630+1021386212
1115+1017745630+1012506468+1007749585+1004261918+1001172536+999441558+998812141
1101+996047014+991574189+989124691+989049992+988192626+985321479+982648805
1088+981298273+980240676+979209793+978222960+976625217+974526521+972289899
1074+969994991+967364440+963748730+959933124+956796761+953525572+949815650
1061+947291286+946745110+945665991+942527870+939356085+936808356+933170035
1047+929259631+927977601+929202015+930447198+929523758+926537548+924207552
1034+922805685+920941220+918770755+916339848+915019380+916040549+917180717
1020+916367149+914528476+913305569+912415376+910646210+908813902+908289667
1007+908500534+908994537+909819997+909952060+909060610+908191939+908053594
993+908264377+908265633+908513765+909429835+910139813+909318289+907300154
980+905576629+904033068+902117184+900180364+898379711+897236695+896803574
966+895761972+893892984+892253035+890751262+889092387+888191809+888012179
953+887450763+887108000+888005145+889667537+891820248+894042382+895412510
939+896631146+898698271+901408127+904740450+908836261+913550687+918320299
926+922027289+923960425+924453423+925501976+928844933+932559628+934421330
912+935182559+935268145+934511941+933665713+933006819+932264600+931773360
899+931967394+931603361+929101607+926092702+925276622+926081816+926512676
885+926266303+925528187+924398487+923170807+922105841+922327761+923835898
872+924962416+925770457+927268126+929860407+933255202+936042940+938254522
858+941955902+946875750+949985147+950898789+951932268+954181367+957946979
845+962913137+967492149+970666866+973155890+976077702+980003514+982768474
831+981595479+980564177+983290029+986276658+988886859+993175532+997557077
818+1000383505+1002684190+1004847620+1005679110+1006472998+1009356623
806+1013321209+1016257591+1017798221+1019562027+1022312750+1024367230
795+1026008017+1030067986+1034741545+1035467685+1033443436+1032889389
783+1036130431+1042588982+1047567283+1048431433+1048472216+1049281848
772+1050037382+1050812847+1050354184+1049273893+1051027901+1053990244
760+1053670260+1052594826+1053773013+1053238646+1049802314+1047512515
748+1047197472+1047129054+1047850420+1050199677+1052329107+1052422900
737+1051740474+1052669022+1053588526+1051233156+1047699347+1046097082
725+1043826544+1038838948+1036418090+1038850253+1040209494+1038036685
714+1034259852+1030463674+1029663924+1032436169+1033418230+1031368774
702+1032089722+1034368300+1033374515+1031371036+1029810056+1027648971
691+1028107383+1032527282+1034977534+1033011487+1029942874+1026907422
679+1026296429+1031794108+1041447223+1047429693+1042322929+1027079934
667+1018426800+1027514395+1041286938+1050313820+1050402169+1046628770
656+1047448703+1052282127+1051985424+1041853044+1034450536+1037189535
644+1040042510+1044738176+1057506886+1064935103+1063728527+1062950466
633+1053567004+1038278871+1033426018+1042593086+1055720301+1056428939
621+1053231444+1055301249+1038203251+1003610394+985109859+996878336+1018005486
608+1025107606+1037404254+1062806594+1073741823+1061800165
##END=
