##TITLE=Sample description
##JCAMP-DX=4.24
##DATA TYPE=INFRARED SPECTRUM
##DATE=24/8/2023
##SAMPLING PROCEDURE=Instrument type and / or accessory
##ORIGIN=Default
##XUNITS=1/CM
##YUNITS=ABSORBANCE
##RESOLUTION=4
##FIRSTX=4397.6552
##LASTX=599.8556
##DELTAX=-1.9287962
##MAXY=1.508503
##MINY=0.54985631
##XFACTOR=1
##YFACTOR=1.4049029e-009
##NPOINTS=1970
##FIRSTY=0.77473223
##XYDATA=(X++(Y..Y))
4398+551448967+551306415+552434357+553420426+553676935+554400980+555331640
4384+555011111+553818384+553075926+552584885+551291099+549498382+548969370
4371+549836433+550097142+550165363+551599410+552663840+552161430+551727240
4357+551896903+551869368+551987016+553091751+553841421+552465795+550348093
4344+549372588+549325707+549355024+549695027+551278753+553129849+553146268
4330+551190931+549400038+549718531+550967769+550988304+549981191+549322695
4317+549752048+550493657+550666204+551024069+551615108+551273365+550488990
4303+550331886+550132695+549088418+548005659+547743890+547710967+547835912
4290+548891009+550026248+549936347+548939374+547990471+547351151+547078690
4276+547843803+549154899+549278487+548508664+548129629+547708888+547055101
4263+547035500+547451616+547336768+546527489+545902976+545955203+545742478
4249+545206253+545395220+546086384+547182889+548611760+548826945+547866586
4236+547269099+546833042+546149854+546081251+546930538+547431336+546696473
4222+545979385+546352057+547001602+546518962+544607578+543082060+543295761
4209+544428539+545615666+546377810+546266356+545270190+543810984+543291603
4195+544715552+546469068+546648276+545599968+544926538+546131653+547773885
4182+546838685+544584498+543496352+542686181+541545172+541043780+541481109
4168+542866026+544678854+545562336+545101461+544369864+544559170+544945078
4155+543980561+542778883+543003741+543356939+542415884+541246322+540885572
4141+541030246+541521159+542285594+542456020+541827773+541562440+541775970
4128+541718186+541203514+539955888+538802405+539030149+539916474+540714468
4114+541681572+542262853+542267775+542091664+541517468+541086757+541275724
4101+541393456+541268341+541361127+541439616+540559994+539161118+538561255
4087+538806224+539654111+540399029+540238743+539978374+540367507+541144839
4074+541514837+540531102+539017294+538756246+539345460+539199811+538405593
4060+537902589+537910819+538516410+539380122+539550676+538998032+538308183
4047+537517274+536887712+537283973+538665623+539938620+540553121+540407005
4033+539608630+538792859+538323371+537939457+537244983+536550509+536334051
4020+536505283+537349564+538736687+539348388+538402878+536892294+536714147
4006+537983580+538771604+538227064+537117280+536521150+536973031+537754182
3993+538329353+538712334+538460875+537964488+537805857+537531105+536805702
3979+535880600+535322441+535280567+535542463+536091246+536038680+534838274
3966+534007569+534276297+534751682+535335721+535980556+536194638+536101216
3952+535971010+535793754+535260966+534728051+534687067+534647611+534401836
3939+534265011+534464754+534691267+534420079+534336796+534775907+534278673
3925+532306577+531377911+532641150+533122008+531559537+530829552+532026692
3912+533613133+535056684+536117635+534888167+530918350+527955222+527041405
3898+527346237+529528384+532001533+531796869+530498544+531434125+531648250
3885+530297062+530342415+529869660+530093119+532184729+531935688+529708314
3871+527851787+526334415+527001482+527417937+526227119+527101438+529923457
3858+532426686+532109380+525819658+523154150+528366459+533488146+535420191
3844+534336712+531894916+528670994+525376050+525627468+528345373+529761431
3831+530428795+531535948+531960761+532502459+531874636+526959862+524453621
3817+524952001+525054205+527734903+531586944+532998463+530804309+529448878
3804+529834404+527160156+525777487+528281352+530314499+531671372+533238680
3790+534254108+534350161+534014782+534127211+534670903+533611691+531693392
3777+532491216+534641925+535466393+534299716+532562322+531843623+532128896
3763+533983387+535221637+532767622+530493580+531476552+531178847+525348389
3750+521488965+525487504+528263151+525560053+526150116+530201178+531342442
3736+526987524+522395867+522920212+526321899+529121517+529812937+529820446
3723+530371435+530802994+531867212+533893528+535132033+532660284+527624255
3709+527456757+531111305+534267684+535310604+535193635+536608633+539652710
3696+543125844+545544475+544964806+541129353+539496582+542416054+545744387
3682+546815266+545459538+542306934+535040010+528214022+527966253+527000124
3669+525599636+528096841+530441480+530385223+529613279+529124190+526742640
3655+523976157+523892662+521522439+513775166+511778167+516178736+519202449
3642+518706063+516417765+514520424+512638612+510592228+508998404+503875275
3628+495124623+493138696+494694888+494508977+491101986+485707244+482390154
3615+480370499+478395094+476914802+474479540+471963838+471271783+470420671
3601+467956305+465653158+464439473+462605177+460226766+459235139+458187553
3588+454544375+451740260+452099652+452431509+451028306+448694316+446294055
3574+444323614+443475685+442989439+440046632+435313187+434299626+435528330
3561+435387390+434364962+434133103+434046936+432724724+431375360+431107142
3547+430158577+428117030+426989385+427092947+427227947+426874156+426503224
3534+426111588+424926795+422933528+421260919+420482059+419749826+418817469
3520+418446876+418482938+418016166+416977616+415983146+415055243+414346048
3507+414037058+413088027+411623518+411235234+411492209+410980465+409774331
3493+408854320+408366843+407753700+406989944+406593726+406387620+405669557
3480+404671015+403954394+403390253+402812367+402422131+402244492+401831219
3466+400839889+399397569+398008791+397360689+397501077+397551182+397275879
3453+397317329+397530139+397210458+396300247+395671491+395564280+395038323
3439+394095274+393907962+394599297+394591448+393613101+393156044+393088246
3426+392797245+392709126+392704968+392538276+392619310+392951295+392752274
3412+392090468+392034296+392478073+392519015+392402640+392564835+392336624
3399+391583348+391383860+391993100+392547864+392891983+393477973+393979026
3385+394024847+394323951+395378199+396556755+397481731+398409718+399228755
3372+399775968+400107571+400330902+400954864+402146912+403369931+404394990
3358+405329808+406190762+407092276+408246692+409467802+410096685+410053877
3345+410148784+410810293+411768488+412683027+413199608+413349330+413643895
3331+414060265+414358648+415029745+416112334+416846519+417295557+417829830
3318+418014978+417785919+417914852+418288245+418202544+418378358+419336892
3304+420187961+420351854+420011256+420202683+421501051+422567221+422192683
3291+421158248+421153496+422352544+423378876+423612602+423781330+424831548
3277+426497411+427536725+427920936+428478247+428909933+428799964+429030975
3264+430311227+431817059+432619168+433047927+433666415+434096871+433590430
3250+432820777+433484831+435363292+436725088+437007858+436708244+436567559
3237+436865858+437159107+437484007+437722993+437236917+436653133+436788769
3223+437260718+437753074+438304020+438919157+439332557+439419573+439741121
3210+440389860+440797872+440705044+440430122+440411582+440536824+440830201
3196+441507620+442104089+442529751+443333133+444301001+445031919+445775947
3183+446524938+447029428+447294295+447383262+447414573+447512620+447873666
3169+448536533+449180817+449590017+449821664+450125647+450637816+450940781
3156+450514695+449749624+449505080+450034601+451289991+452730402+453394499
3142+453462465+453571713+453504467+453287160+453277954+453369849+453569676
3129+454110907+454856462+455135244+454834400+454927738+455395147+455375801
3115+455195914+455406984+455790813+456118216+456460001+456595426+456320759
3102+456330856+456964449+457394565+457304622+457252056+457402371+457672796
3088+458194383+458796750+459029712+458810284+458679781+458735571+458378216
3075+457839658+457801135+458263623+458984698+459671450+459763685+459298015
3061+459119952+459317319+459376885+459397038+459636321+459991513+460177764
3047+460101652+459877854+459609550+459480405+459635091+460025794+460386119
3034+460493203+460520313+460465414+460077299+459679554+459648582+459952566
3020+460535968+461064598+461313046+461554111+461864968+462067892+462099966
3007+462022581+462044431+462432800+463093460+463755266+464587498+465676408
2993+466514027+466857892+467234254+468028005+468961551+470026066+471442039
2980+472470407+472440539+471997058+471902108+472310460+473072010+473960287
2966+474422392+473568142+471621714+469941977+469409529+469822972+470511294
2953+471178106+471543438+471691038+472478213+473971063+475236254+475610919
2939+475077198+474172587+473465428+472930010+472534682+472525646+472481523
2926+471923067+471404068+471401183+471328676+470947265+471181500+472107960
2912+472716054+472816392+472838242+473143753+473721258+473964826+473718457
2899+473517145+473618926+473775351+473604373+473270480+473382060+473922909
2885+474457521+474927476+475337567+475498235+475270831+474790567+474490868
2872+474613268+474970072+475441936+475959068+476152235+475906205+475604470
2858+475408504+475230611+475125733+475044063+474827011+474711315+475007704
2845+475274140+475175796+475300953+475884313+476411077+476669664+476932537
2831+477438851+478137949+478796445+479291389+479711748+480054381+480156119
2818+480079964+480289380+481131412+482131991+482557271+482505765+482585060
2804+482871776+483028201+483264430+483961619+484551343+484391481+484140446
2791+484562374+485379035+486171811+486774686+487081809+487139933+487259023
2777+487837929+488648396+489043256+488990775+489060948+489478888+489926399
2764+490163392+490256857+490511583+490963507+491261678+491411145+491617039
2750+491865105+492228358+492852489+493523714+493720996+493431522+493412218
2737+494033761+494830313+495498567+496092109+496634401+496846446+496478993
2723+496416839+497351912+498305949+498679087+499156551+499987765+500578040
2710+500638540+500575282+500663062+500797129+501032382+501445740+501863256
2696+502191338+502450774+502719543+503195947+503830812+504242982+504253377
2683+504292154+504620151+504735253+504594865+504720828+505162951+505773506
2669+506481132+507123846+507385191+507242173+507238142+507544247+507856207
2656+508111952+508382588+508749914+509074304+508940365+508698112+509082747
2642+509714218+510042258+510273013+510660322+511305115+511933065+512159960
2629+512200052+512426481+512776242+513101693+513551877+514116018+514567305
2615+515070946+515783070+516218956+516118067+515961811+516002710+516110515
2602+516349077+516890011+517599673+518120709+518435554+518791127+519344789
2588+519933197+520180372+520149401+520102944+520021062+520097005+520699838
2575+521527276+521872964+521681834+521467625+521465164+521427998+521301144
2561+521403094+521785057+522172790+522380254+522413219+522373211+522475585
2548+522894204+523419950+523643578+523426653+523158010+523371881+523924863
2534+524350016+524721160+525141137+525370535+525415719+525525094+525798742
2521+526114648+526289783+526353464+526530763+526882137+527154131+527165926
2507+527144288+527371820+527707665+527942324+528172571+528405958+528542994
2494+528620931+528625216+528595518+528733530+528980959+529055630+528853384
2480+528573796+528634338+528866748+528692037+528354580+528283940+528309311
2467+528271849+528202439+527992684+527616237+527481152+527656499+527587514
2453+527154810+526774799+526611331+526463433+526395721+526659060+526870894
2440+526609803+526291522+526274509+526226186+525875067+525363280+524868761
2426+524353155+523783796+523491607+523591606+523648711+523513202+523266324
2413+522973032+522901162+522855088+522424801+521897317+521595327+521313830
2399+520901278+520586221+520460809+520229247+519895735+519811095+519825944
2386+519368760+518211883+516485223+514247242+511511264+508533583+505528241
2372+502182216+498328435+494562519+491329178+488683482+486912614+486135748
2359+486170707+487076676+489002527+492383638+496964900+500305197+500136596
2345+496957730+493800629+492382111+492102649+492228019+492348976+492813500
2332+493971904+495277781+496241364+497048480+497963273+498956130+500021027
2318+501351639+502914492+504399280+505575079+506594113+507813611+509099972
2305+509970854+510453961+510998458+511666289+512102727+512197634+512200943
2291+512365599+512797667+513317346+513556799+513477038+513440848+513619462
2278+513716533+513688108+513858237+514019456+513904354+513952890+514439433
2264+514919824+515098184+515248415+515526731+515825156+516127952+516370120
2251+516416789+516399988+516546019+516835705+517245542+517728776+518185960
2237+518643187+519071395+519437023+519651700+519730528+520034214+520599373
2224+521064958+521356171+521580521+521770208+522214113+523040405+523710314
2210+523989733+524215058+524582469+525091371+525635741+526183463+526675988
2197+526970553+527222777+527611867+528048390+528453857+528916429+529536530
2183+530153661+530547715+530802824+531171507+531751049+532433940+533096849
2170+533658741+534153643+534750833+535564610+536451359+537002136+537171204
2156+537404675+537770431+537914807+537906619+538249847+538816745+538849244
2143+538371992+538216033+538691164+539215679+539159718+538664096+538203687
2129+537771746+537247104+536716947+536131084+535426937+534615664+533771213
2116+533010385+532227749+531346133+530407412+529457236+528538794+527402197
2102+526032892+524891713+523980569+522921145+521762402+520795636+519933919
2089+518914418+517691017+516367448+515238572+514438457+513669907+512717609
2075+511663234+510757393+510156766+509525295+508399007+506971282+505919579
2062+505405502+504894521+504090969+503198323+502282893+501313625+500467011
2048+499865323+499381962+498718883+497662981+496411451+495467723+495000569
2035+494640031+494068720+493360585+492674342+492016736+491348652+490757485
2021+490324187+489788090+488920984+488088201+487599069+487228943+486737436
2008+486075376+485390320+484915147+484499795+483841808+483205415+482879837
1994+482365589+481350501+480590988+480448393+480304611+479946661+479603349
1981+479230720+478687028+478119324+477749368+477457391+476977763+476199328
1967+475300911+474739316+474577715+474467364+474227062+473785915+473255546
1954+472855849+472476219+472010253+471550438+470980612+470044394+469176609
1940+469218483+469677704+469679317+469327179+468999734+468639324+468080359
1927+467424366+466579576+465682262+465233606+464711127+463975839+463912455
1913+464072062+463540208+462724055+462536362+462827151+462981922+462831181
1900+462399326+461767176+461149535+460855734+460643052+460010860+459693936
1886+460205977+460553151+460328716+460065886+460111367+460283448+460289599
1873+459976664+458683005+456441079+455773673+457184725+458445589+458761282
1859+458640749+458546817+458559630+458438206+458075590+457521037+456718801
1846+455471769+454453965+455188277+456547272+456915701+456614093+456415539
1832+455611817+453600053+452456795+452899003+453383977+454172679+455091036
1819+455179665+454772585+454490324+453847950+452642155+452074833+452462693
1805+452809781+452442074+451288803+450338160+450318347+450293782+449136396
1792+447810154+448743912+450540066+451039761+450433067+449780638+449460278
1778+449516026+449301180+447691488+444875961+444374780+446620737+448790284
1765+449871430+449467787+448550873+448757615+449255190+449740969+449950682
1751+448290588+445546930+445036077+446195287+446996251+446943982+446753997
1738+447215764+446740294+444034989+443663209+446251756+448746585+450338457
1724+450824067+450669423+449691882+446205003+442459748+444057390+447688264
1711+449927517+450209227+448580147+446783144+446548952+445038198+441409064
1697+440971862+443931851+447652244+449877497+449814621+448465172+445322029
1684+441028459+442538491+446420909+448271539+447585253+446237331+445496486
1670+444128921+444318481+446877330+448016091+447237104+447647620+449105722
1657+449252008+445813664+439142785+439355552+441429386+441201176+443265760
1643+447790087+450882488+451568901+450011521+449265711+454005860+459795589
1630+463648819+466285478+469006607+472146144+476577514+481341379+484291440
1616+487113544+492852786+499024436+503656822+507364615+511411859+515479722
1603+519146107+522992463+527111111+530860184+534265054+538018242+542111392
1589+546119562+549940505+553613423+557200004+560774833+563797485+565511969
1576+568191903+573853081+578732896+582224061+587163740+593229069+598552111
1562+602362617+603310036+604695717+613684210+623869630+633229224+641650097
1549+649414680+655995191+660993205+664306350+667922714+680394565+694811274
1535+704759107+714231385+725621369+735626817+743706626+751249574+757952230
1522+765380119+775666852+787325903+800133854+812073680+820728958+825923364
1508+828480304+836597703+852675608+865359081+873995012+880403909+888401920
1495+899083642+907490726+912150138+917311535+926933621+936641576+943388864
1481+948216793+952369721+955346765+955996903+955016435+958048972+966724699
1468+974225391+976605584+976921659+979034397+979302361+973787384+971124038
1454+978403605+985783892+989936226+991276129+992424096+995103139+998461425
1441+1001939607+1003233011+1000382906+1000135985+1004629850+1007285983
1429+1008179393+1010618558+1012691076+1013812739+1015452341+1015384374
1418+1014015197+1016025943+1019712947+1021982153+1021825685+1020162070
1406+1018789923+1018930269+1018657129+1014950949+1010465145+1009077046
1395+1009589724+1011254611+1011656302+1008024453+1002639978+1001172117
1383+1004316999+1008347485+1009879749+1008499880+1006199109+1006433386
1371+1009656163+1011863766+1011184778+1008581678+1004998533+1002927542
1360+1003386169+1003800758+1002748165+1000635341+999420935+1000715272
1348+1003311245+1004556028+1003539837+1000764232+997516679+996227602+997722785
1335+1000312818+1002036678+1002144270+1001300838+1001083022+1002973108
1323+1005990542+1008582866+1011016516+1013778459+1016680409+1018812918
1312+1020264657+1022619394+1026100461+1029962260+1034375006+1038531667
1300+1040543601+1041252203+1043485007+1048034620+1052274691+1053454139
1288+1053432501+1055512317+1059161561+1061579598+1061666487+1061403615
1277+1062588238+1064344597+1065220527+1064724226+1062947757+1060766628
1265+1059394142+1059067799+1059092322+1058716002+1057948088+1057817161
1254+1058972171+1060244107+1060381908+1060043007+1060098161+1060639350
1242+1061573234+1062896676+1063847786+1063178895+1062254090+1062256974
1231+1061690076+1060895264+1061066751+1061460890+1061822446+1062886918
1219+1064814000+1066842140+1067818451+1067380783+1066472778+1066729541
1207+1068393411+1069287075+1068659932+1068093373+1067894055+1068206141
1196+1069797547+1071436894+1071404905+1070749251+1070807544+1070841400
1184+1070828163+1071411269+1072067517+1072649010+1072553636+1070167503
1173+1066912313+1066014236+1066874978+1066537096+1065459980+1066158061
1161+1067448325+1067496946+1067733090+1068071481+1066197517+1062544963
1150+1060330402+1060329299+1059926251+1057703374+1054796078+1052713887
1138+1051372965+1049659966+1046908969+1043722424+1042226817+1042320579
1126+1041120173+1037771306+1033714770+1030629963+1029349626+1028625836
1115+1026400838+1022736744+1019777859+1018459084+1016696022+1012168810
1103+1006360753+1002859406+1002574642+1003943734+1005887192+1007678594
1092+1007916690+1006856800+1006480734+1006717048+1006254942+1004710545
1080+1003177942+1003797449+1005413376+1004965950+1003004843+1002000191
1069+1003027074+1004412034+1003801861+1002435823+1003269158+1005177826
1057+1003826638+999528188+997135522+997962663+999257339+998985303+997494193
1043+996584321+996643972+996200449+995477168+995614883+995594349+994899663
1030+995513654+997135183+997130516+995797995+994106548+992424435+991930849
1016+991825887+991077829+990582376+990583309+990466722+990529937+991179227
1003+991437857+990538592+988758730+986984213+986185922+986161485+986438527
989+986270520+985227685+984678775+984608432+983642897+982379107+981428676
976+980187201+979322217+979336726+978253671+975579550+973293628+971861235
962+971163749+971083224+970376914+969089704+968175165+966976711+965135161
949+964008322+964193384+964773944+964771653+963987363+963451945+964186002
935+965828404+967284725+968472063+970798036+974006727+975758928+976021885
922+976652592+978021091+979283694+979669857+979655177+980524914+982060995
908+982963400+982602184+981846998+982553393+984123925+983675481+981519553
895+981021215+981987768+981057871+979152088+978917471+979280384+979470538
881+979992720+980629876+980762585+979436682+978002423+979131723+982410248
868+985141135+986134417+986964018+988983843+991780915+994932076+998666682
854+1002943495+1006342764+1007659672+1007777447+1008475697+1011039001
843+1014782941+1017506446+1018756831+1019596190+1020978519+1023258841
831+1024211987+1023505846+1025313286+1028623121+1029430321+1029834727
820+1031419260+1033057843+1035256028+1036550874+1035259422+1034374327
808+1035132483+1035350214+1036492835+1040033808+1043228499+1044979936
797+1046024892+1045684804+1044660043+1044440105+1043884832+1043028162
785+1044841627+1049531330+1054681443+1057363880+1055311217+1052754446
773+1054935236+1059156555+1060631628+1058789738+1056794266+1057312714
762+1059162834+1059937875+1057368377+1052850669+1051719417+1052635229
750+1050367380+1047504887+1048006025+1049125991+1048512763+1049223062
739+1052427256+1054094180+1052194336+1049493910+1048037335+1047919645
727+1049595139+1050825244+1048624004+1045767620+1044946843+1043102663
716+1039639669+1039420665+1041861952+1040495660+1035589667+1032753563
704+1033534459+1034588834+1032798280+1030517195+1032760690+1039189952
692+1044794279+1047275955+1047959271+1049520215+1049848848+1042337719
681+1033133701+1034423457+1042316676+1044437560+1039865546+1034000638
669+1026978682+1021901797+1024403923+1032961027+1044187076+1047411295
658+1037093505+1025757572+1028293639+1043521579+1056396902+1063944178
646+1073741823+1073303730+1050859948+1029607662+1025933471+1030448804
635+1041621056+1059331181+1069391613+1069217157+1067452144+1069526104
623+1073410220+1060893313+1024864671+992325328+980427758+975926087+977811166
609+1003597536+1044100102+1066792162+1069081987+1068397738+1062325705
##END=
