##TITLE=Sample description
##JCAMP-DX=4.24
##DATA TYPE=INFRARED SPECTRUM
##DATE=24/8/2023
##SAMPLING PROCEDURE=Instrument type and / or accessory
##ORIGIN=Default
##XUNITS=1/CM
##YUNITS=ABSORBANCE
##RESOLUTION=4
##FIRSTX=4397.6552
##LASTX=599.8556
##DELTAX=-1.9287962
##MAXY=1.3749523
##MINY=0.33720222
##XFACTOR=1
##YFACTOR=1.2805241e-009
##NPOINTS=1970
##FIRSTY=0.42117396
##XYDATA=(X++(Y..Y))
4398+328907476+329234027+329041368+328137331+327293433+326995462+327367466
4384+328019102+327810547+326599207+325587809+325655325+326213052+326143627
4371+325391845+324911596+325478632+326791632+327695879+327480366+326834898
4357+326776318+327253053+327188260+326041363+325297285+326027865+326822865
4344+326522567+325989882+326099663+326053931+325265959+324867749+325414211
4330+325958765+325787542+325052866+324349517+324041492+324009537+324163817
4317+324504984+324982301+325172888+324420687+323352060+323278376+324135331
4303+324917461+324890906+324257563+324004045+324383473+324553835+324287586
4290+324418337+324882295+324607155+323792837+323636811+324102073+324182739
4276+323735724+323351385+323187795+323229688+323300602+322804271+322077997
4263+322105459+322772037+323557821+324159209+323997737+323037914+322196506
4249+322106949+322358396+322438504+322331376+321952622+321568818+321961024
4236+323077874+323875691+323724576+323053460+322541652+322294091+322377201
4222+323090512+323716314+323235017+322170974+321468882+321638965+322490753
4209+322698842+322267979+322485307+322836667+322320460+321620881+321504839
4195+321551270+321511496+321797108+322258320+322471063+322576655+322741967
4182+322893897+323083157+323229641+323156399+322893548+322324324+321752493
4168+321877542+322341360+322326744+321909566+321803066+322264906+322486401
4155+322022047+321536398+321328286+321252391+321330684+321357937+321163836
4141+320956561+321091804+321593628+321742113+321081377+320312792+320132259
4128+320323801+320397112+320203500+319973255+319963526+320040725+320031578
4114+320093439+320221001+320278813+320335740+320254562+319873667+319561662
4101+319608279+319667138+319364954+318866831+318619899+318826288+319231225
4087+319449740+319341285+319201993+319365303+319466241+319204832+318804621
4074+318319158+318104343+318302471+318250268+317950505+317760663+317537749
4060+317580549+318061683+318348878+318250804+318129362+318208027+318446744
4047+318311292+317596189+317156738+317410466+317630517+317567144+317681347
4033+317878404+317841515+317605103+317410489+317574801+317904796+318021583
4020+317992979+317849940+317657654+317647856+317716234+317506609+316873522
4006+316241274+316132959+316528609+317140237+317468231+317241896+316790832
3993+316283306+315826353+315690715+315730466+315740962+315848463+316052106
3979+316357897+316770793+316899449+316633596+316216790+315722413+315268463
3966+314793497+314099643+313716817+314508908+315814740+316241855+315845949
3952+315283661+314633328+314351300+314899973+314966768+313905984+313791315
3939+314998118+315734469+315222498+313795993+312901335+313438907+313666104
3925+312383755+311577374+312304416+312655730+312105590+312296409+313515757
3912+314723094+315425420+315260736+313229096+309614903+307241770+307267837
3898+309215506+312110780+313596748+312137568+311099359+312576483+312583768
3885+310954690+310860293+310610498+311280869+313457410+313432530+311367563
3871+309392943+308526004+309757942+310285204+309957861+311544628+313715211
3858+314687486+312340606+304301392+302015442+308016663+313225163+314929065
3844+313748306+311621105+309238616+306997282+307513489+309856668+311499570
3831+312662013+313582947+313869887+314311572+313009627+308425602+307635302
3817+309727081+310900649+313624933+316727597+316849574+313277622+311225129
3804+311543534+309699642+309370833+311730048+313536074+315548141+317333221
3790+317704620+317230748+316517624+316440751+317281414+317027384+316151112
3777+317313858+319083321+319177509+317311600+316008748+316631850+317471303
3763+318361935+318334239+316419851+315781714+317318256+317212385+312641905
3750+309724847+312695667+314510467+313005321+314637587+318217127+318659929
3736+314393239+311043665+313215830+317604567+320949882+322111161+322328932
3723+323320152+325266867+328358476+332395457+336198027+338039312+341438389
3709+353440062+371048957+390956883+414598092+442628970+468658417+488380735
3696+502522759+511130522+513532211+509863651+504902757+502111376+498064620
3682+490917318+481556656+470572060+454710541+440493577+435476920+428634920
3669+420798395+419078713+418122962+415006450+411327463+407989526+403088166
3655+398397851+396885862+393311559+382960283+377488000+381036027+384951147
3642+385697506+384208908+382391361+380692905+379131670+377665414+373251379
3628+367020309+367110843+369932293+370783453+368147143+364123475+363185878
3615+363668640+363154016+362384570+361427353+361166107+362485949+362904314
3601+361223267+359460948+358276419+356700893+355730550+355992843+354841920
3588+350868313+348764246+349864083+350702931+349959551+348370458+346972789
3574+346098379+345491382+344194161+339978673+334300722+333156571+334837921
3561+335310397+334243678+332817104+331292641+329613222+328479336+327825652
3547+326229623+323894775+322894781+323172528+322982080+321459549+319276561
3534+317524739+316144828+314639403+313260120+312034699+310393193+309079891
3520+309080170+309274923+308420342+306873955+305391548+303856704+302051353
3507+300625616+299293998+297612462+296709076+296546883+295957318+294955439
3493+293833305+292297531+290496369+289050408+288306888+287858826+287061661
3480+286128485+285357759+284522379+283533882+282724987+282151946+280971186
3466+279064456+277273348+275981248+275353421+275046652+274493859+273681427
3453+272672496+271630935+270626403+269559521+268503112+267341553+266412986
3439+266145456+265899013+265391115+265179674+265307888+265226617+264725003
3426+264222364+263923206+263589161+263331407+263813937+265109156+266172291
3412+266588096+267091782+267669966+267787916+268008061+268849120+269635300
3399+269962037+270277603+270944180+271786426+272429171+272895829+273488280
3385+274279114+275039158+275692470+276408084+277250563+278281650+279623765
3372+281177181+282397552+282969359+283495643+284523496+285779196+286748702
3358+287284435+287825079+288864731+290009952+290630913+291029193+291616990
3345+292204414+292504130+292548699+292627829+292845832+293190746+293341349
3331+292869153+292132499+291580799+291282200+291286389+291063452+289995313
3318+288572649+287644407+287336638+287290626+287315180+287534160+287723002
3304+287564369+287543353+288340891+289919325+291700309+293307835+294784634
3291+296232574+297727642+299229530+300406077+301137657+301693802+301875638
3277+301566472+301459763+301798440+302047210+301807074+301278602+301089598
3264+301326080+301289820+300808663+300477783+300364534+300015501+299283758
3250+298729149+298843213+298869349+298252181+297654982+297333645+297025899
3237+297095673+297857742+298434855+298049585+297250768+296773102+296725112
3223+296769960+296530312+296106664+295814698+295619293+295367008+295148469
3210+295028843+294830343+294653441+294781143+294907891+294840700+295039060
3196+295659347+296390974+296924054+297115758+297143663+297258495+297424179
3183+297466560+297333040+297175431+297280651+297642415+297907943+297819503
3169+297424574+297161025+297408772+297780287+297711025+297368322+297077869
3156+296874295+296790603+296733234+296768168+297035813+297064882+296658503
3142+296462866+296693064+296854140+296687921+296400539+296271743+296336444
3129+296352293+296329555+296714569+297507312+298115286+298234959+298060780
3115+297871496+297840589+298112563+298438533+298366710+298122618+298080772
3102+298200421+298566886+299300026+300028301+300293480+300223217+300220471
3088+300548721+301060552+301215601+301011817+301177548+302134440+303245891
3075+303507741+302994373+302698893+302897881+302924018+302582990+302245617
3061+301948368+301605991+301188068+300726996+300356761+300051575+299835782
3047+299685389+299503413+299574397+299904207+300011172+299859196+299688252
3034+299514840+299407270+299485981+299714993+299947728+299933438+299784069
3020+300129681+300875923+301047123+300392253+299679175+299474135+299624389
3007+299918799+300423718+301084338+301802326+302708807+303983964+305604710
2993+307399891+309309461+311215307+312973483+314764149+316782337+318933742
2980+320700553+321433273+321247248+320767557+320181204+319384644+318561273
2966+317801368+316845850+315920774+315512323+315415878+315260271+315273095
2953+315836291+316865121+318016974+319015130+319738401+320255353+320640460
2939+320795532+320431743+319535596+318691372+318293371+318097920+317694333
2926+316812197+315658760+314668029+313857040+313181386+312520953+311611772
2912+310891340+310895785+311130592+310841232+310075695+309347536+308947767
2899+308921538+309018891+308917721+308735791+308713542+308917744+309306272
2885+309538286+309347839+308964128+308616259+308272671+307870086+307377362
2872+306933024+306684509+306448934+306096433+305817616+305683793+305510522
2858+305209781+304907714+304547975+303945423+303312755+302881962+302695541
2845+302898044+303230111+303291274+303247427+303290273+303363422+303594644
2831+304193845+304981794+305535704+305793086+306060801+306497529+306842978
2818+306948407+307191453+307715503+308138406+308324106+308513273+308789670
2804+309041629+309309810+309679324+310032500+310220852+310209448+310164274
2791+310441765+311077668+311656713+311967554+312205573+312560727+312912367
2777+312965314+312807170+312960753+313607710+314246708+314484843+314532996
2764+314655555+314936862+315363512+315817067+316230335+316502752+316635969
2750+316839240+317176939+317634963+318161829+318561994+318730169+318789958
2737+319009102+319412688+319819161+320381868+321225999+321938751+322257389
2723+322527828+322977309+323478389+323950399+324296430+324518436+324731296
2710+324887415+325048910+325315089+325492573+325580384+325809652+326072783
2696+326184239+326119586+325884337+325705759+325820800+326136273+326424981
2683+326638911+326799731+326775317+326620595+326602884+326714527+326772501
2669+326774317+326823587+326996044+327291990+327451437+327307630+327186212
2656+327294736+327405891+327422671+327512320+327663017+327712473+327679378
2642+327766235+328130605+328498420+328536565+328520251+328732529+329018118
2629+329219062+329322466+329441580+329640848+329843142+330052999+330261227
2615+330441388+330608282+330727280+330949216+331367861+331654358+331552559
2602+331250236+331021318+330853748+330688599+330600998+330581564+330539719
2588+330310800+329858269+329471161+329282203+329149334+329099645+329198535
2575+329231257+329047280+328819781+328619373+328320308+328017030+327917094
2561+327998202+328112987+328131792+327973043+327705607+327471499+327330484
2548+327240835+327076966+326854005+326787280+326920986+327112248+327285659
2534+327394999+327396977+327420762+327654475+328012189+328317655+328541709
2521+328732738+328937592+329052167+328984465+328771535+328586185+328747517
2507+329139094+329305732+329257975+329223367+329166673+329075418+328998033
2494+328859974+328695081+328625238+328666013+328675974+328523299+328369299
2480+328306344+328302503+328456667+328630870+328596146+328500934+328575130
2467+328711396+328796903+328951253+329118055+329156270+329170723+329258720
2453+329303289+329275919+329322513+329472324+329633307+329675526+329635379
2440+329712391+329848401+329863646+329802320+329839139+330032844+330283361
2426+330526103+330815300+331224030+331596034+331643955+331463073+331448341
2413+331756273+332224350+332637246+332890648+333023400+333188084+333458150
2399+333669334+333706874+333754026+333955831+334189125+334318247+334349084
2386+334255711+333832132+332843379+331307303+329372039+327049293+324363318
2372+321441489+318566951+316129351+314095361+312181694+310569537+309924278
2359+310554595+312128188+314470670+317807513+321849264+324795857+324756687
2345+322078253+319612631+318804784+318782581+319265437+320230427+321162858
2332+321761965+322337636+323239253+324329176+325365965+326410481+327739656
2318+329435343+331032186+332139402+333024517+334045946+335222074+336377140
2305+337253761+337792892+338189985+338565946+338970999+339412381+339793834
2291+340158624+340591558+340994074+341327584+341614220+341792659+341890221
2278+341949010+341923549+341847863+341808485+341872580+342016550+342078434
2264+342044851+342115858+342326530+342537761+342778688+343111244+343293755
2251+343156139+343044007+343269946+343609437+343796859+343882273+343977671
2237+344088663+344175566+344275037+344461830+344705388+344878659+344933282
2224+344977456+345074762+345203744+345412042+345688997+345847374+345817560
2210+345876838+346184095+346432494+346458653+346497008+346682544+347010538
2197+347469539+347883342+348041416+348067576+348266541+348626513+348934166
2183+349211354+349585615+349952383+350246258+350645166+351025968+351118084
2170+351214763+351589955+351956863+352205680+352546265+352969052+353403429
2156+353875184+354269810+354436797+354476944+354603296+354750059+354727298
2143+354647307+354655708+354577114+354257847+353819676+353445810+353161222
2129+352802739+352259768+351537636+350593359+349532598+348641571+347967639
2116+347243413+346305397+345285574+344329148+343467236+342661297+341774366
2102+340771253+339784944+338883397+338114370+337512632+336924394+336204404
2089+335415221+334594271+333724306+332974503+332386055+331704652+330935182
2075+330291972+329765082+329269938+328775748+328214250+327600946+327109316
2062+326720322+326287877+325900186+325546987+325117311+324699970+324316911
2048+323890656+323417854+322940933+322501575+322157266+321950807+321746582
2035+321435903+321140190+320860000+320461813+320026970+319672817+319376870
2021+319062701+318546610+317907961+317579199+317540332+317378023+317011325
2008+316620330+316244020+315845554+315411223+314908003+314488427+314254342
1994+313792874+312922537+312318729+312275370+312345912+312329318+312201500
1981+311887075+311393583+310904629+310719977+310760333+310534812+309856366
1967+309177267+309011816+309163792+309200960+309086058+308835146+308449806
1954+308090184+307821142+307585683+307248636+306635192+305677393+304934781
1940+305263636+306120917+306556551+306522688+306274522+306023657+305916017
1927+305783171+305209735+304457045+304241881+304205575+304263782+304929614
1913+305527767+305401206+305049403+305238966+305884853+306460129+306845911
1900+307100267+307042735+306677992+306596930+306856640+306882171+307079763
1886+307821793+308573854+309112543+309452872+309773326+310186640+310456916
1873+310314342+309225118+307536599+307611470+309560489+311260807+312029229
1859+312290731+312460232+312691966+312873267+312874431+312634783+312107289
1846+311136666+310513889+311699304+313375720+314134600+314504277+314948429
1832+314489428+312910808+312463025+313488969+314512283+315785717+317190368
1819+318011854+318332028+318462500+318218500+317792711+318129060+319202109
1805+320091554+320167472+319484068+319160450+319782295+320209388+319443060
1792+318875326+320738139+323315497+324714213+325101392+325151174+325333219
1778+326080277+326591526+325517709+323447016+323998482+327163729+330153541
1765+331776800+331877644+331911391+333026519+334387136+335812152+336491832
1751+335150206+333371503+334079227+336133908+337703871+338541928+339328899
1738+340525135+340641666+339157559+340380281+344212757+347812614+350307211
1724+351667805+352478818+352361799+349974004+348208334+351708976+356594347
1711+359954394+361314941+360915963+360710411+361880302+361907136+360486869
1697+361825027+366536778+372008711+375682625+377567712+378406955+377521304
1684+376948961+381973368+388254802+392566713+394904540+396865475+399040712
1670+401065044+405274156+410906863+414831526+417786567+422151053+426652247
1657+429095037+428609598+428783358+434764656+439602619+443988051+452857781
1643+462693410+470144199+475073347+478167005+483875864+494760244+504593219
1630+512001790+518410810+524658729+531115646+538962457+546368701+551342674
1616+556469462+564196415+571536608+577038937+581982422+587601119+593113921
1603+598216550+603701238+609419685+614355164+618731333+623585634+628958887
1589+634630881+640519224+646475155+652526506+658425137+662962499+665698349
1576+670716449+679695658+687171676+693015241+700286219+708350592+715449299
1562+720378960+721390288+723358949+735282726+748350815+759337506+768773156
1549+778507591+786962819+792203740+794919016+799631628+817044142+835921212
1535+848539843+860693562+874783081+886466395+895753466+904728299+912431374
1522+919650079+929796223+942200365+956051377+968889337+977606859+982158417
1508+983488081+989105195+1003243960+1014770597+1021640944+1024361155+1027360276
1495+1035012055+1041502113+1041536465+1039683612+1044910476+1051769279
1483+1054807034+1055236198+1055621235+1055363923+1051336857+1043374981
1472+1039529262+1043994895+1047937618+1045615571+1041612243+1041452494
1460+1039589494+1029279504+1020394414+1024731111+1030824309+1033455707
1449+1032896863+1032645323+1033828922+1034088468+1032482687+1028574968
1437+1022942866+1021760943+1025604427+1028511385+1029404716+1029910403
1425+1029402016+1029439813+1030914610+1028977693+1025542613+1027612002
1414+1030521101+1030650222+1029948851+1028895026+1026100247+1023996878
1402+1024288542+1022913634+1018808927+1014751047+1011630811+1011364003
1391+1012416432+1009655726+1003161944+1000565269+1003849724+1009066626
1379+1013151969+1013507868+1009452967+1005904684+1006464366+1007834060
1368+1008384618+1008663342+1007442599+1005746330+1006287580+1007552264
1356+1007438968+1006350232+1005426552+1004890051+1004486953+1003324207
1344+1001347074+999429707+997365345+996630739+999144560+1001942039+1002519129
1331+1002416074+1002984321+1003643148+1004396372+1005922558+1007112301
1319+1007061844+1008330065+1012114621+1016413708+1020672114+1025005925
1308+1028061368+1029474071+1031305419+1034884609+1039150834+1042812320
1296+1045379670+1047305695+1049611636+1052430248+1055315700+1057836969
1285+1059126695+1059339508+1059868283+1060569654+1060915964+1061575350
1273+1062145552+1062313401+1062407146+1061397261+1058958474+1056392334
1261+1055043586+1055656518+1057127685+1057961715+1058761766+1060374808
1250+1062282959+1063771162+1064684694+1065362606+1065930946+1066431327
1238+1067148058+1067476029+1066843361+1066288799+1066697669+1067473981
1227+1067722915+1066768420+1065309822+1065261040+1066028229+1066180903
1215+1066982071+1068766128+1069379525+1068490848+1067957791+1067959653
1204+1067726638+1067376511+1066568175+1065488190+1065235998+1065279659
1192+1064465923+1063600986+1063676485+1064289789+1064771086+1064157037
1180+1061954709+1059208804+1056950992+1055655215+1055582229+1055754919
1169+1054980655+1053284386+1050796539+1047866401+1045447815+1044043769
1157+1043203874+1042423466+1042032563+1042141577+1042079297+1040896070
1146+1038443319+1036137284+1034890660+1034222524+1033547591+1031761487
1134+1028454318+1025888737+1024720312+1022574865+1019443643+1016985958
1123+1015860357+1016402351+1016946207+1015026606+1011827798+1009771907
1111+1008555167+1007641634+1007086421+1006256952+1005531749+1006483915
1099+1009423735+1012423694+1013835001+1014293489+1015806083+1019077597
1088+1022799873+1026209911+1028876686+1030265744+1030850003+1031671093
1076+1033809931+1037348625+1041261837+1044884409+1048269591+1050410943
1065+1050548257+1050204646+1049713016+1049103808+1050360299+1053541326
1053+1056198047+1056911148+1057364423+1059599986+1062125909+1062623497
1042+1061760608+1061948285+1063794435+1064748185+1063668106+1063233357
1030+1064116820+1063667734+1062281562+1062512808+1063577805+1064077814
1018+1064271543+1064545519+1065987547+1068389376+1069626131+1068855498
1007+1066855184+1064595976+1063068487+1062776358+1062507409+1061910675
995+1062353990+1063375139+1064120544+1064607985+1064110769+1062078896
984+1059564331+1058929615+1060107442+1060844654+1061403219+1062371212
972+1062125071+1059968080+1057460031+1056277642+1056168629+1055607178
961+1054061350+1052355028+1050801379+1049317273+1048855805+1049204070
949+1048618881+1047266595+1046520352+1046784088+1047584512+1047817712
937+1046965156+1045915799+1045743575+1046572578+1047684681+1048085730
926+1048158437+1049162830+1049681457+1048968449+1049779578+1051282955
914+1049715902+1045999491+1043678095+1043886812+1045016510+1044862998
903+1043437819+1042725556+1043198102+1043351428+1042693066+1041869462
891+1041010948+1040065950+1039407681+1039606809+1040428738+1040453128
880+1039527121+1039484670+1040721705+1041999329+1043075590+1043685729
868+1042847789+1041948406+1043299202+1045310408+1046867687+1050274094
856+1053711223+1054316149+1055157813+1057712316+1059844823+1061118444
845+1061297837+1060576450+1061017716+1063761945+1067358823+1069374125
833+1068867507+1066250817+1061830707+1057848606+1059192140+1065919402
822+1071273897+1071784426+1069981099+1068616991+1067840493+1067007952
810+1067612970+1069711778+1071145707+1071546943+1071104466+1070932056
799+1072441577+1073741823+1072799710+1070606226+1068343015+1066266922
787+1064741575+1062971576+1059771000+1057307449+1057419907+1058074266
775+1059229843+1061342056+1060904048+1057381832+1054862239+1055206780
764+1056174308+1055815430+1055978251+1057386207+1056498461+1053010224
752+1051934056+1053549332+1052985554+1050588659+1049974424+1051282955
741+1053327675+1055295871+1055615557+1053440040+1050464193+1048888295
729+1050228013+1054343425+1056876424+1054422183+1050561569+1049725770
718+1050637348+1050479088+1049330492+1047565893+1045368126+1045043600
706+1047181042+1047789877+1045253807+1042725835+1043436609+1047141197
694+1047937245+1044872959+1045067339+1047783826+1047027902+1045541002
683+1047776192+1050672816+1051839658+1053040666+1053709268+1053253758
671+1049864294+1042066357+1042542254+1054537992+1059282721+1054296971
660+1049304798+1047927098+1048681719+1050538016+1050298764+1045593600
648+1039066770+1034625621+1031012638+1028996871+1032929353+1037472719
637+1035041380+1031666159+1036456411+1046275980+1048038439+1035384990
625+1020844803+1022312246+1036976155+1040413656+1025937983+1018424449
613+1030001263+1048632193+1056906028+1041875234+1017616857+1014514867
602+1033596186+1041764359
##END=
