##TITLE=Sample description
##JCAMP-DX=4.24
##DATA TYPE=INFRARED SPECTRUM
##DATE=24/8/2023
##SAMPLING PROCEDURE=Instrument type and / or accessory
##ORIGIN=Default
##XUNITS=1/CM
##YUNITS=ABSORBANCE
##RESOLUTION=4
##FIRSTX=4397.6552
##LASTX=599.8556
##DELTAX=-1.9287962
##MAXY=1.4175533
##MINY=0.46410942
##XFACTOR=1
##YFACTOR=1.3201994e-009
##NPOINTS=1970
##FIRSTY=0.63695908
##XYDATA=(X++(Y..Y))
4398+482471874+481526967+481266913+481256032+480636192+479983394+480251168
4384+480699264+479780453+478457249+478581858+479416152+479131041+477788920
4371+476638905+476010306+475847637+476320565+476930653+476768977+476383682
4357+476935122+477542230+477227999+476750557+476325306+475716076+475803482
4344+476922797+478079404+478592784+478001298+476245664+474706200+474712160
4330+475811022+476433435+475877842+475101789+474965170+474609628+473513655
4317+472866681+472980861+473246875+473736913+474074983+473621289+473034813
4303+472968897+472854446+472836116+473397670+473178565+471689081+471175881
4290+472517279+473460516+472645320+471516343+471277916+471809762+472814580
4276+473364215+472871512+472243952+472158938+472217721+472330908+473009982
4263+473479749+472406757+470546786+469533479+469631767+469764232+469499934
4249+469802878+470648234+471167258+471325276+471188793+470778893+470448137
4236+470439649+470426511+470070833+469809199+469673574+468999331+468237184
4222+468189552+468083815+467650031+467976407+468491368+468486898+468769075
4209+469033688+468842711+468424413+467571925+466771176+466727021+467251011
4195+467939792+468619950+468775892+467937670+467046580+467028430+467157690
4182+466908788+466851404+466814112+466366829+466178199+466356580+466544306
4168+466973440+466915108+465702653+464891069+465706446+466833616+466961566
4155+466357799+465618407+465208325+465367969+465742609+465537862+464771742
4141+464175244+463685747+463214354+462994573+463209072+464063863+464837478
4128+464856169+464342337+463693016+463591207+464072080+464150232+463613555
4114+463458516+463672519+463164962+461990702+460741813+460004271+460345502
4101+460982543+460898522+460486138+460435392+460433721+460160890+460199221
4087+460778879+461157582+460801408+460319045+460621222+461509558+461957157
4074+461703199+461337498+460739736+459716316+459330525+460214436+461018120
4060+460392140+459207947+458544855+458080145+458023800+458792764+459437977
4047+459162438+458529505+458485214+458995615+459275128+459220227+458844730
4033+458086240+457576155+457405450+457193389+456796446+456263877+456197193
4020+456744119+457413486+457823071+457735077+457332851+456888729+456559282
4006+456493411+456285007+455579385+455061987+455148400+455346014+455662548
3993+456278505+456875816+457183727+457102415+456819065+456433048+455663406
3979+455014355+455304884+455819303+455631125+455091559+454729019+454897647
3966+455647830+456376748+456261033+455224024+453908269+452791122+452585923
3952+453705960+454704413+454088275+453225583+453133977+452828685+452541362
3939+452967651+453835039+454692223+454587298+453281070+452411561+452450614
3925+452172140+452145457+453415070+453783299+452052632+450994133+451401866
3912+451687293+452105411+453147070+453150095+451198248+449336967+448264788
3898+448066135+449648264+451604446+451427375+450766947+452117194+452010870
3885+449864208+449519231+449067162+448615996+450044485+450971288+450836520
3871+449309156+446287115+445399185+445717661+446220115+448135844+450257133
3858+451789328+450982845+443525760+439249773+443746761+448213544+449923443
3844+449838474+448883002+446719906+443791457+442787813+443365890+444061263
3831+445428803+446921764+447602915+448173543+446838555+442550830+442152306
3817+443548921+443477226+446145621+449959606+450930654+448239234+446453667
3804+446259168+442991747+441234443+443463591+445478917+447248230+449164546
3790+450350184+450505268+449846239+449557020+450169907+449764250+448514999
3777+448980116+450365669+450761845+448924132+446622792+446827133+448429443
3763+450049722+449950667+447337985+446587712+448988649+450058616+445846062
3750+441486641+443328282+445739196+445506909+447554967+451560336+453191225
3736+450176950+446086251+446416420+450151261+453789258+455211337+454635968
3723+453280483+452184691+452833426+454819586+456168073+454917061+452261262
3709+453349921+457225760+461209774+464715081+468554937+473722376+479406220
3696+484643503+488917865+491647526+492307683+492786886+494662162+496117109
3682+496038731+494735167+492567421+487394203+482060980+481638076+480117214
3669+477433423+478579917+480720800+481547464+481779345+482030505+481540692
3655+482150825+485453462+487121553+481928786+476875436+478376434+481036883
3642+480882250+478335620+475971118+474122795+471975636+470012547+465618677
3628+457888491+455762913+457673901+458337535+455178875+449838022+447359746
3615+446260433+444415270+443028001+441144779+438522345+437567957+437367002
3601+435898872+433998674+432712041+431170816+429652075+429312245+428381650
3588+424372985+420547351+419766016+419873830+419408713+418491662+417385351
3574+416389471+416475750+417450183+416264004+411658164+409235963+409773587
3561+409584100+408213897+407704716+408087302+407547510+406405486+406175546
3547+406192747+405468434+404124598+403014990+403058016+403488324+403160413
3534+402740173+402251263+400961785+400092411+400527053+400302124+398583241
3520+397545826+398051260+398598998+398414207+398113068+397857123+397443565
3507+397420269+397463069+396601370+395585490+395121683+394685957+393947468
3493+393179000+392998046+393216112+392928563+392215628+391676784+391325801
3480+390972246+390498370+389839116+389043514+388290442+387674891+387081644
3466+386508036+386057953+385605026+385081262+384726352+384562599+384469594
3453+384638764+385044060+384979859+384077165+383089006+382330516+381505162
3439+380817735+380373071+380046062+379837161+379847500+379993013+379929805
3426+379706909+379555211+379227976+378487636+378224241+379357823+380653983
3412+380347426+379218902+378931804+379109598+379075917+379224094+379246893
3399+378835187+378542423+378110558+377244209+376929729+377308545+377564964
3385+377846531+378430388+379120208+379678149+379863754+379697924+379347845
3372+379472725+380636510+381823412+381987029+381891811+382252184+382721545
3358+383311542+384078655+384724546+385447369+386391960+387052975+387028775
3345+386614947+386555441+387397591+388707973+389448539+389669178+390149329
3331+390977799+392060589+393196563+393828864+393973654+394185760+394688486
3318+395142315+395325843+396034805+397476794+398355740+398831782+399996245
3304+401029010+401422703+401988275+402666581+403303216+404080939+404475625
3291+404390792+404529306+405122012+405837295+406786807+408203062+409214698
3277+409336508+409564325+410311528+410810010+410872224+411032229+410911864
3264+410027366+409412041+409994859+411132323+412012803+412698153+412976402
3250+412583883+412161025+412092942+412192087+412349203+412528351+412715716
3237+412889356+413275418+413910563+413970430+413018299+412283196+412873148
3223+413833270+413940226+413575564+413456598+413613624+413940858+414412882
3210+414752758+414429091+413545811+413191082+413787444+414122986+413627394
3196+413272077+413442060+413809386+414111428+414311976+414462636+414247053
3183+413859275+413780221+414030613+414668918+415567729+416441798+416933101
3169+416796031+416505547+416489791+416508708+416545233+416901362+417323136
3156+417405126+417416999+417599263+417606532+417475963+417413704+417342821
3142+417630189+417997109+417690372+417333340+417933450+419196787+419710709
3129+418810635+417960449+418699254+419610842+418786525+417612356+418155308
3115+419715179+419913831+418503220+417704684+418692707+420161514+419963855
3102+418229622+417292210+418418342+420136728+420087155+418632164+418077924
3088+419529936+421095902+420374885+418791627+418592027+419549891+420194653
3075+419592466+418706116+419017955+420358270+420860499+419807597+418740700
3061+418690495+419355303+419743893+419370788+418936553+418920977+419013079
3047+418849191+418720790+418937411+419241484+419394627+419328846+419083375
3034+418745260+418507329+418564757+418716636+418770949+418812937+419747279
3020+423827865+430788501+435179165+433531345+429039008+425454555+423581717
3007+422886976+422444208+421732808+421275772+421462370+421644633+421445123
2993+421365753+421980175+422960568+423218229+422917993+423133486+424017307
2980+424951514+425019191+424125347+423263558+423233895+423921367+424291221
2966+423892608+423372546+423322476+424166928+425049260+424458270+423188296
2953+422579607+422773338+423818881+424613128+424021145+422957137+422762322
2939+423470111+423599822+422696406+422171964+422330073+422768146+423186038
2926+422883545+422188759+421708428+421456817+421656281+421727299+420991113
2912+420321113+420440982+420979780+421344939+421165295+420835938+420936483
2899+421495960+422191107+422430122+422131918+421862654+421906493+422103790
2885+422122075+421934936+421708789+421513929+421761070+422557981+423045176
2872+422795145+422561368+422708460+422819661+422826207+422670762+422159323
2858+421735155+421868072+422152686+422023697+421533885+420927228+420558051
2845+420662163+420947319+421185747+421363585+421579800+421955343+422462764
2831+423043957+423467537+423673684+423849582+423957260+423954371+423833057
2818+423622757+423601808+423919065+424337634+424744961+425170257+425266107
2804+424806227+424306572+424419262+424920046+425143529+425205969+425471260
2791+425795831+425983873+426007215+426061979+426374315+426687192+426678253
2777+426585608+426695319+426949322+427174296+427185583+427065083+427084677
2764+427260033+427578914+428059020+428358940+428383501+428600302+429010113
2750+429210255+429227547+429338114+429676997+430025270+430076062+429980393
2737+430052630+430310020+430614319+430854778+431046117+431274973+431587489
2723+432005652+432310899+432400789+432680888+433201492+433529268+433524121
2710+433300051+433071781+433108442+433427369+433839933+434179403+434369838
2696+434580996+434923129+435240521+435597689+436027409+436277846+436358797
2683+436528238+436912314+437347633+437603985+437755457+437956457+438224999
2669+438583972+438983263+439336277+439663917+439980045+440286466+440591081
2656+440855379+441073083+441339142+441747237+442224814+442681759+443080283
2642+443373204+443703193+444210343+444757313+445260987+445768272+446040380
2629+445969362+446040245+446456918+447049352+447847257+448644710+449146487
2615+449456113+449790571+450274199+450890563+451488460+452080850+452797126
2602+453397191+453677471+453985337+454561880+455212827+455720112+456103691
2588+456474674+456815769+457242916+457924925+458651134+459210882+459685976
2575+460082829+460383787+460688628+461024621+461382737+461785097+462271434
2561+462941027+463774012+464447126+464793594+465024437+465193110+465372936
2548+465756018+466182624+466537353+466845264+467039447+467324332+467886924
2534+468620492+469423363+470002795+470122121+470113318+470247588+470472743
2521+470880070+471422887+471794592+471996314+472331991+472820585+473225023
2507+473480878+473590904+473628377+473740931+473883826+474133721+474637259
2494+475209287+475556567+475490921+475233035+475254661+475627314+476121281
2480+476500074+476698275+476824780+476861802+476655023+476284221+476221239
2467+476585088+476842794+476773402+476711910+476734393+476545222+476254558
2453+476208191+476237312+476119114+476030217+476135864+476246025+476020013
2440+475623973+475499500+475498867+475284549+474896003+474355760+473723414
2426+473320286+473244211+473262360+473135313+472769974+472348154+471951256
2413+471518104+471286042+471179177+470856412+470578073+470507326+470223389
2399+469562509+468878830+468624013+469035630+470093272+471883534+474815233
2386+479107790+484362771+489723399+494216053+497209695+498746631+499261817
2372+499314099+499492299+499884501+500413729+501238541+502357630+503738488
2359+504726647+504405418+502970743+501466901+500444339+499792896+499701516
2345+499464262+496948739+492712121+489493685+487758730+487108234+488145830
2332+490265584+491301510+491117079+491822249+494108103+496288356+496740922
2318+495544223+494245444+494745732+496682906+497656347+496620150+494238130
2305+491338757+488585980+486324461+484284484+482015109+479574803+477189262
2291+474870856+472819592+471205001+469695832+468102732+466743726+465873675
2278+465326614+464722801+464074699+463623217+463292190+462951411+462638715
2264+462476813+462442455+462462230+462709913+463174443+463581274+463832208
2251+463908102+463886431+464035555+464451506+464965157+465382868+465713173
2237+466126595+466608191+467045361+467463659+467897669+468279849+468686183
2224+469327152+469915794+470165328+470530442+471266764+472122774+472969168
2210+473605983+473935611+474368356+475064271+475704743+476279029+476971151
2197+477717180+478453231+479172578+479824202+480643416+481806434+482854369
2183+483500305+484041045+484613299+485188126+485937270+486888859+487819815
2170+488684990+489530842+490381299+491246881+491895976+492252376+492700563
2156+493439955+494048372+494154290+494067696+494143771+494155328+493772968
2143+493270694+493044186+492680246+491769200+490766820+489940020+488898180
2129+487454701+485843858+484303266+482777301+481043294+479162645+477370893
2116+475672507+473954934+472185214+470369353+468565953+466845354+465133470
2102+463429847+461866319+460327352+458729737+457240072+455777044+454120285
2089+452364832+450747262+449315838+447999361+446772594+445580591+444344568
2075+443073872+441793920+440493742+439195776+438022599+436968072+435748077
2062+434314215+432958911+431838016+430884486+429987030+429085420+428153922
2048+427285361+426632879+426184151+425726844+425043481+424328965+423924798
2035+423736034+423572958+423486951+423543657+423743393+424026653+424208510
2021+424203228+424070447+423758066+423335659+423007883+422662274+422053676
2008+421161638+420070405+418847927+417568878+416302471+415137421+414139645
1994+413135865+411825754+410352704+409028281+407787563+406580525+405424821
1981+404332641+403344030+402405534+401456519+400472288+399515958+398571638
1967+397486411+396455226+395713034+395021183+394242602+393530073+392880209
1954+392194543+391465761+390707768+389957585+389323659+388676188+387826725
1940+387199029+386964936+386732422+386293130+385711757+385223840+384871548
1927+384514697+384011249+383350279+382849856+382448173+382149698+382309568
1913+382427134+382015156+381541777+381534057+381839394+382118546+382247670
1900+382268393+382212318+382040033+381891540+381700518+381139777+380829654
1886+381336533+381934205+382261936+382566100+382763127+382749311+382769899
1873+382876088+382424560+381201360+381043567+382661137+384299385+384951957
1859+384921166+384717909+384651541+384979543+385754376+386565058+386779421
1846+386050323+385175396+385642319+386704159+387259573+387603196+388002171
1832+387501883+385648368+384533840+384920940+385174989+385201898+385350706
1819+385239055+384534833+383460486+382265187+380814394+379654582+379064359
1805+378612087+377936399+376219299+373932565+372782956+372147969+370456423
1792+368375023+368083794+368768919+368723229+367654322+366267820+365133923
1778+364383063+363406327+361133701+358048565+357773974+359928153+361286099
1765+361449287+360720166+359910816+360036735+360154030+360157506+360216492
1751+359056003+357031038+356704977+357669727+357986419+357143231+356349932
1738+356610324+356289884+354296681+354283069+356282954+357804788+358662536
1724+358926901+358764684+357890637+355068445+352310385+353835289+356738793
1711+358462913+358620706+357304523+356034549+355954907+354647596+351772038
1697+351544943+353890889+356819925+358756196+359320797+358989748+356873561
1684+353839578+355527941+358717527+360157281+359783137+358958821+358640571
1670+358178434+359083859+361553308+362816217+362737433+363753381+365474769
1657+365867739+363260453+358566303+359698913+361991246+362555576+365240879
1643+369565897+372309600+373013122+371965615+371468353+375406993+380366840
1630+383935310+386587903+389044914+391708162+395689015+399897054+402378761
1616+404894601+410007184+415375894+419480995+422896096+426529173+430366952
1603+434366136+438560179+442616249+446295558+449951389+454136132+458716148
1589+463324381+467862453+472419850+476983250+481285288+484767164+487199930
1576+491129585+497705016+503211338+507688912+513613983+520396148+526489351
1562+530870985+532562372+536090931+546386801+556699194+566382990+575512139
1549+583594211+589867736+594496286+596921603+598851824+610098109+623756798
1535+633035569+641428441+650907083+659058638+665605219+671728988+677335674
1522+683791462+692522585+702154866+712793591+723128469+731455515+736922332
1508+738335335+742204131+754720660+765583230+772483503+776974757+782871836
1495+791173419+798105024+802437627+806866938+814623672+822810668+829201850
1481+834661623+839843193+843730184+845274072+846324310+851414048+859810804
1468+866943499+870984625+874373992+879820402+884596992+885436298+887863466
1454+897772415+908228561+915932742+921290210+927061687+933593821+939786711
1441+945460758+949397050+951948556+956745644+963379452+969083297+974702624
1427+981246316+986397366+989369383+991670858+994073646+997414072+1001661796
1414+1005465082+1008055325+1009497540+1009953266+1009185566+1008987726
1402+1010822821+1010950951+1008217769+1006971136+1008447122+1012123992
1391+1015606635+1014425197+1008258492+1004313803+1006484167+1011571378
1379+1014947652+1014994696+1013597359+1013293150+1014212007+1014425197
1368+1013912132+1013463359+1012392534+1012450143+1014579242+1016200695
1356+1016903201+1016759991+1015988860+1015973509+1016654886+1016554928
1344+1015292765+1012968173+1009408508+1007007616+1007437066+1008518185
1333+1008973730+1008721532+1008701216+1010334588+1012762749+1014486598
1321+1015895403+1017675868+1019888311+1022580499+1025517029+1028303758
1310+1031200648+1034628029+1037890620+1040836450+1044551606+1048096464
1298+1049470775+1049873497+1051943182+1055407224+1058927340+1062009157
1287+1063953510+1065652979+1067920954+1069267996+1068794572+1067050858
1275+1065240234+1064666400+1065300823+1065379922+1063781224+1061617090
1263+1060114828+1059072897+1058384116+1058786116+1059563568+1059727366
1252+1059950398+1060565588+1061749554+1062968827+1062893520+1062618206
1240+1063493269+1064091031+1063776438+1064143132+1065091877+1065082937
1229+1064164623+1063616072+1064588294+1066436481+1067093207+1066445510
1217+1066458513+1067374932+1067914633+1068273562+1068757912+1069322535
1205+1070781455+1072776374+1073741823+1073311741+1072440651+1071850745
1194+1070931437+1069458251+1069114402+1070701903+1072684723+1073502267
1182+1073380908+1073344970+1073023966+1072133734+1071923614+1072281910
1171+1072049487+1071797831+1071882981+1071383100+1069993528+1068098025
1159+1066556936+1065231294+1063391053+1062226771+1062185776+1061541241
1148+1059619642+1057342728+1054978948+1052367575+1049771824+1047116747
1136+1045111264+1043496132+1039467647+1032796276+1026437962+1021919349
1124+1018859112+1016190943+1013127908+1010109569+1006716139+1001284267
1113+994962885+991658848+991468052+988874558+982359129+976419611+972252160
1099+968087056+964421202+962418156+959994781+955315800+951527594+950956650
1086+951452107+950593839+947874201+943951905+939731901+936335401+934794854
1072+934038982+931667798+928130706+926031856+926018583+926514761+925816860
1059+923748440+921604893+920310584+919238856+918182207+918036198+918056876
1045+917368004+917174138+917443492+916523281+914984449+914734419+915355839
1032+915055513+913817820+913345750+914346866+915718650+916270180+915722171
1018+915069960+915371279+916128325+916628296+916952370+917412701+917909331
1005+917822466+917260371+917051605+917333782+917627426+917931002+918506100
991+918568766+917308679+915712871+915114837+915231410+914584978+912459039
978+910001622+908343057+906925132+904784565+901937338+899303391+897632185
964+896529395+895368363+893917119+892103244+890765683+890771733+892314628
951+894982346+896342662+895274997+894733128+896529575+899159729+900833554
937+901331449+901876749+903798347+907329299+911160125+913980805+916160651
924+918369933+920487746+922428487+924275410+926089375+927271265+926832063
910+925363030+923931200+923197542+923746724+924491489+924311709+923208829
897+921547194+920287739+919225673+918097058+917665441+917354460+916630463
883+916275959+916298985+916053740+915636209+915604244+916588114+918793604
870+921291203+923056408+924827031+928227323+933161211+938657644+944402755
856+949474163+952607901+953399800+952871295+953352034+955501450+957989207
843+960983346+964532899+967164136+969405836+972067142+974034882+974590205
829+974041293+974223331+977130785+981909904+986273750+990594254+996333675
816+1001141779+1002454599+1001564908+1001328964+1003578428+1006569136
804+1008462020+1010169977+1011745379+1012912280+1014694641+1017991635
793+1021992850+1025428268+1028415996+1030891834+1032738576+1034946595
781+1037893058+1040964942+1044647321+1049338762+1052870978+1053298170
770+1052413084+1053477318+1056356329+1057564947+1056019162+1055368306
758+1057273470+1057290175+1053241193+1050200461+1051589400+1054090521
746+1054935696+1055598923+1055941417+1053991647+1051285011+1051191464
735+1052702755+1054224882+1057235275+1059119129+1057343992+1054569544
723+1051514274+1047405967+1042584589+1038105525+1035661472+1036290928
712+1038979594+1039771584+1037591738+1036810584+1037815944+1037514896
700+1037664878+1039944322+1041884250+1041211903+1038257675+1035431216
689+1035009983+1037729079+1040837805+1040142522+1037006256+1036150517
677+1037748854+1039037294+1042374289+1048190823+1048325997+1043438884
665+1043605842+1043635639+1042160738+1043052234+1043828151+1041325134
654+1038087556+1038557639+1038530370+1035282227+1037996898+1042101052
642+1040178370+1043490353+1051928554+1054197432+1049629336+1039743954
631+1027211351+1015752554+1005839180+1001737194+1007648269+1014376346
619+1007332322+991059461+987448868+995529315+993348746+989254706+999320681
606+1011013346+1014940609+1011782852+1003111506
##END=
