##TITLE=Sample description
##JCAMP-DX=4.24
##DATA TYPE=INFRARED SPECTRUM
##DATE=24/8/2023
##SAMPLING PROCEDURE=Instrument type and / or accessory
##ORIGIN=Default
##XUNITS=1/CM
##YUNITS=ABSORBANCE
##RESOLUTION=4
##FIRSTX=4397.6552
##LASTX=599.8556
##DELTAX=-1.9287962
##MAXY=1.4371057
##MINY=0.52995765
##XFACTOR=1
##YFACTOR=1.3384089e-009
##NPOINTS=1970
##FIRSTY=0.66429603
##XYDATA=(X++(Y..Y))
4398+496332631+497056174+497880676+497177218+495880478+495955651+496842901
4384+496770890+496177386+496511658+496960515+496011987+494556751+494213884
4371+494410323+494115775+493777718+494566637+496694870+497893190+496791465
4357+495000754+493424118+492101594+491435856+491154089+491129506+491738686
4344+492898395+494067501+494288255+493191117+491518733+490185030+489703752
4330+489700634+490260025+491880705+492985147+492099189+490557111+490102108
4317+490708215+491204635+490843019+490253746+490333462+490569091+489992599
4303+489091009+488982480+489413079+489433787+489040597+488957051+489775140
4290+490748073+490561298+489589166+488875242+488556602+488471186+488706414
4276+489208891+489414949+488907618+488305252+488456935+488754021+488465931
4263+488257601+488093003+487218846+486068400+485591664+485865281+486068890
4249+485972875+485993717+486077619+485976037+485543479+485153673+485235749
4236+485475832+485465722+484900497+484172456+484302941+485173624+485783739
4222+485992114+486643111+487848334+488218723+487073354+485671113+484989922
4209+484584306+483908415+483422282+483953616+484652488+484016098+482618221
4195+482008685+482807134+483863124+483196049+481546690+481311150+482068939
4182+482192521+481960009+481830995+481678109+481674903+481617811+481321482
4168+481324332+481692984+481791270+481602268+481442213+481355862+481599418
4155+481641369+480415216+478864543+478555299+478789771+478516778+478441471
4141+479182560+479970945+480223408+480416997+480464871+479776821+479166662
4128+479408258+479576775+478933927+478131113+477951241+478174356+478289743
4114+478101587+477644090+477498642+477558852+477139921+476499078+475913100
4101+475611828+475998917+476585652+476359018+475527436+475418862+475956966
4087+476118001+475798069+475432935+475640507+476170194+475923031+474769780
4074+473778231+473763223+474244680+474396897+474144968+473815951+473357341
4060+472725894+472456641+472438917+472220968+472562231+473823299+474601397
4047+474133968+473278916+472596879+471988679+471434543+471404126+472023059
4033+472185430+471649775+471205549+470563726+469695002+469373511+469603796
4020+470356643+471366406+471223407+469931076+469455854+470148090+470468423
4006+470081868+469922392+470125511+470251008+470589199+471371082+471922056
3993+472344728+472826986+472160134+470632709+469894068+469869619+469804867
3979+470230790+471301386+471512165+470640502+469847130+469198982+469199250
3966+470580381+472172648+472262028+471209780+470414893+469833369+469124566
3952+469335880+471026656+472544151+473235139+473107639+470679380+467670755
3939+466823007+468076593+470901827+472958628+471512165+469127595+468735295
3925+469011361+468720153+469146210+470513758+470281380+467380483+465159797
3912+464958504+465575967+467008090+468594078+468803209+468070893+466539103
3898+465316111+466442197+468167932+466706372+463852815+464911832+467013657
3885+466672527+466382655+465108984+463138045+463917656+465426823+466239924
3871+465496474+462374777+461620995+462736705+462171702+461434888+462231289
3858+464443201+466418549+462594330+456794895+457787290+461252566+463872588
3844+464737571+464612252+463663145+461140340+459672457+459785395+459099260
3831+458904201+460410340+461874438+463353455+463992384+460693665+458402482
3817+458301835+457390982+458455923+460591860+461001884+459273388+459326027
3804+461497236+460258791+458917962+460646548+460829983+460154849+460531294
3790+461432795+462673600+462880772+461791561+461609060+461098568+459301044
3777+459612024+461830929+463037710+461794856+460273353+460519893+460845704
3763+461767334+463318095+462999321+462204123+463853438+465980513+464330308
3750+462427372+466515856+470136333+468627389+469499676+474559802+479976111
3736+481830237+477606860+474178502+476701529+481616385+483814492+482035272
3723+478883648+475636856+473812968+475281876+479238094+481933690+480655165
3709+480301966+483910775+489018196+493313541+497345690+503173314+510079640
3696+516595715+522115788+525729896+525665411+524581410+526305676+528542973
3682+529576739+530338181+531155646+527389365+521031430+521187655+522072233
3669+520578386+521652323+523968356+524999985+526017363+528780472+532381711
3655+536807050+543263182+549517219+550000412+547185198+548057797+550071934
3642+550977755+550917545+550371514+549675804+550004331+551868879+551073324
3628+544650949+541784209+542931716+543947669+542853648+539252498+537056440
3615+536552494+536038928+536367366+535705102+533002113+532012346+533209552
3601+533967609+534010852+534518183+533962488+532066677+532060220+533266289
3588+530499572+524896132+522520111+522664535+522501318+521195493+519869495
3574+519245663+519854353+522352040+524594815+522210779+518072639+516749179
3561+516445324+515372857+515399176+516908833+517329991+517486706+520243001
3547+522994710+520889634+515822828+513106746+514216800+516401903+516373802
3534+515431642+515946766+517453840+519930239+523062268+523265387+519662011
3520+516734037+516367478+516546460+516617091+517498418+518178095+517622846
3507+518684936+522536322+524585062+522156091+518406911+515758387+514728005
3493+514881514+514969112+515129924+516436105+518143403+518635459+517381561
3480+515527345+514921416+515521734+515905839+515868831+515712606+515392318
3466+515098171+514790887+514884408+515497552+515438723+514510368+513536588
3453+513214830+514022765+515136382+515398108+514940076+514148128+513604547
3439+513833051+513863423+513283858+512982942+512822041+512581424+512564546
3426+512472360+512425644+512847692+513243911+513195592+512936270+512499971
3412+512192108+512231298+512104777+512351406+513596709+514444591+513921718
3399+512823511+512144590+512232768+512280285+511424565+510268954+510030118
3385+511107038+512282111+512079660+511043266+510746491+511325522+511643806
3372+511502856+511295328+510584388+509492371+509088848+509626151+510195606
3358+510359402+510499194+510301508+509640847+509659818+510336155+509896383
3345+508459005+507918184+508113421+507566366+506171474+505214528+505868687
3331+507616378+508537117+507733502+506373969+505556905+505394579+505382376
3318+504702610+504048451+504568741+505268058+504986069+504433269+504409265
3304+504221064+503100367+502010443+501805543+501735535+501399616+501137311
3291+500931564+500711700+500662668+500374310+499671965+499602715+500085329
3277+500144203+499769317+499105493+498601235+498778570+499070668+498646749
3264+497551882+496393286+496002234+496409007+496369995+495197104+493561016
3250+493060098+494465278+496204284+496533568+495950931+495389580+494388056
3237+493269541+493053195+493454223+493651821+493207194+492600107+492428740
3223+491977789+490975196+491024005+491908138+491512899+490516986+490667467
3210+491366293+491059944+489927579+489593708+490680248+491701100+490922112
3196+489566275+489725484+490681361+490262653+488993881+489160126+489794334
3183+488504809+485944774+485691020+488628880+490235443+488098481+486214739
3169+488663038+492429809+491704173+487691841+486958011+490726341+492621082
3156+489545834+486726212+489771533+494996835+493868167+487897054+486701762
3142+493091183+497085611+491981307+486464886+489538130+496549289+495287197
3129+486780053+484202739+492623220+500468366+495731779+486804858+487764966
3115+497873773+501371648+491635947+483316113+487845483+498339376+497815656
3102+486372434+481336623+489503572+499301309+495631533+484541153+482334095
3088+492420457+500693797+493382746+481381914+479899557+487637688+491139304
3075+484267893+477845295+480118263+487949559+490225467+482888498+476183154
3061+477474193+483891937+485211834+478848778+473424498+473295839+476172733
3047+476650270+473371280+470732955+471422207+473940067+474662007+472587259
3034+470339052+470242725+471928023+472707768+471589476+471213431+478489033
3020+509036655+567931119+614391792+603753565+564181850+532397966+513398934
3007+500876163+490956225+484153930+480890794+478624238+475188488+472287590
2993+471924327+475061165+479015602+477470230+471956703+469815021+473944966
2980+480578878+481084338+474772897+469926979+470839792+476414419+479635693
2966+475508063+470162564+470559851+478925243+487148928+482905510+472741169
2953+469092146+474313039+483342655+484468652+476214728+469713973+471294261
2939+479512111+483791691+477286928+469212343+467845818+474400994+482783799
2926+480906692+471355139+466574596+470058889+477212022+477960771+470000015
2912+463378172+463750565+469211007+473307908+470516208+465009050+463375990
2899+466985467+472431524+473031575+467955550+463683051+464085015+468105006
2885+470860723+468527366+464476156+463384095+465449669+467695961+467088429
2872+464406149+462508869+462763514+464898517+466376598+465043252+462739288
2858+461954154+462689231+463329674+462295462+460284754+459036601+459005472
2845+459895661+460599164+460218888+459659097+459914365+460579035+460995694
2831+461035196+460912193+461005714+461315537+461514693+461309703+460559796
2818+459806059+459786686+460222674+460332673+460065692+459825075+459672145
2804+459307813+458881311+458988237+459345889+459348517+459171628+459032014
2791+458992869+459050674+458967796+458776478+458768017+458929764+459023864
2777+459111151+459489289+459999113+460189808+460164691+460222763+460178318
2764+459873171+459629036+459710133+459960324+460198982+460433854+460644767
2750+460667212+460471841+460277361+460199872+460274511+460417733+460413724
2737+460391146+460586828+460893979+461171603+461518300+461805900+461631684
2723+461250428+461216360+461445843+461738253+462131221+462442558+462384441
2710+462132112+462003409+462035918+462200828+462395441+462666831+463195627
2696+463774969+463960676+463723711+463478284+463387791+463553636+464165042
2683+464804060+464992750+464940646+465004775+465160866+465254432+465364074
2669+465731480+466327834+466649458+466611070+466749437+467190724+467652318
2656+467857620+467790685+467894850+468291470+468516366+468568961+468925232
2642+469587274+470206385+470642862+471007195+471377628+471665451+471926999
2629+472320457+472787662+473187399+473532359+473921230+474247797+474339760
2615+474449669+475016052+475976427+476808989+477193496+477326741+477556536
2602+477993904+478418580+478554008+478605044+478880308+479294741+479822869
2588+480448839+480935105+481173406+481301976+481555285+482090138+482888587
2575+483687704+484146894+484319018+484541108+484912566+485332700+485700461
2561+485954794+486254285+486726345+487231538+487709610+488188439+488694434
2548+489239886+489623992+489793755+490095562+490618078+491160947+491780281
2534+492360959+492596099+492644418+492822420+493245805+493845053+494267547
2521+494355413+494489193+494798481+495001110+495165485+495414163+495636432
2507+495891968+496267923+496618717+496730987+496792088+497190311+497700625
2494+497868340+497837344+497993302+498362622+498679081+498841318+498938491
2480+498805112+498454229+498351222+498567033+498766145+498840962+498947977
2467+499092668+498981912+498646259+498605956+499072805+499612824+499857583
2453+499808907+499396701+498760801+498352246+498262421+498292838+498314882
2440+498212098+497965558+497710155+497556691+497436717+497234087+497045798
2426+496999616+496967418+496694559+496163937+495722204+495555514+495363929
2413+494969536+494580042+494208495+493737548+493362706+493125696+492651321
2399+491977166+491804285+492612086+494794473+499543975+508298816+521751856
2386+539557378+560243668+581869312+603104349+623268478+642511868+661805759
2372+681068432+699625197+717963300+735088655+747400824+754265199+757889639
2359+756660146+747811427+733053008+715370711+697048328+685312518+687398978
2345+698799003+702549341+694143824+683616843+675787016+672552292+675754774
2332+681527621+682049470+678175550+677740008+681876278+683464136+677316312
2318+665772577+655168195+651928796+655493650+656870640+650225817+637212550
2305+621805449+608898974+600575622+593983394+586293761+577113353+566647606
2291+555638946+545425929+536717492+529395932+523256124+518230423+514159841
2278+510721062+507694624+505136415+503034635+501207630+499659941+498299741
2264+496771335+495303808+494437934+493870126+493091984+492295405+491706355
2251+491267205+491040349+491001605+490899043+490665730+490521039+490645200
2237+490940593+491186376+491410605+491775160+492148844+492418096+492801222
2224+493301962+493705840+494136350+494807343+495521980+496036703+496519006
2210+497124178+497872036+498813217+499689512+500288582+500880973+501604472
2197+502277825+502996158+503914849+504734185+505379972+506189465+507107711
2183+507880108+508524870+509295085+510376904+511408177+512045770+512593136
2170+513247786+513873220+514520254+515198774+515687489+515906374+516060149
2156+516412725+516934485+517245866+517207300+517101264+516924954+516534970
2143+516251423+516254050+516187116+515647988+514618051+513591721+512934088
2129+512257929+511031598+509372307+507698632+506213514+504982417+503852813
2116+502484596+500754898+498946819+497323155+495668630+493808714+492067837
2102+490701980+489447281+487942256+486222399+484650306+483477459+482371637
2089+480865543+479144350+477704434+476598433+475487890+474272335+472988599
2075+471599274+470274299+469207132+468542507+468351947+468158224+467317913
2062+466040857+464855363+463919927+463337468+462909096+462369077+461940927
2048+461903786+462140751+462499383+463063762+463498057+463537781+463675703
2035+464195370+464894508+465547911+466189378+467016329+467966283+468762906
2021+469496826+470374857+470651947+469756459+468567536+467761783+467137951
2008+466442286+465530810+464289426+462776340+461166571+459604275+458400522
1994+457712874+456753211+454857089+452658670+450663148+448946498+447499634
1981+446097082+444758837+443519679+442315570+441223820+440409205+439923251
1967+439186570+437752220+436250847+435201093+434456173+433829269+433153020
1954+432342369+431611255+431076001+430734916+430893813+431420872+431154604
1940+429949604+429008601+428604055+428435672+428264394+427995721+427850451
1927+428107635+428917841+429730898+429858309+429559219+429222231+429045965
1913+429029711+429166163+429445747+429521499+429487698+429750092+430169513
1900+430573257+431056807+431381994+431324456+431215927+431009378+430614719
1886+430557804+430768672+431132426+431799945+432170156+431866835+431720808
1873+432732264+434437157+434837874+433918826+434155079+435513944+436479885
1859+436431076+435988141+435917510+436403598+437690719+439842822+441830506
1846+442628243+442164377+441221059+440543208+440226215+440397671+440823727
1832+440392638+438422234+436797412+436680689+436044833+434345239+433097175
1819+432593362+431565964+429816982+428209440+426215476+423858650+422026479
1805+421268778+421866246+421435602+418409876+415864182+414587928+412947653
1792+410663061+408661527+407867486+407819390+407063738+405624266+404315369
1778+403019386+401703452+400001543+397870816+397911030+399486997+399445536
1765+398646820+398314418+398020806+398017911+397852512+397715348+398958558
1751+400363025+399505345+398199877+398419385+398473494+397214831+395960932
1738+396245994+397237098+397267336+397093698+397325453+397086038+397273615
1724+398178011+398931837+399491674+400125347+400648799+400761604+400761693
1711+401103135+401657672+402017506+402719317+404070922+404199135+402567767
1697+402245832+403212664+404953318+407474964+409988461+411454340+411641205
1684+412189329+414724602+416722885+417363863+417403899+417890877+419183342
1670+420705156+422580303+424990169+427089678+428622314+430638990+433409981
1657+436008849+436976038+435470924+436865104+439974954+441749677+443462453
1643+446365755+448986979+450642707+450875308+450248404+452349649+456026195
1630+458894805+460846149+462812724+464987095+467383200+469848956+471367653
1616+472307230+474989020+478573959+481436067+483701866+486283366+489021224
1603+491430600+493802702+496494779+499200974+501794944+504770480+508209837
1589+511858994+515830488+520237702+524553532+528295542+531564691+534362893
1576+537587908+542060053+546327653+550382157+555279289+560591211+565817760
1562+570685143+574743968+579940725+587956124+596089316+604240188+612283644
1549+619960941+627413922+634457368+638123982+638566427+646617587+658402340
1535+666898083+673620662+680583234+687551151+694167560+699890931+704400484
1522+710090721+718230370+727152303+736016742+744229739+752805999+761507043
1508+766345480+765800651+770708471+779022872+785924388+790357832+794631489
1495+801035472+808358636+815298540+820344148+824877883+830705953+836698442
1481+842108783+846918718+851128156+854289444+856716811+860734487+866771510
1468+872004784+875200808+879092452+884966837+889451496+890301293+892901363
1454+901401381+909753279+916243836+921265396+925947340+931237974+936746290
1441+941470630+944368811+946229617+951176182+958701441+964831807+969642454
1427+974301418+977711740+980333008+982328130+982819873+985129404+990500110
1414+994933644+997355044+999388821+1001194762+1001780027+1002619314+1004464534
1400+1004680880+1003777464+1003835002+1003858694+1005444103+1007756217
1389+1006649815+1002604262+1000707471+1002156962+1005180818+1007867730
1377+1008602985+1007780176+1007763609+1009719006+1011609473+1012561431
1366+1013455583+1013202720+1012013752+1011697294+1011940093+1012703227
1354+1013350661+1012660029+1011011916+1009895361+1009562158+1009419649
1342+1008764376+1006503388+1003982053+1002644075+1002635613+1004669568
1331+1006492254+1006172411+1006286062+1008761259+1011387248+1011271015
1319+1009281416+1008917217+1011526551+1015511360+1018962563+1022639643
1308+1029703530+1038461311+1042622474+1042254179+1041558024+1041491401
1296+1042266025+1044395460+1047357770+1050417787+1053246050+1055462950
1285+1056731811+1057425561+1058310718+1059899512+1061525179+1061764416
1273+1061209879+1061443682+1061124195+1058749823+1056318982+1055832493
1261+1056606047+1057024132+1056797811+1056655658+1056486964+1056372511
1250+1057575641+1059865933+1061343570+1061802537+1061961879+1062295528
1238+1063383403+1063760160+1062020219+1059800468+1058519672+1058303326
1227+1059311040+1060306819+1059872791+1059212264+1059772144+1060969841
1215+1061764326+1062139124+1062667119+1064147695+1066853489+1068817169
1204+1068977759+1068661657+1068055817+1067801884+1068879160+1070091018
1192+1070652502+1070854330+1070360538+1069991975+1071532583+1073627905
1180+1073741823+1072595252+1072041962+1071992173+1071020976+1069951182
1169+1070626049+1071104077+1069374378+1066883950+1065205376+1065213570
1157+1066412603+1066381874+1064144221+1061305716+1059386480+1057390469
1146+1053851444+1050732820+1050214445+1050374589+1048438164+1044762776
1134+1040911123+1037049673+1033259655+1030363434+1027851630+1024069985
1123+1019129833+1014317048+1010015068+1006457785+1003265680+999462302+995976540
1109+993032133+988083253+981848855+977166555+973305906+969712996+967152293
1096+965151116+963443416+961613872+959374171+957871150+956789331+954032323
1082+950097748+947069350+944972869+943237559+941672458+940098093+938921595
1069+938062357+937061323+935865764+934153256+932254595+930830310+929240359
1055+927442345+926354647+925473944+923941708+922133986+920595071+919568296
1042+919112624+918783073+918363385+918220253+918458510+918939922+919029969
1028+918003105+916907392+917135139+917770371+917803682+918232366+919128211
1015+919561705+920272111+921416633+921503385+920346126+919427123+919739484
1001+920811506+922003680+923326249+924706891+925564882+925126579+923869831
988+923153636+922789793+921713051+919957077+918119873+916225221+914072004
974+912223043+910993283+909740008+908570457+907770717+906318821+903641973
961+900888884+899318884+898865261+898829723+898846023+898991203+899653156
947+901283811+903964667+906351330+907108318+907661965+909796744+912854446
934+915527819+917731626+920145367+922791040+924970087+926613479+928709603
920+931782000+934149515+934378508+934055014+934481114+935058809+935921610
907+936922199+936422706+934208567+932050184+931178120+931355009+931536351
893+931620431+932216741+932294854+930600426+927883587+926025096+926546143
880+929174716+932092491+933477408+932929730+932011618+932383476+934461252
866+937343223+940388098+945197053+951625441+956778286+960832658+964572976
853+966219930+967177767+970186837+973202498+974819437+977016832+979337318
839+981098458+983187190+984512342+984864160+985653035+986254243+985853705
826+985952036+987868599+991867659+998374961+1005535754+1010352546+1013038656
812+1014647045+1014251940+1012153143+1012347846+1016407294+1019957274
800+1021217407+1022712055+1025639896+1029960046+1032501331+1030538987
789+1028466822+1030586015+1035405836+1039491203+1041573343+1043390329
777+1045328892+1045774231+1046310955+1049239597+1052027244+1052058952
766+1051497023+1052354836+1053254689+1052444349+1051162751+1052005957
754+1053968657+1053881549+1052263809+1052336844+1054909927+1057395367
743+1057851395+1057536896+1056939250+1054805985+1051633653+1049189451
731+1047699880+1045041737+1041792272+1041524356+1044092095+1045807276
719+1043878154+1040468901+1038449286+1036904314+1037212578+1040145050
708+1041800288+1041572542+1040892241+1038229734+1034589885+1032570537
696+1032082979+1033032621+1034986504+1036988395+1038458282+1037661748
685+1034810061+1031561309+1028283342+1028778203+1035850196+1042862334
673+1045499368+1045175606+1038523747+1030765843+1033518309+1038609609
662+1038797008+1036012923+1036896655+1042810586+1046159005+1042260948
650+1036873052+1034260779+1032916833+1033461216+1031693842+1020901305
638+1011721253+1016467682+1023359134+1020698141+1020397180+1021480513
627+1009931433+989549043+970774062+963069866+971070836+983608125+989837000
613+993497691+1000278966+1012261094+1025621637+1026890498+1016170908+1010900136
600+1012767712
##END=
