##TITLE=Sample description
##JCAMP-DX=4.24
##DATA TYPE=INFRARED SPECTRUM
##DATE=24/8/2023
##SAMPLING PROCEDURE=Instrument type and / or accessory
##ORIGIN=Default
##XUNITS=1/CM
##YUNITS=ABSORBANCE
##RESOLUTION=4
##FIRSTX=4397.6552
##LASTX=599.8556
##DELTAX=-1.9287962
##MAXY=1.2859539
##MINY=0.34271497
##XFACTOR=1
##YFACTOR=1.1976379e-009
##NPOINTS=1970
##FIRSTY=0.48430991
##XYDATA=(X++(Y..Y))
4398+404387604+403324548+403059606+403513868+403618581+403638588+404465491
4384+404867422+403620895+402401666+402614700+403306557+403599146+403261815
4371+402320295+401475001+401064237+401088026+401276475+400635307+399828112
4357+400521611+401987393+402564310+402238152+402094694+402622414+402894822
4344+401863793+400271524+399659994+399806214+399441236+398801164+398965051
4330+399769335+400438523+400739149+400689605+400098678+399093977+398522983
4317+398642527+399128914+399618089+399535050+398986079+398275559+397343419
4303+396379926+395810549+396115332+397239975+398111148+398014821+397810248
4290+397650889+396729525+395968540+396681523+398512183+399878826+399576582
4276+398205410+396941638+396298978+396569594+397154374+396909289+396185505
4263+395823539+395945024+396467817+396762895+396495041+396087113+395524256
4249+394454233+393578009+393958539+394895431+395395530+395632204+395448633
4236+394649699+393955727+393686355+393442564+393739035+395008853+396046527
4222+395768470+394776783+394218231+394011343+393764317+393758594+393542275
4209+392647587+391852411+391983078+392972351+393716465+393635915+393510125
4195+393379084+393171251+393565741+394164431+394301643+394048073+393349920
4182+392306573+391812073+392319612+392677771+391980341+390941970+390668020
4168+391249241+391963817+392302940+392009480+391520480+391709724+392431318
4155+392730451+392284675+391731423+391432837+391338352+391212114+390503485
4141+389770072+390109542+390936571+390992087+390142862+389036583+388326959
4128+388041636+388006027+388440332+388983928+389168719+389193553+389103995
4114+388826685+388575827+388743372+388895539+388268158+387523198+387417738
4101+387521506+387232351+386724563+386586132+386571724+386129729+385479803
4087+385252385+385663672+386200052+386568041+387033102+387363117+386810911
4074+385683580+385484506+386198634+386171983+385318030+384773886+384753904
4060+384814298+384513025+383970025+383866507+384165192+383996079+383236238
4047+382556003+382172959+382140659+382618437+383103605+382917197+382341227
4033+382206653+382642500+382626400+381424839+380282478+380503052+381268317
4020+381508998+381142652+380367955+379808707+380059838+380662958+380799697
4006+380414563+379861436+379239479+378629666+378637902+379523135+380143474
3993+379798952+379364174+379217457+378835732+378326302+378182645+378239406
3979+378238361+378363404+378660074+378985212+378986182+378432657+377881421
3966+377492779+376751975+376072361+376073954+376368732+376528464+376499201
3952+376236099+375478075+374657442+374722440+374877046+374701761+375548622
3939+376796592+376774918+375437862+373613747+372797992+373615887+374258498
3925+373620690+372980891+372907507+372645277+372571271+373320785+374387747
3912+375295251+376024583+376060790+374206714+370853934+368887954+369122687
3898+370873842+373187579+373962575+372252977+371357169+372703606+372395887
3885+370188057+369239494+368789487+369690148+371361150+370872622+369246561
3871+367894351+367386662+368642993+368864438+368261145+369961933+372262209
3858+372774576+369833232+362530451+361632801+368284262+374021451+375973794
3844+374099388+370677779+367614726+365416203+366086908+368863592+371497142
3831+373740408+375303861+376101550+376858056+375216069+370160833+369231556
3817+371164788+372590233+375833124+379035752+379159451+375971530+373906237
3804+373862042+372409150+372407632+374327054+375950055+378515571+381034778
3790+381525222+380411677+379086317+378911878+379929967+380130634+379916754
3777+381439446+383277074+383293248+381313532+380154224+381113363+382244601
3763+383231610+383234795+381706404+381477021+382831446+382365439+378205066
3750+376158560+379406602+381891270+382200705+385099098+388769575+389218562
3736+386241684+385389050+390319167+397080119+401936231+404328727+406623329
3723+411107347+417944444+427113047+437762760+448391272+458824940+472384966
3709+490581027+508581051+523821062+536804421+549517287+562495967+573528351
3696+582130289+588041742+588748305+584231067+581759912+583415660+584233506
3682+582252222+578343304+573487341+564672842+556229914+555054232+552729098
3669+549318014+550113066+551437953+551159897+549573327+547138004+543925597
3655+542255615+542640425+539514216+529892223+526257728+531947363+538075160
3642+541113278+541708360+541555870+541482461+541698904+541781619+538609176
3628+534401199+537429961+542701541+544882844+542583838+539033005+539238399
3615+540735087+541114871+541188429+541091679+542310460+545262130+547198921
3601+547034735+546620462+547006516+547393815+548708250+551428000+551989737
3588+548053645+545894140+548491210+551184881+552029352+552610300+553975500
3574+555788119+557756662+558961806+556761839+552137599+552073696+555966788
3561+559143710+560210598+560926866+562448339+563611877+563803286+564244733
3547+565299975+566839713+569293350+572070532+573737378+573986022+574425179
3534+576396310+578661126+579525555+579444930+579453042+580178965+582159951
3520+584463486+586239873+587311638+587476322+587255848+586683659+586050653
3507+586554460+587446909+587659321+588806435+591491346+593479996+594023170
3493+594318396+594634476+594939806+595603369+596779399+597562755+597516670
3480+598210890+599736146+600787605+601440120+602145787+603225167+604652975
3466+605570756+604936506+603235817+602935663+604665766+606102433+605544777
3453+604422298+604858370+605577326+605521685+606033205+606299168+605576977
3439+604875540+604323010+604216506+604682090+605099946+605768138+606305091
3426+606059831+606613805+608084215+608222372+607640678+608493362+609990896
3412+609649783+607818401+607360332+608282393+608395368+607984728+608423985
3399+609148017+609365007+609920523+611196986+612402329+613025929+612549147
3385+611392576+611135621+611864830+612306376+612277460+612791619+613859750
3372+614353354+614097096+613870301+613889661+613534115+612719902+612137362
3358+612046733+612525954+613365350+613962423+614396404+614626633+614409842
3345+614364552+614739956+615325134+615947937+616085049+616369974+617417302
3331+617754783+616819832+615802165+615526000+616292285+616962767+616119340
3318+614974067+615223208+616089976+615831578+614476780+613847607+614869006
3304+615948037+615060615+612800975+611679691+612669188+614272580+615070270
3291+615039562+614884036+615519181+616623744+617128844+616946691+616371218
3277+615789126+615656791+616557502+618132924+618916280+619628517+621243555
3264+622106939+621921352+622507277+624313127+626275598+627261413+626797123
3250+626114000+626849379+628490794+629759642+630393743+630744760+631527818
3237+632406481+632202679+631146989+629989672+629052532+629149282+629992858
3223+630004255+629322775+629128379+629534788+630293758+631047353+630987581
3210+629729483+628017596+626720778+625770896+624783837+623636275+622426453
3196+621748257+621893631+622012180+621636079+621239026+620924539+620486427
3183+619960722+619236441+617862531+615853377+613816253+612509332+612322949
3169+612188375+611146770+609893151+608869462+607997021+607631272+607615246
3156+606958551+605300314+603599227+602549758+601599279+600009624+597897100
3142+596587840+596520304+596166599+595319340+594656922+593401013+591225831
3129+588976295+587409035+586284117+585061952+584042544+583249782+582334987
3115+581417952+580843325+580717112+580505745+579414024+577417510+575642268
3102+574884642+574697612+574655557+574537556+573935059+572933219+572049280
3088+571519843+570942280+569877930+568671393+567817664+567319282+566810548
3075+565909987+564858926+563948163+562926017+561849126+561290176+561329294
3061+561052880+559925275+558500851+557106785+555658024+554244549+552982071
3047+552075936+551561180+550807386+549153579+547049864+545472949+544384512
3034+543296175+542165932+540792072+539085660+537276923+535510539+534170871
3020+533380149+532592363+531298382+529375874+527341438+525922786+524879489
3007+523623332+522503889+521929810+521419533+520342244+518677090+517003872
2993+516007855+515961969+516270434+516013280+515147756+514046230+513011592
2980+512391228+511963070+511183197+509765740+508048827+506883049+506278362
2966+505490626+504202617+502553438+500884850+499371937+498096967+497212382
2953+496418525+495560665+495079055+494755162+493844945+492608447+491669863
2939+490762633+489545843+488280379+487269481+486401021+485267443+483704215
2926+482113514+481202153+480830382+479873284+478052105+476054348+474532178
2912+474084262+474203905+473633259+472680740+472123184+471519342+470799093
2899+470455789+470197541+469470821+468333113+467221235+466274837+465362680
2885+464675128+464400207+463993698+462950799+461795274+461008433+460211441
2872+459188897+458433660+458186858+457799012+456786522+455474524+454377228
2858+453689776+452998491+451734371+449848643+447865020+446521270+446018957
2845+445808784+445301245+444681179+444446720+444334492+443901008+443268898
2831+442686756+442137362+441418704+440634054+440152544+439920722+439488184
2818+438811631+438253378+437699255+436957904+436412988+436108107+435596785
2804+435033206+434848167+434625702+433849911+433006036+432574593+432215314
2791+431728180+431396771+431163705+430723254+430115829+429507609+428918549
2777+428226368+427478099+427017292+426826330+426613172+426414745+426184814
2764+425757154+425368113+425177799+424937666+424586748+424285250+423891382
2750+423164513+422392355+422028298+422020236+422017051+421696342+421106237
2737+420626917+420342689+420111713+419802103+419380962+419123908+419096834
2723+419015612+418802702+418447206+417968632+417602435+417406173+417210309
2710+417013226+416984509+417099076+417124185+416970923+416678134+416440540
2696+416411923+416311490+416019150+415792056+415623341+415343841+415008750
2683+414846678+414928125+414907247+414483667+414046301+414115131+414348122
2669+414097115+413564443+413345138+413403715+413369624+413273546+413353001
2656+413414839+413095947+412601273+412381271+412530527+412843173+413003776
2642+413014351+413182693+413415685+413444874+413436513+413563572+413668957
2629+413646387+413697200+413992527+414389903+414762843+414997004+415032041
2615+415243781+415822788+416335429+416613858+417022209+417640707+418234694
2602+418685448+418931652+419100517+419428790+419894623+420325220+420731630
2588+421225831+421592575+421613179+421610193+421883621+422234887+422434957
2575+422500253+422532354+422664091+422986740+423307050+423238867+422951753
2561+422941152+423032030+423024365+423134105+423234189+423256038+423394643
2548+423484624+423454863+423458347+423376029+423198306+423086427+423080305
2534+423168644+423238917+423250911+423319791+423473327+423596106+423520308
2521+423263602+423121016+423198953+423205174+423070202+423149881+423540465
2507+423856942+423988779+424215823+424426891+424425946+424419575+424513439
2494+424605013+424693252+424791147+424717888+424422810+424176954+424143261
2480+424200793+424198155+424131565+423961904+423748447+423762980+423843654
2467+423572914+423125992+422919851+422854754+422672751+422439237+422219758
2453+422017051+421799911+421399075+420906118+420587948+420344331+419957829
2440+419459796+418947180+418599497+418609799+418677435+418311139+417637821
2426+417098629+416737608+416396967+416061976+415652903+415085343+414486728
2413+413991407+413663905+413387541+412876418+412203946+411687523+411299553
2399+410829016+410336731+409972700+409601675+409129621+408782262+408571990
2386+408018091+406822055+405076275+402744173+399864244+396670450+393387868
2372+390397528+387729762+385000681+382208668+379757943+377945175+376823990
2359+376502460+377014280+378471253+381290713+385078196+387871752+387889917
2345+385440212+382902192+381732408+381433126+381495535+381843965+381968162
2332+381651087+381728551+382318010+382911151+383622492+384594048+385768584
2318+386975520+387944090+388687009+389343033+390022298+390859803+391708231
2305+392304956+392630417+392837902+393145371+393632456+394117325+394389012
2291+394521197+394723829+394960777+395068899+395091469+395241173+395478195
2278+395463912+395210117+395066784+395086667+395212232+395479564+395723579
2264+395856411+396047871+396314157+396567031+396897618+397315101+397628444
2251+397813707+398026741+398361409+398706479+398895998+399152778+399761820
2237+400518003+401096811+401509864+401961190+402550797+403292597+404119824
2224+404847091+405453321+406140450+406985644+407808815+408589932+409633726
2210+411018485+412531074+413991133+415342348+416756296+418290534+419783291
2197+421304067+423035314+425048699+427298285+429561110+431760579+434112688
2183+436682136+439371626+442256557+445359773+448397941+451122667+453720533
2170+456508813+459413054+462183766+464763368+467196351+469567770+471907586
2156+473979350+475647490+477093564+478263970+478899563+478942116+478516893
2143+477744486+476540835+474733940+472229041+469112886+465604356+461699320
2129+457316009+452622988+447783300+442813716+437844530+433064613+428421311
2116+423735806+419048708+414526592+410211564+406113824+402236285+398527138
2102+394966600+391541731+388198731+384966988+381927974+379061880+376405014
2089+373979944+371614148+369311384+367244150+365275756+363148401+360967123
2075+358965110+357142612+355494254+354005181+352429311+350695152+349096165
2062+347693539+346245375+344689264+343174808+341818143+340505947+339100062
2048+337718040+336419505+335068912+333715732+332596139+331705283+330781182
2035+329689559+328534582+327462667+326507784+325641737+324807991+323971606
2021+323114642+322075103+320919577+320134081+319699304+319056593+318104721
2008+317138067+316299542+315546271+314723523+313795739+312913094+312037965
1994+310899336+309660275+308922780+308567234+308108617+307558626+306997112
1981+306397651+305711169+304999828+304438887+303954540+303224063+302052238
1967+300918935+300528924+300516233+300168799+299563838+298968283+298393432
1954+297885122+297431009+296914188+296214617+295195582+293890925+293036102
1940+293260757+293718353+293680081+293363678+292970084+292540880+292178167
1927+291776859+290916511+289963817+289736823+289694271+289713457+290381674
1913+290841684+290380230+289832851+290113720+290834542+291365249+291683394
1900+291774570+291424025+290794877+290469714+290234732+289604912+289417931
1886+289943810+290327575+290487979+290569276+290541978+290507065+290461652
1873+289967600+288265019+286159090+286405942+288536357+290121733+290762851
1859+291075770+291411782+291893790+292382666+292565615+292236222+291489744
1846+290466579+290186083+291967970+294139967+295304600+296134863+296955869
1832+296694883+295443354+295503724+296936335+298419237+300133687+301634208
1819+302379864+302690594+302612582+301700101+300406867+300036266+300458875
1805+300493688+299486125+297843316+297032040+297332268+297293523+296015841
1792+295206481+297135707+299581182+300511779+300393379+300138913+300351823
1778+301346919+301866154+300540868+298201575+298278193+300720110+303146548
1765+304470639+304321483+304112430+304924329+305793262+306504155+306087966
1751+303293340+300456386+300882902+302599617+303398700+303341715+303358089
1738+303757855+302650530+299708689+300209734+303845995+307267977+309303385
1724+309935047+309997730+309068726+305623079+303113800+306977205+312557822
1711+316395695+318011031+317887008+318084639+319594591+320269775+320066396
1697+322765118+329518356+336974399+341842779+344769739+346652631+347207600
1684+349934391+358315258+366896144+373560072+378815999+384135431+389071148
1670+394212856+402932472+412226715+418872776+425163067+433313307+440920223
1657+445597467+447423075+453043184+464244630+471485549+478614290+490443467
1643+501739673+509842732+514877414+517276355+521499611+530952889+539523772
1630+545044642+548464883+550978092+553013873+556100864+559717242+561078759
1616+561419226+564369105+567387962+568141756+567697572+567943279+568676568
1603+569182814+569714142+570330326+570720362+571590863+573877178+576921667
1589+580062507+583621055+587777471+592457303+597402351+601569070+604981099
1576+612075251+622718444+631097121+638775207+648969090+659946380+669946067
1562+677394371+681584531+689904381+705592309+720002331+732701661+743742803
1549+754697050+764089810+770150867+773786307+778773409+793862423+809511233
1535+819124318+827857895+839251050+849271241+855921010+860606217+864147644
1522+868044319+875383779+884425920+894459250+904377317+910107662+910277970
1508+906131657+907416779+919723236+929383203+934181583+934900340+934098868
1495+936328795+939005943+937233985+933020982+934279826+938580024+940326102
1481+938621630+936168441+933785426+929068168+921772703+917997662+920188173
1468+921641513+919345393+917399644+918479919+918129847+912418812+909179878
1454+916860950+926695803+933513093+936996589+941936909+949967058+958064393
1441+964917317+969633380+972162516+977032961+984443491+990230274+995411176
1427+1001310634+1005232791+1007361390+1008926709+1008336155+1009785414
1416+1016553234+1022651667+1025798430+1026904884+1025933601+1023386649
1404+1021727168+1022092070+1021239635+1018390388+1015855081+1014331568
1393+1015848412+1017911018+1014772318+1007500642+1004744064+1008311868
1381+1013455642+1016364810+1015907438+1013936904+1013698712+1014941730
1369+1015088547+1015046940+1015481121+1013959001+1012431606+1014040920
1358+1015563040+1014761568+1013247710+1012235020+1010315349+1007799054
1346+1006761779+1006515624+1004497610+1000057961+997390469+999245640+1001443516
1333+1001427889+1000998387+1001494977+1002082146+1002272958+1003295601
1321+1005362388+1007002260+1009149671+1013233476+1017305037+1020275818
1310+1023588211+1027584821+1031293271+1034599691+1038216568+1042064867
1298+1045713396+1049034050+1051376455+1052516651+1053426619+1054658986
1287+1055713282+1056205393+1056810578+1058385652+1059701431+1058591494
1275+1056161298+1055473597+1056419696+1056492856+1055320609+1053733790
1263+1051190818+1048179426+1046953428+1047932474+1049676064+1051450311
1252+1053034542+1054216345+1055437167+1056819736+1057741647+1058721689
1240+1060575167+1062371114+1063106891+1062839535+1062087533+1061866959
1229+1062530572+1062989836+1062463185+1062107739+1062708146+1063240669
1217+1064066129+1066010883+1067913334+1068923834+1069455759+1069985595
1205+1070682155+1071515280+1072232842+1073030930+1073741823+1073188596
1194+1071922884+1070668120+1068765570+1067070654+1066625922+1066955788
1182+1067412265+1067737054+1067856001+1067670464+1067124702+1066100964
1171+1064316166+1061905977+1059965205+1058996510+1058064545+1056779025
1159+1054733739+1051087798+1047429613+1045281008+1043003004+1039831456
1148+1036529913+1032732775+1028624883+1025059766+1021094212+1015545322
1136+1009575590+1004051983+998011779+991259885+984669042+978535871+972462122
1123+966335221+960212800+954305079+949306729+945187490+940827072+935757254
1109+931012126+927442828+924718699+921514106+917412185+914854483+914827508
1096+915210327+915299811+915566371+915681137+915789135+916506100+917493209
1082+918099489+918891206+921129295+925020496+929186318+931790704+932385438
1069+933042382+935712661+939362484+942107416+943979707+946317434+949156130
1055+951344749+953231672+955158311+955950327+955913199+956622898+958175775
1042+959881541+961650910+963620648+965218416+965999384+966729289+967426446
1028+967615865+968293313+969486165+970191783+971097669+972278576+972540159
1015+972347257+972541553+972708775+972923676+973835335+974885450+975039335
1001+974478045+973742566+972632231+970997037+969099563+967132812+965518222
988+964525937+963488264+961501804+958994268+957386347+956266854+954164832
974+951396409+949009412+947248801+945366457+942890673+940810051+940240898
961+940848472+941323463+941505018+941857479+942139766+942297233+942388907
947+942723351+943660293+944993691+946354163+947494558+949162798+951636691
934+953613994+954961625+956379729+957990736+960114457+961838339+961888804
920+961604128+961989436+961803899+961199510+961248184+960678334+958308159
907+956139945+955425966+954239883+952268154+950914550+949601458+947821139
893+946663325+946835325+946989906+945202321+943178435+943915108+946457383
880+948116665+948334352+948507347+949643662+951982085+956448609+962739646
866+968392353+971970708+974767399+978856081+983478779+985986912+986239537
853+985847959+985428709+984591204+982653717+980252088+979292949+980054805
839+981165738+981910872+982871802+985015431+986956303+985160755+980068342
826+976226313+974977223+975161367+977048589+980039875+983238098+987123625
812+991037320+993147306+992782204+991347876+991318015+993464630+995467414
799+995230914+994384451+995480652+997887656+1000174121+1003830414+1009922477
785+1015872998+1018998261+1020208432+1022529635+1026485036+1030303177
773+1033766069+1036519362+1036735059+1034311233+1031551868+1030978635
762+1032444715+1033552960+1034115046+1035199800+1036340793+1037619545
750+1039174014+1040359201+1040970657+1040305650+1037936869+1035169342
739+1033919356+1034400120+1035132513+1035371402+1034243150+1031210954
727+1027456518+1023674012+1020834520+1019732346+1019827703+1021075399
716+1023164283+1024998252+1024301593+1020794506+1018831935+1019541634
704+1020363610+1020371175+1018265569+1014094670+1010413194+1008224375
692+1005155152+1000522202+1000364734+1006252746+1010678659+1011573995
681+1011759731+1011522634+1012008971+1013299170+1012678656+1008476403
669+1002580229+1001527824+1004802094+1007347056+1011450270+1016013047
658+1016815713+1016738970+1018598321+1019409946+1017274479+1012513126
646+1008517412+1009084574+1010462465+1009633322+1010824083+1015717123
635+1021167172+1023719998+1022272829+1017214757+1013354015+1016306283
623+1016703833+1005177747+992555061+986674813+983645802+983366800+989067981
609+998341346+1006645320+1013785707+1018963423+1015989257+1003760738
##END=
