##TITLE=Sample description
##JCAMP-DX=4.24
##DATA TYPE=INFRARED SPECTRUM
##DATE=24/8/2023
##SAMPLING PROCEDURE=Instrument type and / or accessory
##ORIGIN=Default
##XUNITS=1/CM
##YUNITS=ABSORBANCE
##RESOLUTION=4
##FIRSTX=4397.6552
##LASTX=599.8556
##DELTAX=-1.9287962
##MAXY=1.3424065
##MINY=0.39628521
##XFACTOR=1
##YFACTOR=1.2502135e-009
##NPOINTS=1970
##FIRSTY=0.56719959
##XYDATA=(X++(Y..Y))
4398+453682185+454246950+454978484+455385347+455784010+455414668+453895676
4384+452803667+452907886+453284333+453608955+453823400+453275799+452193134
4371+451287823+450847777+450994522+451418168+451611444+451256452+450611878
4357+450382892+450090021+448918823+448471722+449990952+451405581+451130779
4344+449856220+448586763+447950675+447528651+446878690+447081073+448588956
4330+449923252+450154526+449460418+448587144+448630005+448949717+448515726
4317+448157683+448209029+447679068+446552971+446317120+447656899+449073054
4303+449123924+448519207+448555011+449323494+449706710+448726119+447333849
4290+446827058+446949679+446931705+446646939+446774138+447117402+446637833
4276+445670591+445358650+445926180+446500528+446237740+445328996+444363851
4263+443507360+443277373+444358178+446044797+446804555+446036692+444668594
4249+443763521+443355418+443225978+443439279+444026833+444312171+443933532
4236+443363141+442654777+442090442+441915758+441860359+441670992+441208110
4222+441208539+441872755+442432705+442786314+442428748+441103033+440423513
4209+441132735+441533877+440668947+439838867+440140511+441200196+441760431
4195+441100125+440428328+440672856+440662511+439928068+439762396+440368448
4182+440280677+439387094+438967882+439095939+439350669+439450550+439075200
4168+438752770+438829099+438750291+438335847+438152153+438538707+439045403
4155+438763497+437728270+437232730+437245793+436893613+436680742+436750015
4141+436331423+435540390+435336577+435910543+436421387+436481029+436326322
4128+435942772+435222346+434455103+434139872+434421111+434919416+435362322
4114+435728518+435676790+435278651+434963897+434532719+433927382+433388029
4101+432741643+431947416+431679622+432241479+432531155+431916951+431459933
4087+431645963+431697643+431468896+431365821+431169684+430771545+430711045
4074+431073284+431241102+430668709+429644113+429269431+429807831+430436768
4060+430587899+430176793+429677582+429500372+429181803+428604500+428555251
4047+428824475+428622378+428558922+428866382+428776799+428456896+428632962
4033+429504376+430229903+429849309+428690125+427479452+426603032+426348539
4020+426665391+427184578+427644075+428014467+428170700+427655565+426669253
4006+426289231+426381912+425988970+425382585+425040083+424877414+425007521
3993+425129570+424898535+424822635+424888618+424539108+424037514+423964618
3979+424289813+424270552+423638708+423500734+424348978+424783732+424147358
3966+423572105+423213394+422736686+422846435+423262547+423329722+423364287
3952+423331248+422708176+421992327+422401336+422814063+421916809+421560053
3939+422375066+422805482+422094972+420303944+419149385+420226138+421706178
3925+421626274+421278338+421779313+421499171+420130357+419670527+420570737
3912+421558003+422071278+422515471+422267606+420053266+417309108+416269351
3898+417410847+419833672+420892213+418687838+416930611+418425479+418978373
3885+417645745+417393160+416745630+416839885+418803213+419408263+418420139
3871+416930945+416069924+417544387+417743814+416052713+416905486+419365403
3858+420699890+418757444+411288017+408540044+413618732+418608410+421029328
3844+420737124+418566551+415357794+412084342+411801769+414142973+416054811
3831+417105438+418109962+418811079+419416320+418479972+414782493+414522375
3817+416621912+416936809+418266576+420590951+421178553+418814845+417246271
3804+417764696+416312545+415715838+417511205+418750293+420263992+421946415
3790+422673897+422746507+422164770+421445250+421507895+421003631+420195244
3777+421224703+422895445+423508458+422204102+420613597+421006873+422110324
3763+423391176+423820876+422050110+421195668+422992465+424126572+421730731
3750+421396144+426872923+432029990+435310594+441370159+449039824+454887471
3736+457690557+458596250+461309180+466766079+471062554+470927012+467346243
3723+462767671+458005454+454556555+453633032+455892234+462712463+476394781
3709+494218627+512047194+529518194+545890606+560032039+571298921+578537694
3696+581646427+581359849+575376231+561289387+548827755+544435070+540475089
3682+533391024+524884891+515962789+502882042+491010586+487978419+483349979
3669+476308440+474597554+474726898+473663161+472542976+472454299+472885048
3655+475721745+482087292+488524019+490898691+491443003+493793218+494879554
3642+492956226+489466708+486071587+482824833+480118147+478480110+473921563
3628+465060056+461248442+460008257+455539339+446341673+436341435+430817505
3615+426557025+422362719+421671852+423239615+424067073+424878845+425553025
3601+424380539+422081909+420335792+418273060+415425398+412953420+408988338
3588+401461843+395632216+393758376+392228681+390004640+387883529+386163609
3574+384641876+383128511+381088854+376776170+371220559+369640686+370637344
3561+370612743+369490198+368508439+367578264+366013123+364641926+363871608
3547+362112951+359683547+358756710+358906745+358570537+357547181+356693025
3534+356555004+356397008+355176370+353553422+352885368+352545322+351832191
3520+351286711+350809216+349956371+348843123+348074759+347952925+348117548
3507+348151064+347251069+345477227+344377280+344131274+343624483+342578767
3493+341562729+340887881+340545952+340351102+340158517+339612798+338433519
3480+337741198+338150231+338527058+337984129+336976267+336392003+336290454
3466+336286783+335884711+334779973+333659788+333277024+333545009+333740216
3453+333262984+332443608+331547450+330545786+330071438+330201020+330376729
3439+330360185+329880450+329032635+328268038+327853070+327723154+327538769
3426+327080773+326365044+325824212+325767955+326060444+326589572+326837509
3412+326220944+325186742+324655588+324710654+324880712+324921999+324921737
3399+325108578+325446264+325788908+325780398+325313368+325055419+325056468
3385+324982404+325281664+326140468+327042013+327902414+328984649+329939138
3372+330439112+330947906+331821251+332883296+334226483+336028358+337664655
3358+338607916+339673680+341598271+343606390+345057730+346211026+347115217
3345+347991732+349223741+350464712+351184399+351678866+352472593+352961720
3331+352517789+351795194+351464826+351439725+351534409+351818889+352184656
3318+352170520+351612287+350755176+349827576+349148366+348890584+348791466
3304+348934779+349446767+349936467+350633269+351795051+352219030+351107427
3291+350048171+350592650+351919389+352849921+353627414+354735514+355746069
3277+356175316+356620916+357854259+359634346+361186281+361992713+362104966
3264+362125418+362561173+363259144+363759904+363956327+364079759+364205933
3250+364544024+365452625+366623513+367385035+367422508+367019721+366840390
3237+367089113+367687680+368591323+369170581+368962572+368561502+368696161
3223+369359567+369825619+369650960+369471318+369735465+370022090+370234366
3210+370686759+371293026+371471333+370671146+369631079+369638517+370355367
3196+370926901+371460725+371948637+372128397+372135310+372000317+371829877
3183+372142557+372821362+373371800+373773228+374209221+374924331+375833457
3169+376421416+376249355+375701419+375836055+376780842+377796951+378474302
3156+378775945+378979997+379283833+379371485+379043239+378541286+378318951
3142+378534373+378358236+377267657+376304468+376438198+377163581+377469253
3129+377233545+377156811+377651446+378065031+377757333+377061413+376650306
3115+376977527+377403437+377124940+376655884+376603775+376888064+376887445
3102+376145994+375481873+375937151+376906920+377058290+376535170+376541630
3088+377589324+378473921+377876450+376762368+376768422+377818501+378489129
3075+378168678+377730873+377941313+378500524+378354374+377553734+377224725
3061+377364939+377366632+376988707+376411380+376260105+376831664+377442841
3047+377233140+376684013+376668780+376855287+376740794+376624418+376644371
3034+376349902+375786377+375454221+375366975+375519704+376063253+377020364
3020+379098709+382268968+383755325+381977360+379323833+377682387+376708089
3007+376197150+376133193+376403990+377073951+377702625+377991563+378581882
2993+379784165+381203300+382462459+383275280+383913870+385207404+387579955
2980+390280681+392065154+393245458+394868311+396825584+398818947+400711810
2966+402508417+404476607+406288756+407464388+407643267+406810947+405825397
2953+405231216+405101491+405178678+404244427+401954713+399854747+398922379
2939+398418639+397345629+395796387+394688908+394398540+394465953+394159780
2926+393174755+392154593+391652832+391567683+391410139+390481443+389250317
2912+388827339+388886910+388755873+388701976+388737613+388569676+388499569
2899+388860044+389549076+390146522+390265806+390211289+390686543+391993331
2885+393817708+395889522+398523382+401996715+406177100+410797673+415806707
2872+421485297+427962930+435220439+443202570+451266655+458392866+463874651
2858+467262382+468132651+466080552+461211398+454570047+447183051+439547903
2845+432213207+425388163+418915584+412967341+407889177+403800139+400402444
2831+397326153+394667072+392615640+391010451+389619159+388380738+387242960
2818+386266779+385719321+385551360+385383518+385084997+384783783+384629505
2804+384649099+384731983+384940492+385300944+385480132+385384328+385300205
2791+385350884+385577390+386042919+386445134+386378769+386117555+386190856
2777+386490092+386625204+386694811+386941865+387081984+387040530+387202460
2764+387385963+387385844+387704460+388574968+389493414+389910599+389847119
2750+389789289+390066951+390614863+391281105+391986060+392579359+392989607
2737+393614276+394735987+395771429+396248972+396675382+397548322+398590867
2723+399429528+400073101+400494744+400632621+400641251+400712669+400844062
2710+400698795+400115580+399505833+399174130+399196633+399721088+400446544
2696+400771977+400655029+400401395+400146187+399970741+399893483+399756440
2683+399517776+399411578+399491578+399479135+399339636+399332794+399527335
2669+399733460+399680040+399361829+399128314+399199184+399480994+399743138
2656+399881946+400046927+400236437+400269190+400306187+400615744+401120819
2642+401687586+402154092+402372112+402676664+403280952+403814632+404260732
2629+404852482+405322515+405581632+405977387+406561985+407110206+407495043
2615+407809130+408242596+408911151+409821087+410789616+411664225+412314615
2602+412573112+412754040+413338686+414203998+414987784+415695004+416342009
2588+416732710+416977238+417266009+417514256+417785482+418250653+418882974
2575+419511433+419982229+420354909+420751999+421145132+421559004+421969300
2561+422189656+422290538+422506699+422860118+423264264+423646860+423978301
2548+424219110+424260206+424236941+424512315+424978582+425290380+425592882
2534+426043750+426439409+426712685+427044174+427373278+427369989+427138714
2521+427270776+427896613+428418041+428484739+428421378+428584762+428955297
2507+429382375+429857748+430258556+430470856+430676194+430945037+431218838
2494+431401149+431372067+431391328+431788608+432274756+432318665+431967821
2480+431641625+431526297+431559623+431628943+431670945+431590421+431319767
2467+431037480+430941032+430894644+430684585+430383276+430120059+429862325
2453+429584805+429260802+428865238+428578850+428452606+428240449+427915922
2440+427559451+427124316+426634927+426158457+425750116+425326471+424790597
2426+424312411+424016298+423812580+423588887+423286862+422954658+422475281
2413+421689063+421007779+420750807+420479772+419888547+419209551+418598589
2399+418040880+417756543+418148722+419889691+424720466+435751164+456534805
2386+489063801+532203235+582458390+636434386+692458667+750018721+809018626
2372+869134472+926700915+975554457+1014456008+1043827689+1060765772+1064368615
2359+1054924656+1030176838+991126348+940609787+888814663+860007556+868867394
2345+906419440+937566846+939608695+926033839+913685293+908035070+907296290
2332+908164462+905790409+897372714+884973156+870318543+852069573+829196168
2318+802089744+774934071+756421837+748438181+739683420+718433034+685220275
2305+650575247+624125411+605365978+588404249+570941116+552541205+532426309
2291+511916325+493164568+476518689+462120142+451216214+444255294+440157674
2278+437445887+435162895+433033894+431110137+429532076+428365502+427380191
2264+426087897+424490813+423167864+422139740+421005395+419782898+418579709
2251+417447129+416561602+415890187+415299916+414819632+414365618+413906979
2237+413685764+413791938+414105977+414561135+415024923+415424921+415916552
2224+416560744+417238929+417908247+418748004+419794006+420692739+421366394
2210+422130682+423088484+424146929+425285660+426518551+427791679+429054557
2197+430419318+431974782+433446908+434665543+435996741+437653896+439419370
2183+441101126+442709461+444442564+446398979+448423522+450369734+452156090
2170+453859777+455722652+457765836+459847733+461777402+463346501+464728711
2156+466284174+468035632+469614170+470749516+471642193+472376302+472852819
2143+473205523+473359134+473120232+472808243+472611009+471971775+470684725
2129+469196389+467648935+466073162+464507449+462661498+460401580+457974894
2116+455595692+453248767+450853498+448337229+445624394+442775778+440005923
2102+437468676+435054433+432638807+430339319+428301951+426582627+425189785
2089+424113842+423390747+423334442+424487619+426906630+430082061+433616156
2075+437338856+441051209+444528046+447611511+450264895+452600236+454635077
2062+456288609+457647506+458755963+459598009+460280628+460797192+460970445
2048+460602104+459616602+458259040+456806890+455282177+453590648+451632803
2035+449505090+447329987+445010523+442537972+440041679+437502097+434847855
2021+432196902+429514579+426665010+423903784+421409445+419021900+416678360
2008+414414295+412160480+409858035+407594113+405462014+403545313+401933306
1994+400413933+398737327+397250731+396209186+395402325+394808883+394360733
1981+393930628+393662190+393688912+393946909+394350578+394904210+395565256
1967+396438506+397914112+400036343+402417499+404753841+407100671+409777797
1954+412838140+416065824+419398061+422713849+425755932+428487552+431284630
1940+434466402+437635684+440367160+442654539+444441563+445620913+446304390
1927+446569562+446168086+445257959+444535579+443640708+442249106+441060077
1913+439915196+438292892+436410851+434701967+433145980+431518955+429664328
1900+427587866+425664586+424075607+422792657+421667942+420409498+419623948
1886+419725926+419982134+420169404+420551047+421148851+421858692+422523719
1873+422955898+422693539+421865415+422302695+424177012+425667351+426040889
1859+425800556+425570665+425399605+424973671+424100207+422788366+421077576
1846+418654989+415873024+414542828+413875894+412150563+409745187+407398262
1832+404363902+399958965+396090403+393616064+391003753+388668055+386777885
1819+384408862+381529186+378628795+375575866+372112712+369093251+366975288
1805+365084427+362668634+359458971+356526757+354804691+353366605+350926355
1792+348319025+348009253+348826055+348667462+347631734+346643086+345881612
1778+345559778+345262759+343809369+341335627+340907524+342734881+344435993
1765+345312127+345174011+344789674+345085120+345339040+345594128+345540517
1751+343663482+340760635+339928649+340427073+340265930+339292132+338249706
1738+337785846+336524947+333081149+331559583+332872378+334159738+334544503
1724+333865722+332757861+331279704+327900888+324263600+324896779+327124158
1711+328336357+328011448+326012197+323849800+323084297+321476700+318371447
1697+317667112+319340620+321733457+323158456+322991806+322087043+319899449
1684+316974028+318413950+321626735+323613639+323819955+323259790+323217693
1670+323325297+324727912+327445444+329090322+329670105+331358917+333695044
1657+334963500+334008010+332230116+335000020+338063414+340553270+345972910
1643+352612783+357868705+361524110+364211582+369672938+379854462+389644760
1630+398784239+408728029+419227477+431066705+445584298+459107856+471686865
1616+489087162+509045302+527266715+546369364+568254597+592200893+617017650
1603+643357213+671215909+698885954+725606968+752211416+777972626+801234730
1589+821725787+838761795+851444165+859527940+863775929+864090206+857423826
1576+842707235+831624571+823554717+808869687+792469528+781471727+772533320
1562+765538026+756279239+741371278+739819581+744934455+749349309+753552721
1549+758262257+762847598+766047964+767135825+768538536+778880607+791811463
1535+800567368+808157414+816903975+824400005+829926844+835013446+840465720
1522+846809527+854132686+861305476+869127226+877052241+883028755+886701586
1508+887734430+890396634+900520637+910358110+916811762+919040214+919825430
1495+923754374+928111254+928635781+926666303+929517207+935667070+940017752
1481+941576552+941954143+941658554+939446598+935149790+932577979+934497969
1468+936238128+934673701+933526913+936179296+938380668+935557416+932930969
1454+938084507+944805905+949654034+951986705+954523522+959369362+964397228
1441+967836449+969352055+969478777+972429514+978301237+982782169+987025009
1427+993005528+997587246+999918010+1001081961+999375843+998671007+1003687145
1414+1008592294+1009808689+1009951811+1011203294+1011424700+1010195910
1402+1009929403+1009096225+1007031205+1006344772+1007239166+1009171934
1391+1010276195+1007574611+1002122623+1000308377+1003792222+1009055510
1379+1012864884+1013288243+1010453930+1008393105+1010281630+1013672508
1368+1016582434+1017892368+1015221106+1011151328+1011070470+1012775826
1356+1012818448+1011496690+1010326731+1009857794+1009399251+1008158637
1344+1007107486+1006056526+1002749653+999161303+999554436+1002515470+1005185874
1331+1007070108+1007612752+1006648561+1006629395+1008374798+1009452266
1319+1010040678+1013013631+1018066956+1022537113+1025441890+1028178945
1308+1031915089+1035260293+1037607266+1040587371+1043957557+1046547962
1296+1048896938+1051671465+1054572333+1056998066+1059291643+1061737114
1285+1063419680+1064424776+1065314021+1065594640+1065062676+1063890905
1273+1062964092+1062858538+1061963096+1060271853+1059545563+1058595770
1261+1056120931+1054156984+1054534574+1056274637+1057498278+1058359490
1250+1059546612+1060039386+1059941461+1060860265+1062702258+1063826925
1238+1063396891+1062540828+1062613486+1063067358+1062758134+1061901118
1227+1061601429+1062398088+1063521706+1063930762+1064098676+1064788827
1215+1065543436+1066133755+1066887124+1068329024+1070648727+1072455822
1204+1072287909+1070784507+1069686062+1069598053+1069626849+1069187948
1192+1069679578+1071930342+1073741823+1073414673+1071222550+1068550334
1180+1067688551+1068846781+1070183890+1070345034+1069323346+1068209836
1169+1067184811+1065056955+1061848484+1059307757+1057795869+1056752346
1157+1056412134+1055593067+1052812056+1049433955+1047278733+1045481936
1146+1042206910+1037314729+1033036514+1030813879+1028447073+1024830499
1134+1020826609+1015572665+1009209025+1003004145+996944293+991220650+986134334
1121+981005491+975286520+969352341+963599330+957439264+950301468+943244911
1107+937167611+931407162+926058439+921856982+917886846+913320098+909223622
1094+906092481+903215737+900604737+898410326+895852626+892506564+889374088
1080+887693238+887282942+886608714+885102929+883975974+883845152+884153327
1067+884335161+884182504+884232468+884797424+885148697+885572629+886813338
1053+887910829+888301388+888189064+887532476+887419104+888567894+889959830
1040+891028717+892132215+893178885+893920240+894097212+893670897+893767678
1026+894751321+895571817+896024068+896557557+897267637+897572094+896964421
1013+896507117+897090570+897958743+898622291+899138141+899215375+899053088
999+899269916+899339904+898149826+896320419+895300734+895059496+894469844
986+892947086+891050552+888883506+886050719+883192950+880765215+878373903
972+875904976+873563628+871225237+868740577+866668882+865196375+863610780
959+862143994+861898274+862692930+863511234+864276045+865557183+867501203
945+869338524+870505240+872053171+875048341+878559266+881329979+883897786
932+886808856+889429010+891641062+893980121+896698677+899305482+900866666
918+901211456+901164353+901621848+902280533+902465896+902630949+901944230
905+898659860+894605243+892367256+891052268+889583765+887822916+885222976
891+883096931+882924060+883276382+882933118+882522918+882185756+881749906
878+881672004+882213122+883978357+887491094+891677867+896433792+902982413
864+910809979+918865149+926411811+932131545+935414866+936767708+936515981
851+934661592+932600005+932246443+932763055+932505321+932428849+933550751
837+935266500+937232736+939198399+940185856+939676109+938962501+939943569
824+942915282+946496672+949238971+951144182+952595522+953360619+954397658
810+957045846+960228953+963281334+967838356+973124814+976414143+977132518
797+977454900+980347282+985670260+991287587+996528562+1002152945+1008264954
783+1013314846+1016595211+1018982136+1021796044+1025490329+1029362539
772+1032844572+1034805468+1034117224+1031455306+1029423945+1031004676
760+1037015803+1043867451+1046846125+1046829439+1045735570+1043395939
748+1042216922+1043347405+1043279706+1039912571+1037139378+1037821711
737+1038443019+1036587200+1034859532+1035053572+1035338195+1034088809
725+1031967818+1030656073+1031446820+1033618156+1035012285+1033365761
714+1029829092+1028602972+1029269858+1029635625+1030566442+1030995427
702+1029910331+1027858947+1023586834+1019750190+1021130112+1025997883
691+1030271045+1032970245+1033936438+1032946979+1031736687+1032366958
679+1033986211+1034318319+1033527477+1034271311+1035059293+1030933830
667+1025269972+1027121310+1033434319+1037964261+1037024004+1033686141
656+1032569389+1033731719+1034436650+1033206811+1032735967+1035758408
644+1040050735+1040159340+1034174148+1027392870+1023997988+1020930923
633+1017685075+1018458754+1020581843+1019976077+1016373996+1007806982+998329269
619+995894859+1001576929+1008206885+1006530802+1001470422+1001743412+1001675331
606+996886797+993285384+994040088+996757500
##END=
