##TITLE=Sample description
##JCAMP-DX=4.24
##DATA TYPE=INFRARED SPECTRUM
##DATE=24/8/2023
##SAMPLING PROCEDURE=Instrument type and / or accessory
##ORIGIN=Default
##XUNITS=1/CM
##YUNITS=ABSORBANCE
##RESOLUTION=4
##FIRSTX=4397.6552
##LASTX=599.8556
##DELTAX=-1.9287962
##MAXY=1.4074597
##MINY=0.56017083
##XFACTOR=1
##YFACTOR=1.310799e-009
##NPOINTS=1970
##FIRSTY=0.6860075
##XYDATA=(X++(Y..Y))
4398+523350633+521974468+520769551+520560426+521890391+523113906+522988858
4384+522464838+522503080+522430734+521661439+521483871+521816771+521124870
4371+520328018+520895327+521810133+522151445+522575381+522778186+522959210
4357+523909756+523440304+521113683+519832192+519889486+520305828+520883095
4344+521405796+521914673+521561082+519934913+518392367+517691234+517322274
4330+516951677+516832905+517166760+517644034+517909681+518549336+519555949
4317+518736362+516010544+514796760+515523448+515259119+514267056+514790121
4303+516027232+516682529+517423813+517789226+516437844+514349133+513307916
4290+513791829+515108288+515536407+514599548+513754087+513871677+514483594
4276+514687900+514588180+514790803+514924672+514866650+514826498+514161561
4263+513188370+513167589+513520861+513152083+512107864+510762894+509803571
4249+509827489+510833239+511367580+510146202+508960429+509538742+510732473
4236+511218568+511322972+511195150+510418534+509690391+509528738+509444024
4222+509554157+510208181+510938234+511006533+510474010+510216729+510407394
4209+510296215+510211182+510702325+510700642+509746685+508887037+508552682
4195+508380798+508398259+508728477+508752804+508040394+507215487+506596841
4182+505723733+505091854+505623467+506514582+506372209+505487460+505463724
4168+506862261+508046806+507600316+506306229+505303572+505000046+505524065
4155+505768523+504505674+502924477+502753820+503433763+503681267+503585640
4141+503422441+503175073+503326131+503749748+503697319+503579319+504207014
4128+504762227+504184642+503370330+503345138+503381016+502915928+502827940
4114+503236824+502785423+501819962+502280321+503465321+503050889+501364606
4101+500019817+499321322+499121427+499277168+499501163+499735253+499682551
4087+499125292+498892339+499394259+499805053+499870987+499894769+499495707
4074+498470177+497582063+497349429+497108882+496276199+495527047+495861221
4060+496933860+497092193+496119729+495607942+495883457+496262239+496763476
4047+497146987+496658709+495574793+494964059+494669900+494158113+493681385
4033+493164823+492934007+493475078+493772692+493206703+492776674+493123762
4020+494008783+494878844+495031448+494487330+493846448+493318700+493050188
4006+493396048+494070307+493851086+492335823+490975165+490871670+491336803
3993+491699397+492136565+492339597+492162666+492093730+491867507+491127405
3979+490852617+491621867+492133927+491948674+492015791+491946856+491247815
3966+490953156+491623413+491951767+491235674+490748532+490890450+490884084
3952+491081433+492059353+492579507+492078451+491063835+489234678+487991565
3939+488183139+488822066+490059950+491009269+490129931+489289245+489374778
3925+488677919+487801128+488722346+490138343+489331625+487199898+486274270
3912+486209972+486780555+488605346+490118336+489279559+487102951+484816256
3898+483809642+485705552+488244981+487106771+484031045+484438202+485419715
3885+484852997+486115254+486399954+484411328+484434337+485412212+486335339
3871+486319878+483543949+482414698+482782430+481178860+480334673+482279783
3858+485525573+487149333+481605615+475233533+476323724+479665916+482584308
3844+483983118+483911545+482706537+479224610+476379064+477164774+479070869
3831+480238408+480723094+480687217+481556187+482073567+478871929+477010806
3817+477406958+476943235+478458816+481522174+483064857+481016525+479317282
3804+480768794+479746174+477406958+477814114+478386061+479219972+480382236
3790+480506193+480008911+479405816+478888390+479209423+479052635+477841398
3777+478079125+479860582+481501893+481415860+480230405+479935474+479746356
3763+480063796+481022846+480694038+480384283+482246361+483882170+481962752
3750+480840730+485240055+489034056+488395902+490682416+497365435+503353187
3736+504260990+500715993+499279988+501830239+505561580+507470221+506125432
3723+502480306+498743736+497221698+498391692+501358831+504071326+505651887
3709+509686071+516853731+525317251+533915368+542640944+551874396+560796001
3696+568845089+575201756+577689938+574540548+570710987+571001872+572268585
3682+572203196+570843083+568471173+562385293+556289863+556526772+554683064
3669+549822654+550123269+553001828+554932797+556702930+559514964+562646256
3655+567297086+574579290+580860291+581335791+580225502+582089399+583888953
3642+584029234+582572539+580714189+579242988+578307538+578685001+577021499
3628+569797409+566503009+567761310+568102986+564504106+557921944+554402320
3615+553982432+553399435+552779061+551771220+549959206+550069612+551760761
3601+552213344+551555000+551584330+551154392+548908167+547704023+548455402
3588+546477097+541341627+538369623+537255150+536048687+535066446+535179854
3574+536032135+537823186+540791916+542057356+538276133+533893314+532312026
3561+531860216+532068796+533423634+534933532+535504524+536048096+537951190
3547+539868107+539019145+536629728+535930869+537265654+538959349+539302526
3534+539009277+540055634+542055628+543453937+543937487+543007175+540992675
3520+539949047+540286768+540960572+541679302+542869213+543913250+543895425
3507+544559089+546431625+546640115+545130308+544407212+544393025+544382794
3493+544590919+544792269+544863615+545056007+545375629+545988092+546911901
3480+547402953+547110340+546977926+547219200+546928271+546975652+548719367
3466+550892246+551050125+549079596+547558285+547476617+547192736+546614286
3453+547310281+549431095+551407762+551829606+551161668+550412835+550073068
3439+550332213+550086346+548995336+548419570+548685490+549424547+550379640
3426+551320547+552567707+553412668+552683297+551265026+550833451+551964021
3412+553353009+553456685+552928618+552758781+552934030+553333001+553470599
3399+552829126+551985666+552019952+552517688+552449207+551839564+550891155
3385+550474950+551579646+552969543+552974500+552292511+552178558+552255315
3372+552149183+552222393+552484130+552522326+551903043+551247291+551689870
3358+552970134+553735928+553180806+551602564+549695469+548473682+548775479
3345+549757356+549953295+549480705+549090464+548688219+547916877+547032083
3331+546785625+546939548+546506472+545862180+546254239+547491850+547873133
3318+547129257+546750793+546894030+546172753+544416079+543069608+542130748
3304+540875675+540174543+540323373+540791916+541289471+540808650+539106588
3291+537693227+537296529+537410255+537389656+536719808+536042321+535982298
3277+535806367+535156026+534660472+534405647+533705060+532395740+531098378
3264+530552396+530632745+530611510+530460497+530468910+530378830+529838440
3250+529363804+529136989+528390021+527083974+525869190+525404466+525991464
3237+526783677+526670861+526135110+525740004+524756127+523341675+522622717
3223+523100764+523788937+523227904+521605281+520197741+519916861+520625041
3210+521395428+521367008+520605216+519934913+519899809+519857565+519156614
3196+519240510+520385722+520492536+518870323+517125380+517369792+519049028
3183+519035704+516779839+515820016+517523851+518825624+517870257+516742688
3169+518569935+521827275+521730011+518367175+517141387+519712600+520520638
3156+517033254+514380282+517114558+522200919+522341564+517358197+515960070
3142+522243708+526410034+521351593+515699924+517587330+522962893+522225656
3129+515717840+513666144+520755182+527273593+522533910+513808244+514007229
3115+523265600+527316609+518993552+511185647+514635380+523372414+522497578
3102+511920156+506867808+513852761+522409090+518189152+507229674+505576267
3088+515813741+523597682+516454578+505237001+503676675+510532805+514097218
3075+507963410+501203544+502875458+510912451+513191416+505348725+498568942
3061+500405101+507742689+509657924+503039885+497464655+497689605+500511915
3047+500390959+496682491+493773193+494015149+496213538+497097377+495474118
3034+493572525+493512684+495221749+496265058+495270085+494744975+501512208
3020+530306165+585233560+626447192+613398094+574583109+544339505+526791953
3007+515760584+507773792+503072033+501314586+500147275+497708748+495124939
2993+494503200+497732439+502400094+501998576+497387671+495134942+498745373
2980+505047701+505123275+498768382+494815775+496799490+502510682+505366505
2966+501388342+496285066+496537572+504416731+512157474+508190998+498739189
2953+495585115+500973228+509281143+509074246+500629460+495156951+497280902
2939+505100948+509349078+503694045+496737194+496350500+502751592+509920980
2926+507872967+499068315+494222865+496860468+503402160+504839484+498385326
2912+492363243+492065492+496353046+499683961+497081644+492188948+490724750
2899+493805569+498472314+498910300+494289891+490084368+489875015+493162186
2885+495779372+494229731+491138773+490172084+491635782+493818756+494089678
2872+492068630+490421770+491156916+493608402+495193874+494423033+492838561
2858+492445456+493347802+494260198+493848085+492176626+490472426+489710088
2845+489842139+489763245+488872858+487978560+487880841+488506081+489288199
2831+489457764+488731258+487801310+487482097+487988519+488751993+488839027
2818+488081827+487168931+486923383+487405477+487778256+487700681+487596141
2804+487640339+487725690+487864062+487945684+487703045+487379512+487340997
2791+487414253+487510517+487651435+487745471+487896665+488120706+488254621
2777+488255439+488221062+488230111+488187277+488001978+487809131+487843463
2764+488164177+488621807+489016822+489165516+489091624+489085667+489231905
2750+489275558+489207441+489322212+489682396+490040215+490102557+489833044
2737+489611414+489753650+490029302+490238473+490639854+491156689+491410104
2723+491567801+491730454+491656653+491566801+491755782+492182355+492496885
2710+492213822+491692985+491618912+491961361+492532444+493091977+493368537
2696+493420194+493405688+493517640+493739953+493850541+493950533+494088314
2683+494166207+494256924+494282479+494252467+494276931+494338864+494555175
2669+494810091+494876662+494929091+495037132+494978246+494904945+495231343
2656+495777871+496109771+496306892+496606644+496948457+497233475+497543185
2642+497783868+497719980+497498986+497599525+498239179+498997334+499320230
2629+499367157+499686644+500186745+500507959+500823534+501266977+501632026
2615+501775718+501777309+502072468+502801202+503274066+503378969+503858062
2602+504527774+504836074+505130414+505652933+506158127+506498166+506749399
2588+507209848+507874922+508337872+508723566+509384819+510052030+510501566
2575+510866570+511264177+511697161+511968902+512103635+512375967+512885617
2561+513466567+513815838+514130322+514773569+515319005+515325872+515208918
2548+515406039+515712293+515977213+516441618+517051807+517349967+517238196
2534+517187359+517466057+517947741+518586168+519222913+519485786+519276842
2521+518920933+518726040+518717992+518952445+519438268+519876209+520010078
2507+519971382+520046137+520144175+520066918+520067146+520447291+520998639
2494+521200035+520985225+520845126+521034926+521260740+521229182+521209993
2480+521556308+522007845+522185231+522118296+521917128+521750246+521884979
2467+522174272+522243435+522033627+521702546+521462817+521460180+521546031
2453+521290388+520654416+520228298+520250443+520327791+520230254+520040681
2440+519822552+519614517+519340003+518951490+518644600+518324022+517805914
2426+517434090+517391210+517427815+517340827+516992602+516463536+515872172
2413+515215511+514782254+514667528+514495644+514113179+513698020+513371713
2399+512903351+512288524+512410844+514381964+519280116+528722921+544348235
2386+566465313+593552934+622823711+651742398+679526968+706618682+733363171
2372+760170003+787599391+814369936+837121029+853904287+865489642+871720669
2359+869175966+854860291+831467587+803613445+776291325+760591119+764807828
2345+782243336+791141568+783992825+772591905+764456693+761602643+764471699
2332+769782736+770402611+765646149+762452196+762599889+760067872+750385248
2318+735136897+720587496+714766717+717046046+716244193+705632485+687679278
2305+667671692+651527543+640793333+631721761+621468918+609684487+596634116
2291+583414862+571320448+560568823+551158803+543489042+537550490+533058130
2278+529703525+526946694+524380301+521932634+519849517+518366448+517182902
2264+515863896+514516970+513638270+513206195+512562721+511623678+510914270
2251+510576322+510473373+510546083+510624204+510376836+509811438+509445297
2237+509545108+509823078+510048983+510313176+510693321+511144722+511549832
2224+511869773+512363462+513036903+513493851+513734079+514196166+515114291
2210+516086482+516726636+517365291+518331525+519615427+521032198+522141851
2197+522738307+523113133+523625102+524433094+525595585+526963701+528154112
2183+529134625+530270379+531617850+532908027+534138045+535363879+536362398
2170+537179530+538083286+539104723+540160765+541026370+541730367+542691554
2156+543728861+544436496+545094522+545808250+546301439+546575954+546613286
2143+546406889+546270154+546256513+545966311+545348574+544632435+543637099
2129+542231878+540701609+539306983+538082149+536836762+535282757+533473062
2116+531713205+529918107+528016332+526295945+524703561+522944113+520936979
2102+518777105+516659429+514752333+513141261+511801428+510580505+509204387
2089+507477406+505624195+504099519+503002871+502028997+501015062+500125812
2075+499487476+498941358+498429798+498260960+498485546+498598499+498285333
2062+498048879+498533337+499594199+500526693+501118784+501872664+502988774
2048+504192600+505376554+506755811+508440184+510010241+511337841+512740471
2035+514093899+515212783+516168149+516882833+517188723+517127472+516927123
2021+516963273+517243016+516947539+515681053+514087442+512669853+511348709
2008+509728133+507576034+505150649+502913609+501107234+499532994+498007999
1994+496659618+495043817+492684548+490219647+488124252+486367715+484925116
1981+483671226+482505596+481308046+480087168+478986064+478103498+477534143
1967+477005577+476159616+475307425+474807825+474614296+474638169+474702148
1954+474621026+474550408+474733660+475152184+475780243+476622703+477320925
1940+477788377+478502242+479592933+480779389+481660909+482242632+483042393
1927+484254950+485559905+486658645+487549259+488238524+488665506+489028054
1913+489365320+489530246+489611141+489654158+489517514+489285516+489117952
1900+489019323+489006273+488826476+488219925+487456178+486648641+485933503
1886+485626521+485492788+485483012+485728788+485767985+485488014+485656124
1873+486689520+487734694+487580771+487163202+488130073+489784935+490944880
1859+491159781+490790957+490538952+490700150+491396781+492569549+493406552
1846+493114440+491906704+490871352+490169628+489282833+488320782+487576770
1832+486294096+483385707+480499509+479189961+477803429+476029975+474671863
1819+473339079+471218038+468626453+466326707+463927286+461401771+459192651
1805+457682253+457060833+455545115+452369942+450050234+448745461+446597409
1792+443715212+442065807+441799159+441631413+440702147+439403285+438191274
1778+437030102+435925587+434313105+431974298+431438774+432783563+433350917
1765+433086816+432489541+431963567+432295785+432519780+432519735+433377245
1751+434087427+433020154+431855070+431973570+432127993+431314863+430049832
1738+429751309+429974531+429137982+428629378+429136846+429253254+429261530
1724+429417635+429492891+429486935+428939770+428014369+428099402+428688810
1711+429177680+429267987+428651614+428268785+428879156+428677669+427350660
1697+427454245+428494099+430255320+432509231+434372536+435342727+434970084
1684+434446883+436786872+439554752+441197382+442079994+443023856+444394109
1670+445862536+447988170+450808570+453145331+455044832+457787748+461040769
1657+463549232+464201982+463429595+465885765+469006417+471120364+474405625
1643+478617696+481947019+484049643+484716445+485474554+489751149+494885165
1630+498800485+502011581+505326626+508976708+513553601+518148500+521578817
1616+525342170+530831776+536256858+540799328+545080698+549810604+554713894
1603+559806348+565430143+571187261+576748076+582664938+589292162+596405937
1589+603847838+611190565+618334397+625274378+631234938+635553823+638331570
1576+641371100+646274027+650819089+654355537+658812474+664609199+670600316
1562+675832141+679764741+685691561+695797984+706133905+716525619+726628314
1549+736479867+745666574+753299184+757554363+760494491+771665095+784784857
1535+794023492+801975726+810105300+817153095+823241249+828665148+832903138
1522+837751908+845678131+854453407+862179099+869422060+876268050+881270697
1508+881760067+880805701+888204267+896718534+901738369+902932009+904069536
1495+908824452+914049275+916460291+916259214+917720320+921190833+924012189
1481+925082235+925515947+925789507+924408431+921228302+920228737+923852400
1468+927582013+927442869+925408452+926605093+928934714+926836545+923669239
1454+928289648+934554415+938462279+940096542+942057203+945774630+949752702
1441+952564144+953959316+954633393+957656007+963495611+969043558+973833760
1427+978237995+980578621+981662128+983359051+984456382+986384758+991045637
1414+995807282+999509430+1001648433+1001935452+1001149787+1000313011+1000705526
1400+1001309666+1000580387+999062259+997860161+998367719+999303988+997804412
1387+994517606+994010866+996732637+999673584+1001798581+1003329532+1003216489
1373+1001771116+1001569493+1002283949+1002712114+1002773410+1002377076
1362+1002364617+1003086439+1004276805+1005590400+1005842042+1004195592
1350+1001608145+1000613490+1000895871+1000578659+999214590+995928965+992708457
1337+992783759+994683488+995719521+995481612+995786092+997524669+999549082
1323+1000671331+1000466798+1000208880+1002348974+1006091592+1009050182
1312+1011937745+1016656919+1024283936+1032317019+1035854740+1035677217
1300+1035921948+1037644881+1040190131+1042896806+1045091557+1047195819
1288+1050157046+1053035514+1054459606+1054781821+1054836023+1055379777
1277+1056630712+1057804344+1058814368+1060029016+1059705164+1056668908
1265+1053696586+1053023691+1053287611+1053266057+1053588999+1054880313
1254+1056308952+1056958838+1057907020+1059703164+1061244482+1062042607
1242+1061860991+1061049225+1060945095+1061884728+1062527884+1061955937
1231+1061171636+1061126073+1061599709+1062305071+1063256345+1064363952
1219+1065333870+1065923459+1065822693+1065563776+1066176556+1067613835
1207+1069259194+1070496942+1071148100+1071443578+1071385191+1071368640
1196+1072327098+1073741823+1073703899+1072596293+1072187681+1072097374
1184+1071362546+1070684923+1071399743+1073131680+1073737094+1072386121
1173+1070321965+1068446427+1067245512+1067054530+1067097001+1067086360
1161+1067163390+1066261225+1064346763+1062804353+1061452835+1060098497
1150+1059637866+1058831102+1056625710+1054093647+1051068305+1047079956
1138+1042758480+1039074885+1036729257+1034560516+1031615932+1029116700
1126+1026457407+1021827267+1015992755+1009499082+1003054700+998103982+993024215
1113+987181791+982755365+978976188+974237279+969767745+966516043+963849565
1099+960662706+956687454+953430113+951456083+949052615+945356560+941988814
1086+940707049+940957054+940804723+939143813+936813191+935864918+936176129
1072+935058336+932260172+930041229+928713356+927855118+928403146+930330431
1059+931337727+929923184+927855845+926906390+926225129+924486825+922103547
1045+920696007+920741661+921070060+920723472+919814851+919285011+920094503
1032+922039522+924134781+925430278+925278584+924310121+923854401+924047293
1018+923994363+923220339+922575637+923231889+924490099+925323055+926185204
1005+926646017+926363909+926801622+928438432+929621250+928877419+927700786
991+928219530+929322681+929062217+927920324+927481611+927042078+924678990
978+921257131+919024729+918320368+917925035+917037967+915617877+913551811
964+910916163+908548437+907402997+907174728+907036129+906909808+906680902
951+906545850+907321966+908984058+910905250+912883464+914787922+916847076
937+919690803+922833827+925199371+926918849+928558478+930488765+932948981
924+935315799+937573483+940497514+942957185+943662274+943641630+943798508
910+943567237+943004840+943344970+944575079+945245609+944671570+942854964
897+940610467+939773054+940077808+939086245+936861210+935867647+936806825
883+937984186+937518826+935290152+933224814+933247187+935288152+938180807
870+941248802+944624188+949367190+956254015+964106573+970670001+974715735
856+976843097+978457625+979390165+978483635+976934768+976454675+976250960
843+976126367+978158238+982459252+985348906+983984564+979984848+977526359
829+978838771+981755800+984194099+987298290+991138491+994647474+997896539
816+1000346115+1001393335+1001521111+1002028488+1004302815+1007800975
804+1010849691+1012695035+1014397143+1017044068+1018067551+1015924547
793+1015093228+1018252895+1021798255+1024645439+1030166012+1037122317
781+1040581917+1040018428+1040199589+1044399109+1049456595+1050761733
770+1048964043+1048053148+1048930484+1049604652+1049242150+1047737390
758+1047274394+1049724698+1052105339+1052409638+1050776011+1048160371
746+1047693737+1047854526+1044980696+1041805569+1041342027+1042300213
735+1042709279+1042230641+1041096660+1038302861+1034441561+1032134221
723+1032590124+1034132261+1033978202+1034085334+1036190687+1036211513
712+1034269222+1033355963+1031780086+1029650996+1029990672+1032706441
700+1034519955+1034105432+1032800568+1029912642+1026454042+1025088882
689+1024471190+1025076513+1028910712+1031587284+1029717658+1028046926
677+1029275488+1032275548+1036876768+1036171043+1024588053+1017024515
665+1022587194+1026816817+1026795173+1025986317+1023807390+1019847234
654+1017397476+1021078525+1031910044+1041514821+1039778791+1031440046
642+1024457912+1017907944+1018177684+1027528545+1026754339+1010405793+998177556
629+998480672+1003860009+1005347943+1001627061+999903763+999520707+989194836
615+981082269+995058995+1014643692+1015533124+1009916242+1015828874+1021781067
602+1006569958+983889255
##END=
