##TITLE=Sample description
##JCAMP-DX=4.24
##DATA TYPE=INFRARED SPECTRUM
##DATE=24/8/2023
##SAMPLING PROCEDURE=Instrument type and / or accessory
##ORIGIN=Default
##XUNITS=1/CM
##YUNITS=ABSORBANCE
##RESOLUTION=4
##FIRSTX=4397.6552
##LASTX=599.8556
##DELTAX=-1.9287962
##MAXY=1.3319894
##MINY=0.13675539
##XFACTOR=1
##YFACTOR=1.2405118e-009
##NPOINTS=1970
##FIRSTY=0.17083772
##XYDATA=(X++(Y..Y))
4398+137715509+137901036+138124101+138056641+137819426+137802693+138284391
4384+138647505+138109495+137490234+137816651+138526639+138713680+138395395
4371+138057302+138173555+138922246+139898326+140611617+140845468+140739954
4357+140718741+140741612+140421681+139853304+139322441+138831735+138438026
4344+138094539+137589334+137227397+137212851+136973245+136428208+136360003
4330+136838205+137029318+136512305+135543672+134599557+134257908+134718320
4317+135227874+135104738+134707954+134422787+134228791+134403880+135017974
4303+135205279+134485370+133708763+133544629+133706012+133842638+134029102
4290+134429489+134949818+135310722+135277496+135092029+135223478+135718304
4276+136508329+137296671+137346161+136579032+135723998+135292211+135240210
4263+135134912+134885769+134826778+134942238+135122047+135178901+134719726
4249+134036693+133824776+134153175+134651605+134908616+134801300+134675089
4236+134695570+134610067+134181920+133728763+133977546+134790261+135319995
4222+135212523+134819883+134865985+135435936+135869957+135899615+135749332
4209+135624478+135663613+136003952+136604305+137130904+137398486+137576097
4195+137590535+137233848+136894013+136943587+137061354+136989606+136982254
4182+137264239+137553322+137436708+137164346+137062687+136852572+136463091
4168+136127653+135939736+135945730+136040950+136102500+136150224+136243113
4155+136466226+136692258+136470142+135812227+135442602+135528213+135534327
4141+135461954+135684851+135941826+135795951+135468597+135338578+135391083
4128+135392920+135313028+135329220+135426074+135422686+135252163+135204691
4114+135509282+135844732+135880696+135626135+135371022+135489762+135865465
4101+135975123+135839999+135959423+136150224+135900420+135496309+135518687
4087+135925309+136289588+136453229+136532737+136592618+136618912+136526911
4074+136301684+136292267+136722024+137219770+137353140+137139433+136949641
4060+136959299+137031012+137054471+136899623+136505085+136177767+136191509
4047+136153887+135919399+136119220+136653663+136877353+136859923+136786781
4033+136489338+136098283+135909825+135753728+135495420+135293340+135105987
4020+134979031+134985410+134866382+134750549+134905890+134801853+134189139
4006+133766950+133814469+133844560+133513951+133083112+133012685+133186729
3993+133083196+132784371+132731626+132731962+132517426+132233700+131921577
3979+131707714+131686380+131619509+131524926+131549959+131507664+131300227
3966+131027120+130629603+130207197+130127906+130317601+130259318+129734149
3952+128938238+127980021+127539861+128073931+128142292+127544750+128028958
3939+129238145+129631037+128481118+126245100+125239302+126250013+126753464
3925+125899043+125747727+126213316+125423952+124414166+125372901+127276123
3912+128350630+128483520+127206405+123342074+118641100+116887992+118004710
3898+120955460+124199162+124989198+123015056+122538980+124011593+123198445
3885+121034176+120320789+119885710+121183018+123053459+122178845+119640843
3871+117214698+116665348+118480894+118764968+118346803+120505487+122616963
3858+122210341+118026728+110241105+110546957+117861886+123213941+124503585
3844+122259999+118459116+114687891+112490864+114090120+117365222+119702489
3831+121181192+121984538+122162713+122032406+119301741+114495649+114883280
3817+117655458+120016318+123736455+126426327+125532446+121661268+119456698
3804+118684776+116507965+116977975+119779018+122568650+125795667+128061775
3790+128617767+128236059+127283006+126562988+126323971+125284275+125060418
3777+127343007+129283719+128794405+126366542+124904489+125601287+126843207
3763+127780031+126747254+124087485+123626136+124394226+122085199+116156359
3750+114614557+118708848+121164135+121379704+123819867+126371960+124902939
3736+119561503+118073684+123590052+129565379+132222949+131995704+131574476
3723+132781716+135337809+138579865+141222144+141909453+140133463+140844591
3709+150239525+164202291+178910227+193990131+209731614+223084008+230929284
3696+233668885+232290135+227184269+221325700+221444139+226046266+229653934
3682+230691684+229422941+226452804+222888331+224420932+229472335+232520335
3669+237467426+245403609+252136852+256875532+260659226+263864128+266461482
3655+269571969+271965838+270181295+266954627+273453874+284946674+294197655
3642+301002658+306310976+310458781+313747095+316831492+319277205+319472090
3628+321341678+329212540+337428052+342345185+344155818+346841509+352579981
3615+358286693+363199308+368338304+373257623+378805775+385198258+390301938
3601+393338935+395745297+398487925+401376813+405120819+409206857+411012662
3588+410623854+413226157+418736735+423167761+425587144+426861821+428218852
3574+430665334+433697959+434616405+430814429+426818577+429205094+433996868
3561+437443046+440335898+443093781+444012323+443349591+443579071+444352554
3547+444062438+444201682+446080856+448399289+450014485+450767068+451572407
3534+452302792+451751244+450659487+450530477+450801326+450536147+450773314
3520+452412198+454181725+454493992+453855140+453242619+452343825+451533488
3507+451477800+451428502+451040896+451150446+451185425+450174294+449329795
3493+449392979+449324990+448812650+448255576+447625325+446803937+446144280
3480+446274780+446982197+447072912+446294624+445718907+445685946+445304826
3466+444290812+443320522+442466029+441721182+441110631+440223080+439316935
3453+439003130+438860619+437754688+436594366+437434926+438944127+438744149
3439+437795337+437827866+437884803+437154611+436920519+437294864+437044965
3426+436539687+436511339+436637514+437323309+438789555+440257002+441756065
3412+443340318+444222295+444565553+445828458+448283685+450760389+452823877
3399+454882320+457247263+459460999+461169457+463532527+466876793+469480442
3385+470788368+472251923+474735306+477471712+479780199+481770654+483173908
3372+484534880+486806610+489139121+490801740+492070988+492864027+493170576
3358+493457762+494410946+496219537+497832331+498530523+499111476+499629102
3345+499351142+498683076+498094483+497163977+495576505+493964144+492891655
3331+492173475+491715814+491123905+490012353+489179866+488898158+488211786
3318+487358302+487188546+487481978+487858197+488252002+488917377+490012209
3304+491475091+493362722+495721611+499219585+503917809+508047187+510626475
3291+512979839+516296093+519705370+522352550+524967057+528010349+530771596
3277+532160195+532325674+532995229+534458352+535719911+537171839+538899180
3264+539587954+539056587+538372185+538017779+538262298+539195687+540113364
3250+540875940+541631550+541700163+541155774+540809874+541022104+542165993
3237+543523841+543384261+541770554+540124079+539685396+540887040+542239843
3223+541803083+540191442+539310090+539338054+539301201+539063121+539155855
3210+539364337+538798326+537512887+536848905+537578521+538696319+539379328
3196+540212824+541138765+541202718+540398916+539542116+538870975+537993275
3183+536891428+536396866+537140415+537907604+537259671+536271267+536418632
3169+536973351+537112979+537468682+537837646+537229593+535793089+534279179
3156+533328301+532918688+532652980+532345662+531455613+530248300+529718326
3142+529485916+528856866+528385174+527922420+526413555+524775152+524039482
3129+523343453+522555987+522008475+521485564+520984851+520397123+519479013
3115+518493876+518214379+518102138+516937107+515521360+514580908+513507314
3102+512475522+511553617+510291769+509203809+508895097+509097477+509240806
3088+509135868+508888371+508212185+507119468+506429877+506380915+506541205
3075+507089582+508286516+509488159+509738732+508280030+505019031+501227337
3061+498095973+495350053+492593370+490208438+488262909+486328672+484584225
3047+483507316+482890278+482256663+481479000+480819535+480464217+480163434
3034+479856308+479705196+479637159+479602132+479530924+479083449+478078564
3020+477026640+476740223+477487040+478817453+480318822+482192759+484718953
3007+487997490+492005690+496342445+500902049+506427955+513701142+523138814
2993+535356185+550611273+567210756+581977865+592770743+599819256+604632844
2980+607930167+609115570+607328793+602163154+594011882+584097521+574077357
2966+564976264+556678012+549053591+542636339+538128723+535571057+534384021
2953+534081844+534263371+534837790+535939252+537120619+537672263+537816841
2939+538178117+538251391+537270098+535088075+531743615+527836029+524031746
2926+520274263+516280429+511704777+506212794+500373324+495158724+490498266
2912+486056814+482205876+479065575+476081335+472890343+469687386+466833742
2899+464667238+463267876+462330499+461738494+461674013+461806627+461516318
2885+460815003+459811512+458176184+455859433+453105777+449817775+445909852
2872+441651079+437428775+433710596+430568180+427607148+424856856+422599492
2858+420551092+418220983+415493418+412439652+409206665+405999096+402867468
2845+399634505+396180640+392926295+390238106+387666146+384956502+382573156
2831+380585513+378652644+376741374+374917239+373347737+372218095+371165186
2818+369846472+368585465+367645830+366773919+365658691+364372195+363211681
2804+362060561+360710063+359445573+358300915+356953133+355391583+353765119
2791+352272014+350973121+349606768+348185976+346917882+345567649+344065126
2777+342774593+341608554+340330370+339079981+337874158+336785933+336013218
2764+335432889+334950435+334576546+334161936+333614833+332878779+332001631
2750+331264063+330730966+330186577+329555701+328916345+328298658+327620239
2737+326871308+326265417+325841486+325443933+325179835+325015269+324682221
2723+324228092+323702514+323129801+322818663+322801341+322717953+322394059
2710+321848853+321208464+320689277+320213021+319656259+319129480+318584347
2696+318031742+317570837+316977824+316136424+315268453+314400098+313343272
2683+312163443+310992839+309789106+308635823+307615323+306653898+305691992
2669+304589617+303348094+302206535+301145818+300092572+299172469+298331717
2656+297525537+296863814+296281179+295692633+295244894+295023199+294844771
2642+294643424+294536877+294439362+294274412+294246472+294457789+294763737
2629+295076244+295365424+295611263+295875890+296192697+296553061+296944127
2615+297351505+297858537+298545893+299222607+299589673+299735452+299913280
2602+299987418+299815141+299640941+299577733+299387630+299007038+298652753
2588+298300870+297748626+297086062+296435438+295773859+295135608+294408395
2575+293426862+292266036+291067203+289923002+288861660+287811129+286753776
2561+285794969+285011876+284362237+283713703+283029422+282461850+281991840
2548+281452184+280972949+280724010+280637643+280636898+280710773+280896720
2534+281244543+281784991+282407363+282889096+283323142+283842497+284235942
2521+284544172+285050483+285629923+286046911+286400788+286783205+287085622
2507+287245335+287373793+287597626+287832247+287944103+287966686+287958830
2494+287870637+287597674+287134992+286614123+286095152+285539327+285049930
2480+284642672+284120169+283535612+283110239+282922250+282776495+282319170
2467+281626335+281038127+280599060+280212895+279822021+279399147+279021077
2453+278730817+278379150+277910558+277411887+276876508+276368372+275967648
2440+275552966+275041058+274500393+273979932+273530631+273206497+272968321
2426+272727934+272505879+272439476+272443752+272340736+272233684+272153563
2413+272027628+271996829+272156951+272364640+272440533+272352820+272194621
2399+272115845+272209348+272401421+272558612+272572618+272449157+272361085
2386+272239378+271692635+270655077+269376268+267861133+265993803+263820740
2372+261490464+259203262+257125960+255334138+253905490+252912281+252299183
2359+251964190+252194173+253557836+256150313+259254746+261446715+261501587
2345+259578424+257544871+256648023+256506592+256823544+257433903+257845221
2332+257928778+258117488+258580963+259182649+259898475+260873233+262139982
2318+263308064+264049667+264526284+264925470+265224956+265486844+265776336
2305+265991088+266062392+266071137+266167570+266401133+266621772+266686109
2291+266684042+266749052+266816272+266837605+266830302+266701868+266418887
2278+266053767+265679854+265350290+265064594+264866755+264791295+264697672
2264+264443856+264134112+263894591+263590997+263181168+262893886+262782101
2251+262668563+262510099+262421882+262398363+262270530+262019333+261819908
2237+261730778+261678886+261636603+261600302+261531473+261439076+261427929
2224+261550860+261713432+261772196+261730345+261748604+261907260+262148511
2210+262393822+262659938+262975448+263259679+263531249+263852356+264185788
2197+264566764+264949927+265177724+265286578+265334410+265261929+265146637
2183+265063249+264918142+264693300+264473767+264288852+264062472+263717388
2170+263332016+262962379+262559397+262208788+261981230+261758141+261437923
2156+261027805+260638012+260377878+260209733+259952986+259469859+258915188
2143+258488494+258122917+257715491+257294827+256919208+256587145+256232236
2129+255802563+255376061+255063193+254771587+254360485+253944506+253693357
2116+253549139+253379528+253136163+252914443+252835788+252818563+252805782
2102+252871776+253033748+253284849+253639614+254109288+254598997+255007697
2089+255405634+255819692+256240572+256833946+257619706+258354295+258967585
2075+259574797+260271763+261105211+261926623+262499769+262955076+263700884
2062+264663462+265445498+266061479+266691922+267364336+268098348+268852804
2048+269500737+270017114+270427039+270813613+271430026+272205167+272751334
2035+273084141+273492937+273971163+274303586+274520717+274712166+274765524
2021+274619433+274216907+273755690+273765372+274118888+274257940+274177844
2008+274083741+273949998+273738705+273444841+273087889+272799623+272496365
1994+271730569+270679293+270260071+270488061+270766645+270963067+270991632
1981+270801481+270549875+270379207+270358210+270429129+270285825+269599933
1967+268856240+268999232+269677099+269942399+269701051+269195534+268634568
1954+268224475+267873794+267314510+266349361+264803691+262721512+261286114
1940+261503389+262081339+261918551+261390883+260968057+260672007+260381266
1927+259822486+258552999+257230706+256880001+256843916+257088603+258155518
1913+258874347+258466079+257934832+258337886+259162325+259633488+259914427
1900+260195823+260098981+259663975+259639326+259740300+259402063+259740059
1886+260999505+262017483+262627097+263089491+263524930+264009451+264326186
1873+263835731+261708579+259136259+259711663+262723362+264892268+265663950
1859+265961899+266301024+266686517+266958111+266889642+266227775+264991128
1846+263346310+262778642+264883956+267306246+268344428+268928793+269478707
1832+268610784+266530744+266299174+267844892+269572906+271899483+274069422
1819+275285408+276036021+276413057+275882938+275121659+275659321+277137387
1805+278065779+277584285+276240803+275962603+276912400+277133831+275718781
1792+275228134+278420448+282026483+283549690+283789187+283906354+284616726
1778+286136305+286752694+284915298+282399170+284036156+288812843+293024240
1765+295261615+295577197+296139700+298024232+300192729+302473684+303229198
1751+301068244+299308999+301704885+305592580+308491438+310564632+312924458
1738+315507494+316122586+315544155+319330059+326055253+332618332+337573135
1724+340726601+343020289+343645784+341404564+341576338+349668534+359348803
1711+366650195+370833555+372909968+375954605+380319901+383518293+386488214
1697+392447973+402737737+413456933+420426887+424915571+427898369+429064361
1684+433319049+444683944+456189621+465292012+472616226+480056958+487061987
1670+494765400+507384839+519844806+527918576+534628059+542569215+549211190
1657+551960473+550112434+550706553+560721143+568105562+575499447+590408058
1643+606050224+617906607+626071332+632094155+644334204+664652204+681799776
1630+695868981+710282116+725128601+740513275+758499821+775035256+787879898
1616+801808177+817816377+831034980+840803130+849270705+857670051+864643416
1603+869567611+873320097+876000335+876779104+875811024+874334304+872328762
1589+868816998+864088937+858481204+851878966+844402918+835648879+823340601
1576+809856962+805271172+804110850+799636196+796412339+796969700+797423950
1562+796142306+789469821+781066535+789381508+801649425+811750551+820950768
1549+831016626+840288435+846552317+850743870+858727501+881856670+905409145
1535+921285500+936505609+953303148+965876173+973285048+978934679+983617094
1522+986324143+990244414+995070399+998869011+1001852723+1001690415+997096985
1508+988053790+983988797+995702332+1006824582+1011401772+1009611776+1007599123
1495+1011866784+1015824438+1012878108+1008617846+1014304858+1023954424
1483+1029815756+1031667543+1031562989+1028793189+1022108788+1014319465
1472+1012334488+1017153169+1020849438+1018903189+1015553252+1015482717
1460+1013361763+1003895358+997561902+1003059507+1008453328+1009474934
1449+1007765370+1007943726+1009999046+1010326352+1009207880+1007108837
1437+1002967062+1001729911+1004564576+1005787889+1006218595+1008776598
1425+1010918116+1011783372+1011180076+1006419342+1003379990+1007407025
1414+1011294912+1011888214+1011034201+1009595055+1007042530+1004735148
1402+1004256201+1002987146+998844603+993062551+988817184+989683593+991833760
1389+988982470+982896945+981850450+985940716+989729335+990611793+989181295
1375+986715834+985039904+984948805+984961874+985117262+985182801+983172166
1362+980774838+981253400+982850626+982518996+980330678+978643890+978104114
1348+978028293+977832256+976924909+974258317+970181504+968698826+971309585
1335+974438883+976235222+977181295+977741828+978214625+978639085+979335307
1321+980985866+983507448+986685083+989686476+991937545+994355534+997007231
1308+999332679+1001806116+1005585701+1010423890+1014335897+1016516143
1296+1018049464+1020155331+1022362964+1023917235+1025700312+1028015189
1285+1030008622+1031302567+1031945262+1032071342+1032308220+1032703274
1273+1031902019+1030174389+1029504979+1029639707+1028875737+1027156948
1261+1025831580+1025795448+1026418540+1026791300+1027053644+1027125428
1250+1026468510+1025294687+1024413959+1025037340+1027254390+1028859304
1238+1029025455+1029374768+1029568307+1028298867+1026891817+1026758242
1227+1027573816+1028815484+1029892633+1030262510+1029874279+1028943677
1215+1028189221+1028379396+1028964818+1028782715+1027532687+1026003305
1204+1025656972+1026340125+1026412582+1025468815+1024054845+1022959726
1192+1022547374+1022298579+1021636280+1020189637+1018792101+1018657373
1180+1019326976+1020187523+1021401515+1022479722+1023018537+1023303368
1169+1023327680+1023488450+1024227339+1025023790+1025220981+1024648916
1157+1024228781+1025165148+1027419581+1029576667+1029791540+1028478953
1146+1028177977+1029130874+1029127799+1028401691+1028582833+1028245149
1134+1025972458+1023126550+1020983686+1019956987+1019779880+1019257786
1123+1017934148+1016468575+1015610622+1015549601+1014954473+1012926348
1111+1011441171+1012080023+1013440082+1014103054+1014628128+1016079767
1099+1018388590+1020663875+1022460310+1023682374+1025166206+1027889014
1088+1030786430+1033146858+1035791347+1039254197+1043074144+1045673948
1076+1047265600+1049695121+1052144342+1052629631+1052473282+1054212731
1065+1056263438+1056415175+1056740655+1058565822+1060386954+1061955927
1053+1063504240+1063934850+1063094867+1061944876+1061424704+1062561722
1042+1064782713+1066849660+1068885280+1070365460+1070817596+1071338152
1030+1071433769+1069965505+1068704137+1068528857+1067718760+1066572613
1018+1066968051+1068826469+1070114647+1069646944+1068497817+1067961212
1007+1068652822+1069632241+1068757279+1066988616+1067024749+1068139664
995+1067691853+1065691212+1064346049+1064202768+1064243033+1064190852
984+1063878057+1062957833+1062327342+1062715669+1062549614+1060449129
972+1056981666+1053525350+1051576410+1050472257+1048412228+1046372284
961+1045670296+1044922951+1043571253+1042835535+1042270774+1041299715
949+1040192968+1038933714+1038828392+1040180956+1040648659+1039699702
937+1039884401+1041994207+1043739326+1044572390+1045394018+1045443796
926+1044348004+1043295166+1042938071+1042492469+1041504882+1040384489
914+1039482235+1039541143+1040431864+1040246878+1038786974+1037435468
903+1036230029+1035665748+1035733593+1035189781+1034439264+1033832893
891+1033032118+1032141204+1031143334+1030099146+1029103294+1029003353
880+1030440674+1031828889+1031417883+1029822771+1028827976+1029716007
868+1031739231+1032811287+1033824244+1036408865+1038740368+1039539509
856+1039716423+1039634837+1039985591+1041533615+1042256359+1040751963
845+1039677216+1040037483+1039741985+1039155794+1039603221+1039662609
833+1037688203+1034290122+1032449675+1033921206+1036263951+1038112086
822+1040415240+1042320360+1043046276+1043208968+1043078276+1042977662
810+1043580766+1043819183+1042238005+1040977022+1042436349+1045014243
799+1046128486+1045742273+1045690861+1046093219+1045074112+1043151598
787+1043124114+1045503280+1046501919+1044071821+1042293645+1042489202
775+1042005066+1041193336+1040365462+1039095445+1038967156+1040462519
764+1040893802+1037901250+1033817518+1031793622+1031369258+1032529820
752+1035034008+1035265409+1033422752+1033850959+1035867936+1036125572
741+1034870451+1034032102+1034001639+1033615522+1032855684+1033105728
729+1035028434+1038711731+1041791635+1040362579+1036716952+1037012065
718+1041818446+1045538644+1042130665+1033645889+1028118685+1027360193
706+1028365174+1029831900+1030441443+1029464522+1029154417+1031906439
694+1036281057+1039132347+1040727747+1042951620+1044600354+1044010127
683+1043067225+1043410675+1044185120+1044323307+1044564510+1046510375
671+1046624634+1041689868+1039143974+1044363283+1051966851+1057435243
660+1056500701+1052121375+1048893866+1044647634+1041326238+1044471104
648+1049834654+1051617347+1050492917+1049840708+1051816267+1049421149
637+1035753004+1017219187+1011945200+1026730470+1040311359+1043606040
625+1049494279+1052785789+1046638376+1036634789+1026774675+1022182975
613+1022794823+1024149405+1029410996+1039392289+1047096662+1054063492
602+1065462406+1073741823
##END=
