##TITLE=Sample description
##JCAMP-DX=4.24
##DATA TYPE=INFRARED SPECTRUM
##DATE=24/8/2023
##SAMPLING PROCEDURE=Instrument type and / or accessory
##ORIGIN=Default
##XUNITS=1/CM
##YUNITS=ABSORBANCE
##RESOLUTION=4
##FIRSTX=4397.6552
##LASTX=599.8556
##DELTAX=-1.9287962
##MAXY=1.5219005
##MINY=0.58537334
##XFACTOR=1
##YFACTOR=1.4173803e-009
##NPOINTS=1970
##FIRSTY=0.82779521
##XYDATA=(X++(Y..Y))
4398+584031817+584850878+585058197+585346216+585195247+584178834+583618566
4384+583589297+582861155+581976324+581941673+582337515+582317834+581799619
4371+581649785+582250045+582206983+581061384+581027490+582765107+583906627
4357+583186853+582167454+581829645+580928077+580343419+582150380+583850907
4344+582779993+581119249+580732406+580861213+580649268+579623393+578653742
4330+579280159+580418735+580037359+579185877+579462836+579487226+578452940
4317+577909704+577841326+577310033+576836183+577462768+579044580+579427637
4303+578265175+578006425+578943737+579104421+577659280+576199295+576516498
4290+577838677+578287757+577228619+575303657+573707295+573418477+573721761
4276+573235506+573034873+574585061+577072940+579031291+579402532+577892546
4263+575654418+574212011+573427645+572662917+572676626+573701071+574731110
4249+575582803+576006147+575081829+573946533+574180051+575005209+575651054
4236+576443369+577419664+577744479+576786645+575833983+576161616+576426380
4222+575117784+573594300+573472389+573585973+572394326+571074671+571367736
4209+572462830+573281806+573934211+573319822+571266095+570369574+571572701
4195+573137607+573653636+572712581+571091660+570339043+571304741+573203798
4182+574234636+574106039+573934169+574066131+573793209+572702741+572072329
4168+572386799+571829222+570254433+569496812+569816581+570408599+571118616
4155+571443095+570381895+568703573+568536161+569967424+571193680+571028707
4141+569591893+568333046+568080226+568045154+568323627+569265523+570286057
4128+571304363+571781955+570839597+569014678+567670591+567504524+567500319
4114+567173065+567793384+569254000+570219908+570236982+569769188+569770744
4101+569998122+569295380+568293895+567931696+567545021+567030465+566846526
4087+566916922+567084418+567077690+566747744+565848153+564832749+564894104
4074+565742265+566256905+565992268+565209331+564752176+564887123+564866391
4060+564665043+564941708+564931321+564337116+564396158+564884726+565013576
4047+564835399+564486109+564621435+565216564+565392344+565460091+566246392
4033+567158809+567120541+566660359+566677222+566745726+566411029+566038736
4020+566143489+566404763+566049922+565663332+565705132+564574462+562102773
4006+560984382+562131033+563766798+564126895+563039791+562332465+562668340
3993+562754127+562693235+563007032+563180121+562987940+562719560+562852110
3979+563405439+563610068+563020741+562562241+563281047+564399270+564284298
3966+563062962+562150545+561831618+561716225+561797050+561747386+561554617
3952+562116314+562921497+562696179+562870655+563370073+562379312+562061141
3939+563328273+563398921+561505247+559282720+558510759+559332973+559928229
3925+559390754+559382133+559966539+559468677+559144872+560203758+561344563
3912+561806680+561717949+561131482+559329441+556954432+555854838+555114164
3898+555234561+557046233+557775805+555329600+554259696+557185932+558418117
3885+556725791+556303919+555560974+555664802+558123244+558630063+556035202
3871+552368292+550157667+551200657+551505119+550552121+552364465+555802861
3858+558062183+556343490+547657088+544305910+550755067+557664071+561439518
3844+561208229+557827571+552985710+549102018+549865022+553519400+556133227
3831+556728440+556128937+555262105+555242929+554035555+549895258+549271322
3817+551058772+552381791+556317796+560625252+561137875+557326472+555060126
3804+555014836+552091838+551164744+553926092+555741001+557128067+558751889
3790+560039669+560899183+560324912+558990580+558941337+558307897+556386973
3777+556557370+558333423+558967367+557124156+554932749+554718911+555372284
3763+556615992+557032061+555681539+555910852+557883039+557604818+551570595
3750+546770071+550331807+552649625+549684868+550815118+554883505+555924393
3736+551521393+545930741+546625914+552009877+556515065+557167428+554952598
3723+552719180+552258156+554384088+557846747+560279537+558375602+552172915
3709+550241982+553195384+555958582+556077549+555005206+555762574+557028066
3696+557661968+558359790+557668066+553631050+550723233+552241882+555270138
3682+557574372+558041620+556254885+550639296+546015393+546838659+545584648
3669+543454511+545858957+548365760+548774428+548577832+547507801+544023736
3655+541250446+541478330+539216904+530687149+526589619+530568140+535579852
3642+537943129+536892064+533928107+531056539+529131746+527254977+521117094
3628+512037751+510826340+513447273+513959264+510148408+503834787+501497330
3615+501877697+500531506+497285376+493282002+490954176+491757004+492322781
3601+489897308+486383050+484276715+482796881+481431683+480993452+479555418
3588+474921549+471583323+471774705+472205619+471446231+469879264+468086138
3574+466459582+465588166+465251577+462845406+457868766+455934847+457199455
3561+457855561+456962320+455750909+454412960+452387703+450835875+450550506
3547+450290073+449721479+449287495+448809440+448211830+447284778+445994812
3534+445188831+445281304+445008256+443485991+441785255+440643230+440401974
3520+440949962+440837345+439550197+438060060+436830860+435476007+434448323
3507+434626921+434641976+433325853+432228656+431810569+431201015+430517238
3493+430003102+429586613+429050988+428282349+427733771+427308493+426532242
3480+425726513+425001272+424106896+423336911+423269164+423748144+423853781
3466+423244437+422069233+420645497+419703643+419333622+418897746+418047987
3453+417333512+417469300+417717411+417188304+416686532+416512307+416065624
3439+415772180+415993293+416141235+415811836+415276043+414896097+414747651
3426+414785582+414712369+414226660+413574171+413342460+413758740+414316358
3412+414390203+413994025+413746671+414073126+414523216+414388226+413609201
3399+412996661+413397886+414379185+415010858+415253334+415277809+415125326
3385+415283023+416051368+416902472+417529898+418251691+418977772+419627360
3372+420526278+421640674+422823238+423689859+424148444+424970279+425978198
3358+426729932+427857070+429350403+430593732+431636302+432755661+433788685
3345+434537601+435362296+436561386+437725825+438224864+438133190+438081969
3331+438198666+438274655+438432436+438682061+438814191+439033327+439569961
3318+440114039+440326363+440526492+440794325+440308407+439601291+440035064
3304+441000215+441561198+442098127+442936657+443389438+442982032+442743257
3291+443519213+444796858+445735179+445799772+445564824+445915879+446476904
3277+447066399+448249677+450043897+451716038+452303850+452243799+452552886
3264+452700281+452568025+453200413+454272210+454554678+454273303+454467587
3250+455317051+455940650+455534085+454959687+455470543+456745244+457786469
3237+458219233+458356661+458319570+457749000+456843816+456718961+457607324
3223+458492785+458957510+458943464+458656539+458805237+459207092+459338339
3210+459451334+460011182+460836339+460915567+460124808+459831364+460774101
3196+462233666+463161306+463263494+462981068+462894440+463218918+463702650
3183+464503333+465765881+466907443+467699295+468203381+468451407+468673193
3169+468936485+469321393+469911098+470660014+471435550+471824453+471686899
3156+471611498+472011293+472662857+473369342+473910771+474046727+474121202
3142+474455311+474694633+474700310+474835383+475191485+475618740+476014793
3129+476327707+476448272+476253442+475907684+475454819+474906032+474782733
3115+475268357+475918113+476489273+476983560+477368174+477322295+476745122
3102+476411644+476596718+476828428+477049919+477009128+476696256+476784062
3088+477325533+477956996+478407338+478451535+478482234+478879884+479193429
3075+479057136+478838126+479102301+479603190+479439563+478827024+478828075
3061+479446964+479928089+479933009+479743688+479699617+479674764+479611685
3047+479765682+479976702+479983977+480092725+480429609+480485371+480059083
3034+479683931+479799408+480268421+480768386+481310529+481974667+482451671
3020+482526650+482407557+482414874+482637627+482969381+483317872+483412154
3007+483235322+483156768+483303532+483820149+484728613+485521853+486098605
2993+487001434+488302208+489589062+490469014+490731171+491029745+491991490
2980+492989947+493461736+493584782+493488902+493261649+493127291+493255131
2966+493541299+493671663+493438144+492934858+492526021+492463321+492628840
2953+492732500+492753863+493175441+494081718+494656873+494638159+494612339
2939+494515071+493986932+493538398+493658458+493976923+494089792+494069018
2926+493977175+493684825+493298529+493095162+492961603+492621439+492124881
2912+491805449+492073198+492795032+493253785+493326957+493645716+494339375
2899+494774957+494725839+494729708+494958307+495103725+495204189+495403939
2885+495723665+495958908+495787585+495465924+495147291+494795310+495006247
2872+495613908+495647256+495430810+495762101+496305548+496662071+496798742
2858+496384397+495589223+495208604+495285518+494999140+494374489+494383909
2845+494927188+495397631+495923626+496450462+496643231+496653282+497032849
2831+497720158+498051155+498061668+498482742+499470223+500143865+500099331
2818+500165059+500680667+501182188+501671260+502241831+502582458+502753150
2804+502988350+503121699+503177209+503524059+504119652+504553593+504809316
2791+504933119+504964154+505423873+506378049+507096687+507100472+506941429
2777+507533867+508577993+509133719+509133887+509047721+509026863+509000791
2764+509190364+509710261+510095800+510007406+509696006+509685324+510293490
2750+511154477+511713609+511927279+511972864+512122613+512526740+512988646
2737+513410687+513818850+514172219+514411709+514666801+515254613+515956304
2723+516297309+516585412+517178355+517794595+518238293+518476269+518558230
2710+518727912+519014291+519309753+519734696+520409767+521005612+521251326
2696+521473027+521829382+522046248+521951419+521889601+522404621+523166195
2683+523537141+523720869+523945431+523971756+523892192+524004935+524257378
2669+524537070+524858100+525257685+525669885+525861435+525830316+525914337
2656+526325613+526813928+527028271+527125539+527348376+527580423+527831267
2642+528267059+528745660+529041459+529286710+529521659+529634570+529943657
2629+530504514+530752288+530610192+530751489+531545864+532481579+533000719
2615+533149501+533325113+533861369+534612556+535154868+535287165+535353567
2602+535872202+536606232+537042571+537369236+537866803+538277153+538566518
2588+539050039+539578558+539908797+540135587+540314690+540553171+540993252
2575+541467943+541777829+541913280+541990826+542349114+543024228+543663513
2561+544079624+544175336+544187784+544505198+544949400+545176821+545257057
2548+545468120+545729309+545749074+545718670+546042433+546633820+547153297
2534+547534799+547842625+548208609+548682711+549004666+549281163+549927176
2521+550748339+551247588+551308144+551217731+551369751+551770177+552111434
2507+552254414+552261268+552365222+552813504+553532395+554178113+554434887
2494+554330891+554201074+554346156+554723453+554941622+554937417+554986787
2480+554999234+554897298+554905793+554979217+554910461+554776986+554821267
2467+555080270+555221398+554984726+554613233+554394096+554254271+554114572
2453+553963981+553795686+553798378+553867596+553603085+553144374+552817583
2440+552609885+552470648+552367619+552242471+552044150+551686072+551215880
2426+550908728+550837701+550762342+550532861+550177600+549825661+549453453
2413+548870182+548238046+547963190+547942626+547678956+547110235+546558209
2399+546261948+546190459+546029439+545576574+544972571+544464575+543970708
2386+543257831+542237128+540676932+538440402+535541248+532123206+528698141
2372+525420681+521958862+518108098+514078316+510801318+508983843+508068272
2359+507226840+507195132+509384017+513559343+518172733+521242116+521058472
2345+517921258+515008563+514132606+513862669+513522253+513887775+514840857
2332+515282957+515259786+515766058+516876837+517915833+518682285+519523549
2318+520797872+522499744+524047198+525052720+525843142+526796939+527898131
2305+528662522+528821986+528981113+529563333+530320744+531126305+531745026
2291+531914709+532040068+532404706+532678974+532686838+532612068+532688015
2278+532947060+533147104+533191049+533375072+533744547+533986013+534180002
2264+534562640+534992166+535233759+535344483+535578843+535940790+536236547
2251+536470402+536907203+537555361+537953095+538091280+538405120+538838346
2237+539176870+539513838+539808333+540032432+540560530+541363652+541981196
2224+542487047+543132388+543838789+544427779+544901586+545377454+545762152
2210+546051180+546414768+546823562+547251911+547819832+548554576+549355806
2197+550100812+550690811+551140438+551602975+552203446+552846810+553431384
2183+554145607+555024676+555693272+556063588+556582770+557341274+558000534
2170+558690156+559530999+560267132+560918065+561523077+562130234+562915568
2156+563587948+563904520+564257469+564784599+565096336+565206598+565463666
2143+565795924+566044371+566226039+566162497+565741087+565178717+564764035
2129+564443594+563752416+562756861+561976195+561219078+560170242+559078471
2116+558123160+557251870+556319352+555179893+554010071+552928560+551619754
2102+550063385+548582373+547264526+546079019+544887498+543690679+542658664
2089+541503225+539965190+538471815+537412256+536553330+535554915+534360535
2075+533064429+531870259+530833071+529804253+528707855+527535006+526406396
2062+525364877+524217049+523053283+522123667+521350276+520515151+519424894
2048+518153515+517078522+516199074+515187119+514078736+513089236+512208317
2035+511351788+510532517+509762701+508887921+507892030+506978225+506114967
2021+505225217+504273606+503200128+502316811+501839429+501430971+500780542
2008+499975318+499180059+498384675+497591183+496798195+496027370+495309909
1994+494426004+493379060+492628588+492209239+491797501+491317974+490785209
1981+490231837+489617574+488845571+488057293+487425788+486833013+485992969
1967+485010114+484442066+484260609+483988276+483528556+482885023+482097419
1954+481354432+480755896+480278051+479766691+479135732+478271760+477374524
1940+477176834+477396770+477336340+476957361+476332374+475683249+475160534
1927+474518264+473428679+472211001+471664022+471381050+471022466+471186472
1913+471368055+470850765+470089401+469821736+469946591+469903444+469591456
1900+469246035+468839764+468236770+467623979+466989698+466082580+465609151
1886+466013992+466460423+466510003+466299992+466045195+465899398+465730809
1873+465204562+463685577+461461284+460999966+462497084+463713037+463997566
1859+463886925+463730447+463565054+463367532+463147260+462674504+461724534
1846+460192555+458882277+459463445+460701434+460901605+460610264+460569683
1832+459719294+457607408+456569969+457041505+457415143+457972047+458636143
1819+458767347+458590179+458349596+457620529+456348772+455692497+455994057
1805+456192125+455464067+453827966+452605915+452614199+452542751+451093952
1792+449529635+450439697+452245397+452752342+452118061+451191767+450390790
1778+450166396+449841245+447920152+444653416+443945501+446102804+448077429
1765+448833915+448119987+447126871+447334022+447817334+448325036+448316667
1751+446132745+443147930+442893133+444169179+444738909+444202233+443421567
1738+443513284+442886278+440246127+440186622+442884806+445117425+446192376
1724+446131273+445611628+444385120+440478678+436279675+437806566+441506361
1711+443849579+444209508+442469662+440371528+439742293+437840335+433961269
1697+433339226+436342040+440209330+442377146+442283537+440967666+437763841
1684+433539691+435092823+438899431+440768042+440090195+438430334+437190242
1670+435708390+436243720+438956161+439770385+438327935+438312334+439465419
1657+439031645+435093832+428563092+428767132+430471780+430099487+432303384
1643+436584978+439079249+439161041+436957985+435492533+440065090+446058354
1630+450106471+452699398+454902285+457302400+461226546+465598427+468089376
1616+470718173+476439525+482213610+486181491+489314080+492897599+496552061
1603+499948993+503477213+506908501+509893695+512943566+516480911+520223306
1589+523957248+527474450+530754643+534124829+537481601+539843910+540455566
1576+542070305+547281894+552042132+555241037+559463841+564620173+568929774
1562+571456047+570256284+568815433+576899346+586651952+595004960+601802945
1549+607586660+611965144+613909155+612958848+612284029+623247962+637750461
1535+646523407+652895356+660626657+667794411+673060500+677463164+680837429
1522+684412159+690715436+698095219+706880950+716614379+723978897+727174397
1508+726287926+729821445+742833638+753838993+760696777+764454436+769099155
1495+776569225+782756941+785787341+788429932+795751809+805458156+813695015
1481+820229161+825569515+829250723+830920215+832122164+837653270+846944642
1468+854293180+858650594+863832662+869969999+872225705+869741821+873589053
1454+885749427+895529199+902058383+906587120+911226624+917957577+925705026
1441+932372732+936441245+938337652+942203303+948875213+955221888+961166540
1427+967198240+971342868+974178733+976936127+978010573+981036769+988683712
1414+994370160+995463362+996098021+998428581+1000190840+1000846694+1000921379
1400+998826651+994733495+991682994+992390572+996013075+997431596+994904145
1387+991113348+989828807+992065169+996270016+1000367966+1002465386+1002471610
1373+1003732601+1007296818+1008906932+1007476888+1005814714+1003634787
1362+1001718614+1002645960+1003794419+1003369434+1003224521+1003967928
1350+1004142867+1003499461+1002650922+1001331645+998404863+994346947+993555011
1337+997074148+1000031208+1000075027+998973163+999476281+1002054531+1004479121
1323+1005050701+1005519167+1008191952+1012103608+1015420556+1017932531
1312+1020354513+1023046894+1025536833+1028189012+1031796291+1035963123
1300+1040289166+1044782832+1048467656+1050916384+1053105478+1054859159
1288+1055781543+1057169786+1059493113+1061386577+1062407027+1063282900
1277+1063896617+1063585680+1062579107+1062009966+1062085913+1061893900
1265+1060932324+1059267542+1057885270+1057302336+1056674237+1056414352
1254+1057112931+1058074592+1059699003+1061887761+1062516869+1061905591
1242+1061779096+1061247551+1059641895+1057890990+1056630334+1056321163
1231+1057115874+1058596129+1060431224+1061875649+1062670025+1063445644
1219+1063133277+1061942093+1062441594+1064164240+1065148357+1065155506
1207+1065111856+1066068722+1067051325+1066844342+1066946110+1068747142
1196+1070647334+1070941198+1071101335+1072636426+1073741823+1072862165
1184+1071014707+1069381717+1068532168+1067859410+1066893291+1066991526
1173+1068406936+1068632506+1065742057+1062490207+1062102061+1062785165
1161+1062645718+1062517121+1062540334+1061902563+1060408431+1059052821
1150+1058260380+1056954897+1055014165+1053079406+1050896787+1048912489
1138+1047741406+1046494208+1044843135+1043582144+1042836381+1042458496
1126+1042483391+1041359828+1036933362+1030639674+1025758955+1022466567
1115+1018898313+1013836431+1007882360+1003732517+1002254954+1001536442
1103+1000928528+1000169562+998338167+995873207+993080152+989812659+987215906
1090+985883761+985190648+985083582+984629834+982277070+978936826+976872544
1076+976669345+976385069+974382941+971772647+969648986+967261824+964074903
1063+961042821+958694347+956674640+955012046+953087547+951274740+950912161
1049+950295753+947636341+944277425+941499173+939577618+938973657+939212096
1036+938534375+936322320+933947184+933084263+933331196+932455323+930377921
1022+928478653+926883259+926091322+926457265+926799405+926279382+925437235
1009+925079451+925398042+926020758+926124123+925355400+924897194+925641779
995+926440191+926270551+925412003+924123846+922889095+921946105+921145843
982+921189241+921642906+920795880+918812424+916741918+914642143+912294762
968+909853520+907767539+905937490+903997011+902235508+900991758+900201168
955+899528914+898857921+898964735+900568961+902608263+903187077+902668735
941+903194310+905564651+908663177+910834946+912072051+913725058+915819534
928+918217126+921699761+925847837+929530054+932210997+933521106+933778300
914+934499840+936649742+938838668+939718158+939363233+937811910+936517276
901+936519967+936444272+935553849+933733304+931824112+931536640+932193587
887+932274581+931894593+931400978+930659337+929756214+928787909+928407416
874+929817947+932232948+934220022+936624762+940014797+942612139+943605760
860+945163475+949032070+953843065+956846299+958191144+960946352+965404945
847+969010627+971374071+974001607+977326292+980375953+982024670+983196006
833+985942046+988796834+989103735+989293813+992141536+995274629+997780549
820+1001888759+1005478460+1005696546+1005989821+1008585229+1009968930
808+1010094752+1012693692+1016942526+1019586547+1020407247+1021757222
797+1024885858+1030327222+1037628325+1042102730+1043058588+1044562728
785+1044827828+1042352776+1041064197+1042929318+1046342566+1049154124
773+1049626208+1047612893+1045014458+1043881391+1045414968+1048326864
762+1049575492+1048928217+1048054110+1046884120+1046096390+1047910963
750+1050173397+1049151012+1046565782+1046346351+1049440755+1051444902
739+1050323525+1050095011+1050515538+1048507774+1043160355+1036634872
727+1034428452+1036635966+1036897449+1032153991+1025742639+1022766234
716+1025779813+1032693443+1037491906+1037303846+1035356303+1035230733
704+1037673910+1039144072+1035673548+1030553466+1028181610+1027249050
692+1027442997+1030791400+1036239241+1040555949+1042634865+1042021316
681+1038402178+1035284897+1032843066+1028567906+1026955943+1028482960
669+1027165954+1026066949+1031259530+1038611180+1043304932+1041561344
658+1038324129+1038922118+1040545688+1043392066+1044493509+1040185296
646+1037597711+1035868673+1030468856+1027505824+1031062303+1034881696
635+1029271784+1021447967+1023163968+1025492173+1016655391+1002919050
623+1001473027+1014066039+1027393880+1037513858+1047380006+1056079108
611+1058799075+1051965262+1039828185+1036835464+1051512355+1055695503
600+1040708768
##END=
