##TITLE=Sample description
##JCAMP-DX=4.24
##DATA TYPE=INFRARED SPECTRUM
##DATE=24/8/2023
##SAMPLING PROCEDURE=Instrument type and / or accessory
##ORIGIN=Default
##XUNITS=1/CM
##YUNITS=ABSORBANCE
##RESOLUTION=4
##FIRSTX=4397.6552
##LASTX=599.8556
##DELTAX=-1.9287962
##MAXY=1.5428479
##MINY=0.59094292
##XFACTOR=1
##YFACTOR=1.4368891e-009
##NPOINTS=1970
##FIRSTY=0.83441561
##XYDATA=(X++(Y..Y))
4398+580709842+580439298+579733735+579756135+581749664+584302450+584768207
4384+582780070+580793427+580337170+581088736+581914388+580838393+578661100
4371+578282787+579440459+579982045+579007307+577682795+577874897+579071355
4357+579804959+580506498+580964954+579969600+579261051+580601450+582135486
4344+582465597+581630736+579049328+576070068+575190822+575718635+576257110
4330+577678398+579482439+579668194+578662843+578317134+579007265+579433822
4317+578265199+576703577+576847602+577926210+578469745+578183023+576634179
4303+574489407+573026139+572809563+574066293+575308505+574933054+574440002
4290+575211355+575965576+575939940+575603233+574839347+574308132+574981546
4276+575493431+574684869+573999798+574536572+575558350+576191983+576128558
4263+575348452+574313898+573163610+571819975+571252920+571797865+571972628
4249+571213304+570987022+571730416+571963543+571440832+571652638+572759453
4236+573278224+573029831+573215503+573771524+573289838+571759577+570683541
4222+570278970+570145689+570413080+570673876+570675162+570764348+571227533
4209+571757835+571871163+571964705+572279551+571936621+570453815+568849634
4195+568258934+568753106+569904888+571304481+572347996+572147680+570897006
4182+569899039+569565733+569653384+570011122+570375788+570755014+570895679
4168+570435978+569884105+569434609+569024355+569352807+570023567+569434029
4155+567628744+566514793+567231847+568798736+569740496+569806078+569289755
4141+568781148+568867056+568476921+567083217+566486046+567068491+567258768
4128+566574817+565834659+565603440+565523214+565333767+565281293+565607795
4114+566550094+567609206+567693704+566653259+565386656+564780484+564997931
4101+565406692+565351604+565279841+565503884+564975655+564129303+564253292
4087+564368570+564079525+564742818+566274697+566926914+566139176+565425525
4074+565454396+565382052+564782060+564344511+564928988+565605721+564954085
4060+563730457+563671511+564773515+565218863+564209405+563005066+562579795
4047+562390431+562001291+561549555+560930315+560572660+560932348+561617170
4033+561958481+561673875+561544909+561954167+562134447+562276356+562989800
4020+563279882+562464600+561824537+562047086+562334804+561840300+560567765
4006+559663048+559845029+560434650+560740122+561428926+562882446+563492434
3993+562546402+561251011+560312818+559899121+560071353+560398063+560225167
3979+559643511+559448754+559881159+560555403+561099353+561056669+560382756
3966+560061190+560251342+559857722+559002701+558450413+558239271+558143407
3952+558041942+558065628+558191691+558641229+558646248+557137018+556087489
3939+556947157+558404285+558716103+557014564+555470283+556338454+557267478
3925+555849716+554371100+554965408+555614514+555078405+554844821+555644423
3912+556752566+558306596+560028088+559032734+554396611+550751943+550327585
3898+552271751+555371971+557509275+557083258+556221890+557153694+556539806
3885+553972626+553135815+552319994+552631397+555548559+557338080+557340237
3871+556131294+553613228+553135110+552692832+550617418+551037752+553745763
3858+556266400+556489489+549901028+544694200+548332231+553473186+555943838
3844+554550923+551207039+548264906+546531841+547668606+549952300+550997432
3831+551914634+553085498+553268308+554038416+554584606+551491728+550447509
3817+551415194+550732073+552321114+555018712+555090393+552328954+551290417
3804+551755842+549433114+548836358+550851790+551908080+553232343+554528606
3790+554990339+555332397+555109350+554629780+554899577+554133326+552541258
3777+553148467+555054719+556212183+555710296+554772311+554853823+555060153
3763+555492309+555125818+552554739+550948898+551712992+551109142+546761069
3750+544926954+548467627+550156348+547682544+547807362+550399099+550845070
3736+547514543+544565358+546185427+550581992+554366910+555032152+553443485
3723+552327046+551992330+552740328+554445974+555359153+552816613+547782847
3709+547442448+551032608+554082428+554132704+551753893+551066250+552178873
3696+553009752+553303775+552311034+548608706+546271004+548592114+551857016
3682+553417974+553287348+551377239+545513008+541350731+543372799+543629820
3669+542287347+544271294+546589874+546968145+546362263+545556813+543197995
3655+541125983+541592943+539347205+530785293+527146183+530425646+533074047
3642+532987973+531298671+529361515+527305017+525291203+523269384+517504087
3628+508665450+506856971+509258432+510278052+506677023+500762019+499319990
3615+499364873+497618575+496262288+494288836+491281992+490294768+489690379
3601+486963204+484171816+482888205+481443396+479590283+478622307+477225866
3588+473116934+469615047+469639189+470427881+469631722+467683782+466178202
3574+465609571+465730988+465388017+461686934+455639644+454145721+455775787
3561+455986722+454928067+454137591+453078313+450989542+448911017+447838009
3547+446983154+445652337+444549545+444483631+444815775+444426759+443931923
3534+444008872+443355618+441357443+439564685+438819715+437752888+436350681
3520+436296962+436980539+436840165+436067485+435342882+434806731+434256185
3507+433666730+432599115+430634084+429438414+429616952+429332719+428456832
3493+427943744+427093867+425798724+425042761+424752389+424408464+424202756
3480+424478402+424607535+423696596+422225695+421103532+420436049+420098761
3466+419724679+419072959+418483214+417952040+417200184+416389299+415971661
3453+416306045+416864389+416569827+415632796+415030606+414595214+414106227
3439+413724139+413497566+413688050+413811168+413552405+413679173+414088432
3426+414155798+413837301+412863227+411497732+411265517+412151484+412378845
3412+411915370+411926611+412511089+413250376+413615001+413179028+412406181
3399+412150488+412550330+413169362+413299698+412730237+412541993+413321725
3385+414249173+414811749+415385773+416186246+417023140+417884425+418829752
3372+419804324+420885255+421926778+422603013+423236149+424123319+424827803
3358+425463925+426564684+427930761+428988254+429516524+430253655+431657189
3345+432920183+433789101+434732852+435687471+436342675+436933333+437649101
3331+437764212+437237228+437026999+437358355+438124896+438931259+438805860
3318+438099717+437964611+437885878+437218686+436712941+436678387+436958969
3304+437850162+439183385+440285182+440986181+441424726+441661131+442054502
3291+442585344+442772053+443122242+444040398+444846886+445385983+445766370
3277+446054958+446695644+447400170+447947936+448896167+450119297+450864724
3264+450725345+449923379+449176832+449320566+450375696+451365325+452031065
3250+453113407+454381337+454651964+454097478+453832907+453868374+454282320
3237+455347157+456041519+455793832+455691621+456400710+457058942+456985104
3223+456912926+457515365+458211843+458446298+458602850+458662667+458271536
3210+458214498+458775373+458638317+457702365+457378185+457997798+459127801
3196+460480396+461437463+461826561+462144892+462592397+463051558+463523745
3183+464147838+464599242+464669927+465168786+466084868+466329611+466067902
3169+466192140+466905667+467841329+468364331+468713068+469423982+469636161
3156+469004311+468643420+469057408+470015055+470898533+471147880+471347656
3142+471806319+471788731+471411703+471250422+471192929+471384491+471907120
3129+472326624+472755504+473232295+473312438+473431573+473828719+473561577
3115+472809098+472636451+472826147+473022232+473608783+474451609+474848838
3102+474601441+474256479+474237646+474473221+474809016+474824903+474484463
3088+474583231+475169782+475770355+476323389+476433772+476168165+476259756
3075+476618532+476879078+477108638+476978469+476202511+475606170+475926285
3061+476646366+477197243+477486578+477415396+477343135+477450572+477286927
3047+477181978+477465713+477686977+478054256+478707718+478815653+477973449
3034+476981538+476911185+477655948+478188657+478316711+478588955+479140579
3020+479854770+480339443+480136929+479718378+479701122+480015844+480442774
3007+480670675+480613762+480684903+481011240+481266767+481524700+482239928
2993+483355538+484499563+485580784+486442443+487034511+487746960+488619030
2980+489294975+489761147+490134814+490480979+490692910+490345210+489645454
2966+489416226+489640435+489635208+489357322+489257061+489393536+489515700
2953+489589786+489752311+489856182+489964200+490488114+490790765+490323515
2939+490154726+490762143+491302898+491289624+490978221+490731612+490490354
2926+490234910+490196249+490128343+489653709+488933586+488264859+487884472
2912+487976810+488470526+489201227+489961877+490551789+490929646+491168249
2899+491290744+491160699+490902890+490948644+491471065+492155680+492604927
2885+492836395+492911477+492860579+492858671+492836188+492793627+492833201
2872+492735180+492522752+492598456+492793379+492563819+492232960+492347699
2858+492594017+492581573+492219147+491607084+491059981+490562864+490322519
2845+490896170+491803624+492221511+492507860+493250051+494088272+494562740
2831+494804288+495070518+495487451+495917907+496158169+496226946+496223337
2818+496316215+496617164+497069979+497555564+498100053+498659186+498799477
2804+498772472+499497739+500775086+501629485+501714232+501310034+500941759
2791+500917700+501237856+501856017+502482142+502899324+503278052+503616128
2777+503755631+503848135+504101257+504359647+504463268+504586966+504951300
2764+505538184+506087236+506515286+506814867+506820924+506699589+506723856
2750+506958353+507457336+508091467+508678807+509171030+509381176+509329241
2737+509409757+509583026+509741362+510117850+510530054+510895425+511527233
2723+512415025+513237110+513557474+513417556+513359606+513594973+514146888
2710+514815863+515199113+515454267+515728586+515827188+515891651+515988013
2696+516273531+517184097+518188287+518454807+518265775+518063800+517989755
2683+518361805+519000831+519385159+519649149+520069815+520490066+520709048
2669+520801221+520959100+521019954+520893933+521000748+521497575+522040902
2656+522261461+522197496+522303108+522726264+523196293+523520473+523636746
2642+523706684+524037460+524515329+524938567+525509771+526042852+526082841
2629+525831544+525816694+526330113+527252377+528193722+528816445+529003403
2615+529110924+529590743+530213467+530630483+531172732+531982621+532619449
2602+533002035+533461113+534126190+534830633+535277557+535189367+534860085
2588+534971505+535408141+535779403+536264573+536864108+537332769+537686982
2575+538064258+538487869+538810348+538928198+538970634+539060525+539325427
2561+539918533+540573363+540903226+540949437+540905010+540750200+540622893
2548+541063760+541869543+542189948+542110552+542249474+542746550+543316467
2534+543719877+544125734+544745886+545455058+545964868+546219649+546215584
2521+546009337+546234251+547081598+547921479+548604849+549068697+549051068
2507+548982125+549236532+549515870+549594561+549661886+550058534+550609163
2494+550845277+550848927+550900406+551086452+551370187+551647451+551871493
2480+552070772+552265653+552240515+551995026+551896548+551884643+551772228
2467+551734728+551849093+552085622+552327710+552063637+551337831+551008010
2453+551091554+551047957+550764471+550171074+549629447+549631148+549888252
2440+549951263+549843327+549852536+550067038+550133699+549692126+548976774
2426+548663421+548801182+548590662+547777205+546953461+546466548+546218446
2413+546023938+545835819+545676653+545412664+545039328+544594768+544007470
2399+543578673+543483473+543255614+542710710+542175346+541767954+541310743
2386+540627414+539674994+538307756+536342268+534026800+531440123+528074005
2372+524053554+520090473+516267973+512671051+509905961+508080599+506799602
2359+506148463+506659643+508621065+512015017+516185673+519093252+518749452
2345+515498321+512329531+510874020+510276020+510354545+511376821+512407310
2332+512540342+512518398+513068570+513780479+514409301+515216618+516284275
2318+517661095+519445805+521311654+522850833+523923634+524472644+524717511
2305+525089727+525604059+525949601+526217076+526665659+527116897+527373337
2291+527640687+528035842+528321236+528533415+528927699+529221431+529140750
2278+529043143+529147967+529269675+529289918+529187416+529178788+529540053
2264+530022236+530376615+530839343+531513090+532222469+532785583+533095452
2251+533327127+533703284+534125775+534467294+534717056+534838390+535026136
2237+535443898+535774383+536035386+536700256+537571828+538065171+538227323
2224+538598874+539418388+540359110+541085455+541570999+541993407+542590122
2210+543226659+543611817+543999298+544674413+545367822+545836814+546208034
2197+546717845+547386738+548009586+548506371+548909656+549497909+550622562
2183+551769780+552317256+552735641+553466881+554204550+554769863+555336131
2170+555976650+556582159+557244249+558208118+559250388+559862119+560083217
2156+560496914+561277020+561994239+562409263+562509151+562470739+562718302
2143+563135733+563278721+563266732+563237654+562946327+562567475+562459415
2129+562297844+561787577+561204717+560638699+559819061+558538894+556910528
2116+555419053+554322815+553251342+551990380+550787203+549680885+548560297
2102+547449831+546302405+545098315+543917911+542752399+541503882+540078694
2089+538621772+537377279+536273533+535174682+534070563+532928861+531738792
2075+530507407+529225082+527902893+526659146+525605096+524621771+523605469
2062+522582488+521411583+520123078+519093667+518251380+517122580+515754512
2048+514557474+513606961+512742067+511752438+510520140+509280417+508234911
2035+507376862+506667441+505999129+505295806+504426681+503299954+502172854
2021+501397809+500795993+499916953+498943667+498170033+497435931+496721533
2008+496099016+495378727+494386899+493435889+492897830+492443356+491629318
1994+490589496+489594681+488820632+488318703+487856264+487188699+486378063
1981+485671256+485109759+484583688+484098061+483553738+482772927+481750983
1967+480719830+480063755+479783629+479530466+479156301+478651925+477933005
1954+477078606+476397102+475960051+475489026+474733063+473597085+472597210
1940+472504954+472755255+472582940+472179323+471787611+471310073+470633879
1927+469826230+468864352+467959262+467665779+467477908+466928897+466663082
1913+466541167+465937401+465104240+464665239+464625168+464595467+464374535
1900+464064667+463758988+463375157+463033058+462651923+461940553+461459946
1886+461504539+461486743+461378891+461350766+461321521+461290576+461157420
1873+460648895+459216406+457060269+456521587+458042971+459422571+459696848
1859+459350019+459057034+459032725+459001573+458744801+458313515+457699627
1846+456421865+454849832+454938437+455937649+456187742+456122782+456355246
1832+455764463+453725594+452529012+453093744+453700581+454036126+454239677
1819+454150035+453931427+453574974+452743514+451643916+451347986+451808143
1805+451965773+451272696+449738827+448523785+448468905+448383660+446953411
1792+445247351+445890649+447572236+448096565+447419956+446412531+445586215
1778+445299576+445039444+443524614+440874969+440492881+442516899+444129667
1765+444534114+443697552+442678387+442630185+442828385+443360305+443632342
1751+441691412+438611892+438047781+439116890+439670837+439309697+438748823
1738+438916077+438375943+435828841+435448329+437764046+439909357+441014638
1724+440886542+440302562+439305964+436011858+432255148+433656940+437081672
1711+439060309+438990910+436939929+434848918+434516442+433114857+429735755
1697+429124480+431601645+434823987+436593805+436401372+435294058+432472429
1684+428317163+429392286+432819673+434651755+434142235+432669758+431612347
1670+430088143+430317205+432899193+433916077+432727957+432442438+433250585
1657+432963864+429324920+422680874+422961374+425094613+424850327+426636323
1643+430656484+433109796+433173678+431069061+429736958+433950341+439401372
1630+442991408+445252743+447494416+450168577+454066615+458254611+460711864
1616+463209894+468628901+474175050+477995103+481059607+484654912+488326460
1603+491647321+495196457+498946447+502060605+504661219+507626250+511062845
1589+514744556+518411375+521792510+525147345+528673790+531377984+532281497
1576+533971587+538856683+543017882+545528273+549414987+554644257+559090725
1562+561904514+561523877+561231307+569395824+578382426+585395825+591055344
1549+596552420+601195760+603556817+603171577+602536284+611558975+624389482
1535+632722747+638848935+645945007+652623648+657542884+661451085+664878804
1522+669215304+676031291+683519283+691289143+699015945+705045729+708209458
1508+708423172+712054234+722836746+731919337+737741961+741347056+746009353
1495+753417824+760045775+763978990+767318850+773833888+781764863+788443173
1481+793747442+798317650+801705463+802871099+803206769+808000979+816760178
1468+823879937+828129574+832887114+838968418+842470057+842294424+846558828
1454+857802203+868106016+875483956+880396555+885515317+892564059+900641713
1441+908035334+912743759+915315046+920166998+926773213+931830748+937514409
1427+944636324+949386480+952824154+956593931+958342469+961075949+967849169
1414+974379638+978386607+980508730+981758574+983152360+985492594+987260960
1400+985581199+981354293+978698633+979088229+982722527+985641264+982512878
1387+976725513+977638526+983829591+989085741+991765046+992385779+991505951
1373+991053551+992194133+993805781+994787737+993940929+991089226+990030446
1360+992266228+994024722+993952875+992850457+991714189+991217985+991249677
1346+991390715+991724394+991866344+990260918+987950718+987621021+988355082
1333+988845894+989315384+989618615+989261292+989428297+992047039+996012775
1319+998458455+999625419+1001876052+1005765794+1010085038+1013905837+1017488531
1306+1020542250+1022468164+1024037003+1026272204+1029333307+1032348448
1294+1034537771+1036492058+1039000542+1041891818+1044660558+1046840755
1283+1048061645+1049344094+1051478495+1052937491+1052914095+1052627539
1271+1052568552+1051952880+1051023192+1050319827+1048997473+1046808980
1260+1044937490+1044665287+1045200816+1044939730+1045010415+1046300497
1248+1047177337+1046763184+1046015434+1046021739+1046953917+1048201273
1236+1049252005+1050290127+1051104247+1051022113+1050369854+1049960264
1225+1049931558+1049943422+1050057829+1050548807+1051327585+1052263412
1213+1053382258+1054662218+1055654212+1055368237+1053854237+1053529933
1202+1055338038+1056822835+1057074878+1057279051+1057825698+1058353096
1190+1057767872+1056355087+1056047542+1056053930+1054994984+1054544493
1178+1055339366+1056417725+1057458584+1057586597+1056552126+1055554739
1167+1055087572+1054777122+1054439378+1053652802+1052461031+1051390554
1155+1050532795+1050513796+1050915837+1050312941+1049109142+1048166262
1144+1046810639+1044063802+1041386156+1040645209+1040335839+1038527899
1132+1035739580+1032897169+1030450908+1028126189+1024438961+1019572158
1121+1015142158+1011336210+1008267640+1006094246+1003796573+999719251+994471978
1107+991464303+991043596+989754924+986593685+983962415+982417885+980120212
1094+976638069+973406228+972400793+973338944+973357030+971348485+968641885
1080+966299743+963539964+959562115+956352424+955076446+953799224+952322723
1067+951649475+950856095+949608656+948226817+946177951+943273152+940229305
1053+937270496+933640430+929647316+926702694+925679588+925593140+924407675
1040+922434804+920862564+919555060+918473548+917357358+916304136+915920347
1026+915247431+913359099+911500884+910962866+910851529+909706882+908111578
1013+907085900+906291525+905705637+905579450+905458572+905484042+906214618
999+906877828+906661210+906292770+906361214+906442767+905800133+904572107
986+904423105+905583017+905429535+902728244+899409125+897004180+895530749
972+894530376+893175168+891503205+890213206+889369468+888490221+886968256
959+885294054+884058147+882679045+881170023+880341384+880782584+882623626
945+885440816+888088595+889611638+891357770+894405682+897044750+898979043
932+901798224+905289244+908508392+911179649+913239466+915519219+918738035
918+921743968+923317121+924143769+925042097+925268753+924360469+923478568
905+923195994+922954653+922574764+921975685+921321767+920778854+919947062
891+919278211+918881645+917133024+914551948+914115311+915746290+916333754
878+915110956+914602058+916204995+918527640+919971121+919860531+919699416
864+922646444+927969297+931961996+935047076+939403570+943605503+946077732
851+947942501+951041850+955446132+958606293+959498565+960446837+963663165
837+969078190+973796073+975115856+973980086+972792464+973154682+976192887
824+981345748+986754385+990803417+991291822+989597045+991109386+996323971
810+1001795826+1006646783+1009947816+1010192143+1008996308+1009658937
799+1014379309+1020769404+1023375784+1022529889+1022361473+1023585931
787+1025090639+1026042396+1026899906+1029362262+1032147926+1032322647
775+1032168915+1035001371+1039231678+1042394162+1043109805+1042620403
764+1043417102+1043434109+1041305764+1039323270+1038909780+1041364668
752+1044601073+1045213924+1045668232+1047127228+1047223880+1045550175
741+1042276935+1039948731+1040355916+1039699260+1036930271+1034685529
729+1033299127+1032040488+1028758951+1024006970+1022841416+1025316714
718+1027431370+1029194758+1030413823+1029340027+1028528894+1028477622
706+1025046336+1021044843+1021761481+1024554031+1025646826+1025451198
694+1024715976+1024299250+1024766749+1023982081+1021738168+1020870868
683+1021187125+1020020742+1017588336+1018810222+1025323102+1029734933
671+1026631934+1018777866+1013203385+1018311031+1033249763+1048217865
660+1048926705+1036684368+1026853032+1027751194+1032150332+1030781517
648+1027368235+1024493883+1022528395+1030856351+1045255821+1044094747
637+1022533705+994982203+983745051+999819637+1023782305+1038516782+1057080852
623+1073741823+1061426561+1040816031+1042499443+1049185717+1037566933
611+1021995023+1017019456+1018835111+1023073797+1022418801+1015221471
600+1019694861
##END=
