##TITLE=Sample description
##JCAMP-DX=4.24
##DATA TYPE=INFRARED SPECTRUM
##DATE=24/8/2023
##SAMPLING PROCEDURE=Instrument type and / or accessory
##ORIGIN=Default
##XUNITS=1/CM
##YUNITS=ABSORBANCE
##RESOLUTION=4
##FIRSTX=4397.6552
##LASTX=599.8556
##DELTAX=-1.9287962
##MAXY=1.3387614
##MINY=0.3979739
##XFACTOR=1
##YFACTOR=1.2468188e-009
##NPOINTS=1970
##FIRSTY=0.56348443
##XYDATA=(X++(Y..Y))
4398+451937722+452642708+452925811+452588879+453099297+454585662+455113147
4384+453917247+452580657+452473716+453292287+453503061+452251469+450878355
4371+450432809+450603139+451324809+451784745+450689380+448940181+448406912
4357+448838260+449301255+449958340+450287767+449478948+448503909+448531158
4344+448670320+448001092+447521126+447733000+447868289+447966911+448498985
4330+449133172+449581634+449931187+450069488+449721847+448661428+447563577
4317+447190217+446966680+446689121+446704037+446879339+447285016+447461035
4303+447080122+447065589+447494451+447557219+447264268+446907018+446417969
4290+445747212+444762373+443469429+442844708+443449685+444787137+446435657
4276+446941677+445262226+443319655+443009350+443911151+444892930+445180671
4263+444775090+444581860+444882891+445139606+445271740+445235408+444844694
4249+444232451+443787717+443697461+443669017+443580481+443571924+443751529
4236+443765822+443009494+442045976+442036319+442882761+443357851+443203679
4222+443513314+444331886+444422382+443295418+442025420+441952564+442553717
4209+442366320+441511130+440984314+441020120+441214927+440987087+440024669
4195+438711360+437878733+438264953+439868584+441239499+440896018+439607328
4182+438801807+438468700+438414201+439001251+439836316+439899180+439422847
4168+439032660+438321794+437406894+436981379+437063365+437186225+437046394
4155+436906993+437103904+437440884+437180488+436111034+435134418+434888937
4141+435399594+436416845+437354069+437423005+436092963+434731562+434866612
4128+435133414+434598424+434699437+435354848+434957825+433822064+433426092
4114+433906823+434460457+434522270+434006593+433162350+432441971+432569516
4101+433313033+433561047+433359260+432878386+431878489+431361187+432011675
4087+432739368+432556991+432109102+432161162+432068563+431798941+432215517
4074+432551158+431989732+431436098+431190139+430620203+429888494+429350254
4060+429067915+429389597+430066330+430411103+430448200+430152189+429576038
4047+429093730+428563425+428287492+428612282+428664963+428090008+427658517
4033+427843763+428426988+428669409+428142976+427323162+426855147+426953865
4020+427315226+427434118+427274496+427111814+426861410+426425520+426360362
4006+427050576+427883537+427951420+427030450+426102738+426147867+426719619
3993+427000284+426626590+425689365+425094905+425149929+425184780+425129325
3979+425208587+425302763+425249986+424917452+424309941+423491274+422864306
3966+423046445+423689236+423910575+423838437+423983717+424060971+423613034
3952+422983629+422422298+421458828+420850744+421255225+421837017+422677818
3939+423953839+424600885+423682065+421333626+419650064+420249639+421647420
3925+422009737+421534217+421044786+420110430+419021519+419183244+420557219
3912+421961836+422820230+422936827+421201109+417623881+415437119+415419288
3898+416436347+418703422+420787449+420084758+418474434+419241902+419448469
3885+418094286+417912625+417203671+416954079+418969124+419753132+418151843
3871+415979041+415230409+416977504+417347996+415874921+416715100+419053548
3858+421014429+420494163+413213404+408892706+413274786+418083529+420011329
3844+419103505+417407322+415854125+413647764+412969788+414530490+416172031
3831+417715141+419366865+420074576+420294146+419497517+415967137+414636570
3817+415339022+415500174+418012443+421349784+422123371+419384027+417261229
3804+417484576+416288246+415933100+417459143+418225703+419383310+420846728
3790+421547842+421934253+421871914+421608650+422121459+421993006+421078680
3777+421808811+423274094+423505711+421771906+419832107+419595422+420217179
3763+421720706+422649517+421543348+421676390+424084013+424922185+421559219
3750+420870822+427425370+434515864+438781681+444124411+451227812+457159456
3736+459515974+459351906+462264019+468215693+472007902+470575797+466105229
3723+462007399+458117428+454505253+452939101+455587232+463645929+477145547
3709+494198108+512732828+530610940+545920709+559180774+571113045+579147265
3696+582138352+581311462+575135915+561462477+549669081+545781261+542426231
3682+535880002+527322265+518657062+507086200+495800497+491620920+485381219
3669+477648316+476379131+476724190+475518969+474389949+474485416+475274014
3655+478088269+483444862+487863083+488677639+490427985+494226983+495914608
3642+494092841+490030005+486115748+483568439+482585799+482200344+476940892
3628+466490588+463063277+463105393+459202753+449122176+437407133+431012781
3615+427368721+424670441+424462488+425040981+425170773+426018649+426716129
3601+425555606+423075319+420737780+418060965+414457491+410956847+406566783
3588+399945427+395298672+393874024+392471749+390414492+388273505+385935893
3574+383678810+382384216+381478591+378160683+372744190+370897014+371627958
3561+371450098+370619623+370049902+368927384+366907272+365405968+364717332
3547+363362432+361241211+360018421+360235075+360608053+359951470+358856631
3534+358116174+357025303+355298166+354102625+353861567+353458519+352704461
3520+352416171+352238717+351567745+350728139+349975419+349086335+348263987
3507+348056822+347873082+347286080+347067538+346795023+345732070+344696630
3493+344297742+343848371+342866401+341985300+341907449+341985754+341441753
3480+340940872+340686213+339997361+339192462+338787622+338538580+338206213
3466+337585125+336530132+335548664+335132494+334817648+334220511+333686047
3453+333386618+333183349+332661601+331775433+331414909+331470028+331242427
3439+330928824+330678802+330560125+330500607+330190350+329733116+329355573
3426+329038097+328595802+328013891+327419957+326994178+327128200+327626237
3412+327526587+326665827+326038262+326234766+326685260+326644434+326330687
3399+326129522+325930054+325890471+325975708+326001356+326212536+326318784
3385+325985198+326041369+326956699+327943593+328722582+329516175+330129685
3372+330842678+332210151+333883053+335123555+336205749+337769774+339328253
3358+340383939+341537483+343295430+345277226+346929404+347964175+348333902
3345+348539250+349245479+350546670+351880870+352666934+353062882+353391616
3331+353604302+353471499+352888799+352401017+352238956+352057631+352108089
3318+352257839+351717782+350780797+350387765+350465162+350401341+350282043
3304+350425483+350831375+351375376+351736498+351628051+351102455+350694102
3291+351130852+352457977+353966595+354855154+355095208+355483627+356433807
3277+357656907+358711853+359526839+360533094+361670504+362442465+363133635
3264+363892307+364041866+363637002+363447740+363997192+365090142+365782579
3250+365967729+366238140+366670277+367456198+368556654+369276220+369383424
3237+369238430+369245649+369623861+369973175+370027410+370383441+371244344
3223+371847576+371467404+370599138+370299399+370421613+370377489+370324353
3210+370722787+371397082+371457866+371018033+371136351+371667732+371872459
3196+371958317+372194237+372501769+373004012+373779463+374505029+374755147
3183+374753904+375047525+375605557+375901735+375916650+376255041+376766534
3169+377045072+377355784+377677107+377832666+377958299+377971493+377783259
3156+377759882+378155352+378685777+379099222+379447986+379680607+379857224
3142+380228767+380253770+379484987+378780264+378660464+378626737+378337419
3129+377979285+378049320+378787172+379570702+379724660+379478390+379304307
3115+379211827+378864689+378180809+377576644+377476277+377685832+377512298
3102+377103180+377397279+378479688+379149107+378550607+377747907+377974098
3088+378774767+379079430+378821951+378705975+379187016+380087933+380274947
3075+379436680+378928437+379336934+379921140+379785994+378971271+378299725
3061+378185518+378437595+378438814+378219603+378352932+378664073+378774695
3047+378667587+378609097+378637828+378335435+377780487+377514521+377556686
3034+377461768+377098089+376852775+376991769+377217530+377104734+377114510
3020+378739223+381967808+384004030+383202166+381074397+379285806+378311413
3007+377918118+377721877+377804222+378172873+378634243+379320154+380179671
2993+381038375+382198971+383517754+384371868+385112900+386663730+389204921
2980+391790546+393457353+394743485+396421215+398406142+400703238+403156204
2966+405398850+407214928+408262392+408762341+409018004+408538898+407559318
2953+406816805+406095613+405162309+404090703+403010875+402236189+401596266
2939+400712871+399445502+397947592+396892552+396599768+396564655+396120447
2926+395224407+394343999+393401325+392373246+391799653+391402438+390598017
2912+389891310+389777414+389911914+390056095+390320961+390595890+390789358
2899+391155237+391579486+391657337+391563997+391801183+392701669+394290170
2885+396375154+398676003+400996118+403744640+407492295+412163072+417286996
2872+422964363+429850871+437709311+445843922+454072997+461595556+467011858
2858+469783996+470384527+469016911+465301142+459195583+451340776+442912114
2845+434835730+427273110+420335497+414382150+409419712+405149927+401511412
2831+398434992+395731718+393447887+391737458+390477667+389345277+388239802
2818+387328273+386845175+386746959+386663921+386545579+386578182+386557052
2804+386304568+386055765+385848601+385662494+385811790+386161630+386202743
2791+386058108+386120016+386227817+386149368+386118510+386247871+386335498
2777+386420640+386611957+386767492+386981158+387525470+388158461+388358335
2764+388200745+388410586+389229469+390082914+390586209+390771288+390857361
2750+391182175+391711118+392148752+392589852+393267494+393951015+394351959
2737+394727948+395305843+396015012+397016487+398203519+399171793+399981592
2723+400732328+401350308+401842894+402064998+401827214+401310199+400907534
2710+400782165+400949603+401214349+401246379+401114484+401003886+400897806
2696+400866876+400974247+401021646+400920251+400876915+400934664+400909160
2683+400668077+400353996+400212086+400210078+400186151+400012522+399784849
2669+399735992+399737187+399631441+399658380+399981305+400372018+400592234
2656+400668531+400668890+400627825+400668579+400914872+401354467+401840504
2642+402318175+402812674+403152045+403301580+403590372+404118478+404639509
2629+405131235+405685300+406149107+406531025+407028774+407590774+408051283
2615+408485500+409126570+409953412+410778963+411486722+412090838+412749548
2602+413382444+413913562+414577387+415308809+415808519+416166534+416635648
2588+417172598+417596297+417826671+418041986+418504504+419136825+419831820
2575+420604307+421240501+421554917+421699911+421930380+422291311+422590095
2561+422742355+422943711+423326059+423822470+424247173+424539024+424912528
2548+425262846+425250082+425088834+425312563+425938240+426427050+426557941
2534+426666459+426950758+427210389+427432397+427904093+428451321+428639148
2521+428621604+428880518+429332040+429554382+429666390+429906947+430181063
2507+430426257+430627757+430780256+431003411+431428545+431944795+432287081
2494+432317247+432137403+432034908+432160015+432398325+432525965+432486334
2480+432525726+432773931+432985948+432888234+432560863+432356017+432418976
2467+432464248+432221875+431795690+431369314+430970904+430621733+430414832
2453+430226000+429933192+429768790+429683361+429422774+429030436+428663290
2440+428561752+428581543+428238157+427468682+426513195+425715706+425324419
2426+425169721+424979408+424659590+424241197+423865064+423497106+422932525
2413+422343897+421922779+421454813+420952426+420636719+420298018+419674588
2399+419106134+418924235+419109385+420419348+425112163+436492521+457641669
2386+490076759+533045286+583503626+638010268+694912582+753612713+813254992
2372+872449621+929208853+980423331+1021637496+1049903766+1065458680+1068236460
2359+1057354426+1030797676+990105163+939925481+889868946+862592917+873175689
2345+912264141+942264981+942001573+928368339+916293369+909703685+908749967
2332+910184511+907118178+897819554+885230198+870419518+852867295+831311849
2318+805034379+778337990+760174718+752048999+742468705+720440273+686775819
2305+651749296+625140773+606452742+589689498+572523256+554225603+533855253
2291+512961959+493906543+477099893+462617109+451741290+445072917+441308865
2278+438704332+436416654+434250735+432189558+430426305+429113282+427956774
2264+426640119+425270829+423919419+422510881+421148763+420003107+419059572
2251+418081235+416982715+416032440+415481435+415237293+415051282+414939752
2237+414933920+414860825+414884967+415217931+415627098+416079289+416725092
2224+417437153+418143382+418886421+419655514+420399126+421132270+422011697
2210+423031195+424058055+425127604+426247445+427299068+428299300+429421866
2197+430771507+432325995+433974898+435501228+436754638+438036013+439721822
2183+441506684+443058064+444710122+446700021+448788447+450728437+452518701
2170+454349790+456305843+458270357+460217040+462166974+463952313+465504363
2156+467107325+468833004+470295227+471393842+472381358+473196201+473626975
2143+473831343+474028492+474047662+473688357+473097244+472445704+471555759
2129+470224475+468615250+466920789+465069860+462908483+460540683+458221739
2116+455940801+453675113+451388868+448792510+445911615+443126282+440542306
2102+437960289+435307808+432824127+430702476+428810340+427005925+425471612
2089+424508190+424193439+424459237+425387857+427239885+430021298+433388709
2075+437184886+441263545+445153421+448519111+451211367+453234921+454914372
2062+456433053+457677331+458654999+459495848+460179035+460614159+460823882
2048+460745720+460267427+459416157+458082434+456288585+454349838+452243055
2035+449936302+447642170+445326525+442882618+440413614+437983045+435434922
2021+432805148+430230829+427507786+424679811+422114336+419775553+417437726
2008+415085080+412781339+410564125+408399402+406231094+404187222+402429227
1994+400770548+399029309+397603035+396708286+395989436+395295517+394711957
1981+394371893+394319379+394374475+394517102+394924070+395550583+396239841
1967+397135116+398571859+400597277+402996008+405584048+408244561+410929884
1954+413730610+416828542+420215793+423604047+426693278+429446868+432356017
1940+435726965+438837518+441190164+443147699+444957611+446322598+447042786
1927+447211395+446756336+445986621+445550110+444851148+443496678+442366320
1913+441405241+439894113+437833605+435845857+434181178+432521280+430769978
1900+429084790+427397260+425648444+424223366+423096736+421831376+420979770
1886+420969588+421180649+421352891+421696803+422419955+423404220+424166429
1873+424478407+424096633+423174181+423474590+425201846+426626016+427123957
1859+427025430+426700784+426375086+425875902+424952876+423691770+422031489
1846+419498091+416515704+415020208+414333102+412705998+410445616+408346577
1832+405573387+401159469+397096298+394594858+391982389+389536594+387580733
1819+385229712+382381037+379476621+376411101+372996937+370115205+368119617
1805+366281165+363945299+360832404+357990278+356454602+355285952+353111189
1792+350548128+349936601+350382650+350014094+348929294+347845475+346992507
1778+346825714+346853154+345730254+343389774+342725494+344367514+346125365
1765+347034385+346762874+346218442+346600431+347170869+347634916+347454642
1751+345334425+342479225+341678820+342041901+342027655+341299914+340236938
1738+339749060+338627426+335203151+333422783+334528856+335747487+336199749
1724+335657804+334616603+333216670+329970780+326195900+326610134+328843075
1711+330073992+329779821+327953178+325927234+325002725+322996597+319667024
1697+319191456+321170622+323748934+325312815+325272276+324528233+322559727
1684+319495522+320455908+323407030+325209532+325310449+324925926+325031385
1670+325017904+326319501+329046057+330724360+331423179+333259814+335683499
1657+336943243+335960603+334488675+337645265+340880279+343464637+348784492
1643+355162542+360227522+363959306+366991482+372914401+383462562+393504537
1630+402762431+412707528+423325820+435442858+450243499+464026507+476960205
1616+494822733+515125965+533746591+553443268+575816425+599968563+625028574
1603+651754459+679962310+708002795+735118389+761992327+787711191+810490789
1589+830564173+847993058+861705744+870256884+873728893+872997566+866290758
1576+852487146+841815456+833624004+818563875+801446633+789820603+780638528
1562+773864028+765381824+750459135+747563707+752315561+757184300+762063031
1549+767207798+771892486+775323478+776906936+778353479+787898397+800549565
1535+809436872+816854737+825283877+832674684+838399570+843833034+848455145
1522+852719289+859408218+867223346+875210191+883088039+889121078+892910228
1508+894147336+897260518+907700352+916826399+922077438+924019388+925450299
1495+929826499+934568984+935566013+934178031+937147606+942482400+946088742
1481+947621574+948021131+947161399+943827930+938794023+936770039+939760074
1468+943008928+943319376+942597228+943770372+944276057+939586254+934818337
1454+939106766+945129479+948840706+950943283+955203985+961689645+966368931
1441+968824216+970159802+970791885+974423564+980394648+984424641+987694338
1427+992514746+996280949+998268219+1000482181+1001843583+1003694225+1008505741
1414+1012286477+1013105957+1013431703+1014745586+1015351854+1015158624
1402+1015180806+1013016848+1009572948+1008491304+1008199691+1008691130
1391+1009552201+1007078177+1002203366+1001264660+1005112324+1009892957
1379+1012628572+1013276144+1013032337+1013170303+1014673017+1015852185
1368+1015789560+1015500050+1013930982+1011276158+1010587952+1011493768
1356+1011940844+1011569014+1011146223+1011257227+1012029284+1011983869
1344+1010164014+1007807495+1005188717+1002406157+1000761460+1000425675
1333+1000909848+1001999620+1003239213+1004337398+1006177236+1008624872
1321+1010749056+1013940448+1018571833+1022098149+1024334676+1027467554
1310+1031488177+1035518458+1039688903+1043061860+1045426505+1047952350
1298+1050385262+1052187716+1053869891+1056118178+1058781894+1060533101
1287+1061023393+1061963916+1063788552+1064986172+1065369380+1065762914
1275+1065891797+1064958349+1063634140+1062955878+1061857406+1059804738
1263+1058146943+1057503578+1057608750+1058199625+1058813541+1059259757
1252+1059789154+1060142340+1060482714+1061223697+1061566462+1061453068
1240+1061696015+1062102456+1062503639+1063438234+1064538044+1064804129
1229+1064863312+1065846095+1066887774+1066491755+1065600567+1066033110
1217+1067197362+1067838432+1067982135+1068299945+1069610769+1071580637
1205+1072793364+1072854077+1072475363+1071986601+1071494875+1071659229
1194+1072753208+1073741823+1073581197+1072287775+1070568024+1069290568
1182+1068748742+1068784501+1069001250+1069061581+1068912810+1067864247
1171+1066210181+1065560697+1065299393+1063694949+1061212224+1059258323
1159+1057826647+1055836892+1053473298+1051459831+1049091361+1046238814
1148+1043735342+1041590028+1039215726+1036227316+1033039079+1029613537
1136+1025293461+1020192435+1014204238+1008009617+1003187297+998773713+993270644
1123+987717667+982725160+977069497+970511650+964103434+957445197+949621464
1109+941505640+934765273+930465752+927338611+923365411+918921805+914192227
1096+909083075+905154142+902842274+901195952+899683390+897833991+895669937
1082+893868726+892302431+890585261+889376837+888633081+887230567+885546479
1069+884928164+885345983+886123872+886754234+886412903+885651651+886267384
1055+888249682+890248712+891258361+890820464+889538897+888534889+888517487
1042+889433725+890482671+891225758+892112835+893224310+894260730+895573753
1028+897084785+897863535+897584543+897017571+897237093+898341302+899529839
1015+900585956+901874598+903003187+903203491+902546168+901865132+901945636
1001+902598849+903182362+903187811+902060465+900409458+899493794+898959139
988+897892505+896730643+895756561+894047136+890932520+887026246+883858853
974+882035365+880666984+878763182+875937310+872976532+870828541+869036508
961+867462564+866844058+866871785+867321634+868625286+869733033+869722898
947+869854363+870985534+872754141+875374354+878576741+881846534+885637118
934+888844954+890498447+892319641+894730562+896473450+897909524+900063156
920+902479527+904385814+905764330+906011771+904797610+903208176+901933589
907+900796013+899758445+898716957+897341978+895718986+894276793+892902484
893+891105480+889289544+888069838+886882065+885457370+884602322+884465599
880+884625747+885087834+886134676+888607553+892497477+896507201+901281811
866+908083273+915918384+923879988+931354168+936836680+940279528+942877654
853+943896005+941891812+938093101+934646333+932479889+932450154+933834502
839+934546707+935431106+938577465+942525138+943067155+939233355+935640589
826+936136044+940053886+944846376+948549285+950944430+953394264+956427898
812+958316784+958947433+960904298+964302209+967255243+969720184+971949062
799+973801330+976533503+981706905+989670995+997696849+1001504930+1002530355
785+1004846621+1007058385+1007380498+1009183717+1015136729+1022653839
773+1027860514+1029764028+1030079257+1031211480+1033734552+1036099389
762+1036920111+1037003866+1038687954+1042549673+1045599083+1044663149
750+1041877529+1041343448+1042047143+1041202613+1038418810+1035043272
739+1034908365+1038715490+1040448244+1037085040+1032659696+1030363508
727+1030177258+1031672132+1034343879+1036406968+1034835797+1031124570
716+1030471835+1032814777+1034745732+1034507565+1032198661+1029578639
704+1027749510+1026283319+1025673991+1027363816+1029069608+1028098011
692+1026433428+1025303882+1025273573+1027515550+1030703404+1033096350
681+1035192521+1036245004+1032788292+1027470996+1027534290+1032315115
669+1033846512+1029101828+1027527693+1030121039+1032390743+1033811519
658+1035252755+1034666948+1031448499+1029171433+1029638396+1032317218
646+1032947580+1026005283+1013247365+1003745472+1005827875+1019217588
635+1037923164+1046283273+1034100837+1020292157+1018600707+1019223898
623+1012354456+1002874267+996090492+989130603+985733935+992351729+1003827028
609+1012239437+1016120373+1013054518+1004645361+998099561+989465432
##END=
