##TITLE=Sample description
##JCAMP-DX=4.24
##DATA TYPE=INFRARED SPECTRUM
##DATE=24/8/2023
##SAMPLING PROCEDURE=Instrument type and / or accessory
##ORIGIN=Default
##XUNITS=1/CM
##YUNITS=ABSORBANCE
##RESOLUTION=4
##FIRSTX=4397.6552
##LASTX=599.8556
##DELTAX=-1.9287962
##MAXY=1.3784155
##MINY=0.4871358
##XFACTOR=1
##YFACTOR=1.2837494e-009
##NPOINTS=1970
##FIRSTY=0.61261988
##XYDATA=(X++(Y..Y))
4398+477211407+477359426+476539934+475402071+474769043+474907358+475886013
4384+476524195+476303094+476263954+475942193+474548268+473011106+472334201
4371+472677273+472869447+472297660+472299378+473263500+474163130+474698516
4357+475153717+474840313+473329849+472251787+472756761+473725480+473779385
4344+473155828+473091523+473387143+472697099+471730981+471749739+471171869
4330+469336161+468629263+469790480+471009828+470977048+470520269+471040426
4317+471895529+471883875+471056630+469863422+469051359+468969549+468931987
4303+468787311+468976467+469297346+469290939+468900693+468578747+468372319
4290+467710643+466656679+465727566+465838116+467561416+469002329+468602891
4276+468192680+468895447+469260991+468602891+467515451+466779580+466861297
4263+467272946+467170707+466547104+466528903+467299504+467529055+467122141
4249+466540697+465347071+464255406+464641426+465891511+466346294+465758628
4236+464801981+463588994+462222695+461563202+461908735+462246328+462544549
4222+463956164+466004893+467035456+466438690+465116778+464725975+465516541
4209+465802829+464767994+463757954+463802155+464154838+464226062+464016894
4195+463190717+462341138+462549099+463467997+464152285+464144438+463601577
4182+463008664+462437899+462127003+462448578+462787378+462408926+461482460
4168+460764511+460784243+461038263+461031670+461173096+461461613+461487010
4155+461559116+461825857+461627229+460560868+459114245+458181046+457901583
4141+457947224+458512232+459087176+458694516+457745903+457289495+457620216
4128+458089532+458214104+458196600+457897497+457360486+457034732+456939040
4114+456979434+457130286+457452557+457613995+457020757+456074836+455455969
4101+455239930+455581284+456491779+457014535+456259489+454943055+453949219
4087+453147742+452798727+453155914+453555723+453799528+454168694+454288159
4074+453900235+453186047+452150701+451296898+451342214+451836323+451955648
4060+451740352+451708594+452105943+452494284+452551533+452820084+453431383
4047+453477906+452734003+452130969+451949334+451762592+451621305+451597719
4033+451463396+451373415+451412695+450929032+449795208+448896785+448748813
4020+449045269+449085292+448676800+448603254+449461979+450446948+450307472
4006+449526099+449148297+448954684+448726573+448572100+448484950+448525809
3993+448602233+448481747+447867105+446832920+446267030+446651193+446846199
3979+446441050+446773072+447601339+447736218+447518925+447070549+446156340
3966+445877017+446936552+447866315+447596278+446881300+446171337+445825433
3952+446639214+447726421+447428619+447264209+447759572+446581872+445079858
3939+445175875+445783599+446610195+446978107+445906268+445316141+446205788
3925+446679004+446191906+446365740+446996865+446215121+444036898+442624912
3912+442663774+443946127+446084745+447050027+445617287+444026591+442940915
3898+442501732+444027751+445951258+445236792+443640478+444850447+445550102
3885+443590380+442495650+441398924+440568754+442087994+443326610+443369094
3871+442631505+441087610+441439411+441989747+440762599+440515730+442139577
3858+444527154+444990944+438639210+433865358+437055433+441166820+443425274
3844+443608302+442760441+441454269+438708484+436839579+437311913+438274084
3831+439718247+441078696+441071406+441407932+441465737+438183220+436861587
3817+437967692+437934076+439642612+442719211+444161841+442403022+441085799
3804+441975168+439702832+437259911+438788019+440440653+441835321+443289605
3790+443850249+444188492+444384335+443891711+443827545+443589358+442296279
3777+442104848+443228410+444302153+444285253+443685515+443924026+444238173
3763+444917306+445584182+444313807+443449696+445420794+447754187+447384371
3750+447512007+452423153+456974884+457353615+459931740+466037208+471498087
3736+472982226+470385668+469718699+473416998+477817134+479048833+476665528
3723+472905524+469085067+466758593+467158496+470610900+476208888+482173766
3709+489104436+498216116+508802138+519813970+531066589+542409422+552369705
3696+559929504+564470834+564056120+557369068+551464735+550772973+549987700
3682+546954466+543383061+540484986+533915077+524527231+521050311+517612811
3669+512871692+512365417+513536710+514512532+516088138+518449064+520958287
3655+525306746+532556764+539266984+540203109+538425346+539923739+540814083
3642+538306484+534515140+532239228+531503961+531756169+532374943+529071719
3628+520575331+517058481+517297411+516449272+512504383+506376999+502811723
3615+500636333+498426119+498800996+499816748+498632826+498274246+499659071
3601+500128294+499206238+498877327+498677771+497201525+496154572+495477946
3588+491520289+486293835+484640969+484832726+484225513+482548457+480814617
3574+479980453+480812527+482679297+482685658+479401887+477291313+477157548
3561+476280994+475016841+474992790+475434758+474903226+474304138+475244209
3547+476649092+476162504+474133786+472924189+473400097+474240065+474227111
3534+474401502+475135562+475163978+475096515+476147228+476668221+475748022
3520+474850156+474299727+474137083+474621999+474621813+473613537+473056700
3507+474059869+475505146+475670762+474969853+474401920+473773860+473330266
3493+473257325+473041935+472724400+472434583+472227458+472512957+472803517
3480+472293667+471847381+472431101+473131220+473080194+472995087+473299530
3466+473115620+471786650+470585921+470660906+470761427+470094505+469629321
3453+470025742+470897235+471129339+470508847+470085404+469757329+469102014
3439+468711583+468816980+469432504+470146599+469755286+468509195+467918185
3426+468218356+468432121+467561695+465904743+465192691+465917836+466682308
3412+466688809+466295128+465592315+464935329+464770316+464351052+463617131
3399+463308974+463174884+463329961+463640300+463107189+462626173+463552454
3385+464778813+464968340+464786149+464839683+464563284+464163799+464496053
3372+465014446+464949768+464749701+464389218+463564804+463081931+463543957
3358+464429705+464924139+465189023+465789550+465938869+465032832+464185946
3345+464315069+464739858+464400268+463778522+464105344+465097973+465664003
3331+465641345+465360396+465198448+465182894+464437505+462947330+462043661
3318+461942304+461759230+461425954+461475263+461722225+461574252+461298132
3304+461377806+461466395+461328219+461176439+460940899+460535471+460319339
3291+460334475+459802943+459108905+459211980+459064611+458251527+458158759
3277+458750511+458850197+458515946+458501414+458694377+458848339+458992134
3264+458777766+458192560+457710291+457795211+458522214+458761144+457693576
3250+456588168+456614493+457138364+457238700+456935279+456381368+455920874
3237+456446323+457478837+457546114+456788142+456410201+456613843+457105074
3223+457885797+458196507+457618266+456779274+456065504+455651718+455571116
3210+455562108+455068927+454393833+454550767+455371280+455720296+455326382
3196+455223122+455825785+456672160+456934072+456554691+456611661+456684278
3183+456054732+455187464+454799493+455339011+455946643+455505185+454890357
3169+455996787+457471454+456403747+454133453+454440635+457254858+458400196
3156+456595643+455523060+457933480+460933098+459966934+456463410+456117087
3142+460085284+461647008+457651185+454652914+457753796+462926901+462235788
3129+456406719+453996531+458933957+463964150+460934027+455092421+456121034
3115+463766590+466883676+460270541+453973409+456627030+463499616+462558292
3102+454178583+451078026+458321125+466421603+463309485+454361147+453056367
3088+461813367+468491273+462168093+452451940+451651020+458160245+461314847
3075+455897519+450275807+452290224+459710872+462356228+456381136+450698135
3061+451867942+457411188+458584245+453178896+448713061+448874174+451361575
3047+451874721+449699330+447963540+447787663+448279079+448386101+448035600
3034+448004909+448570614+449271987+449058594+448121495+448367668+454256493
3020+477569522+520595528+550499963+538554375+507796183+483984587+470070454
3007+461651372+456104459+453071643+452274020+452035369+450818018+449700352
2993+450105176+452728524+455606728+454467611+450745958+449663440+453454877
2980+459130913+459697129+454835570+451168472+452009740+456361821+458862408
2966+455798855+451454621+451254229+457677232+464591606+461936546+454292802
2953+451230317+454417234+460121453+460240547+454074162+449764936+451460425
2939+457495923+460384712+455646054+450046999+449375759+453735361+458861247
2926+457479951+451445567+448430720+450617068+455249819+455751265+450623150
2912+446398148+446388909+449233636+451199070+449272916+446085813+445265811
2899+447648883+451407959+451955927+448573585+445850737+446134750+448255307
2885+449466483+448081333+446151465+446009714+447593770+449329514+449293902
2872+447646422+446588465+447563869+450011480+452115414+452712970+452488295
2858+452824588+454045143+454987257+454366533+452572055+450860130+449650950
2845+448739434+447934660+447203618+446453586+445659863+445164964+445097733
2831+445008588+444502174+443890318+443624459+443492783+443143072+442465703
2818+441543275+440912522+440930955+441147412+441108086+441016665+441092717
2804+440972371+440469068+440108817+440143593+440226285+440269697+440419899
2791+440473479+440267376+440123582+440276754+440527524+440635892+440512527
2777+440257718+440180737+440366829+440453328+440321838+440283905+440262918
2764+440160401+440362047+440762414+440909783+440895900+441074749+441506317
2750+441757504+441668126+441721242+442052382+442301386+442347770+442429487
2737+442721022+443190430+443583090+443597112+443551193+443854195+444205300
2723+444276895+444182456+444379599+445138174+446000335+446453818+446422896
2710+446060601+445677042+445529162+445623276+445714093+445722590+445899582
2696+446082424+445901810+445637623+445692503+446013939+446416303+446720698
2683+446743914+446506795+446295259+446272833+446293913+446287180+446280959
2669+446169619+446006882+446074113+446377023+446632713+446754871+446833988
2656+446811423+446808359+447207008+447709056+447682638+447468595+447668384
2642+448152046+448655720+449118257+449433843+449642175+449980975+450486924
2629+451018549+451469711+451764449+452059141+452560308+453034499+453337455
2615+453763034+454244932+454555364+454883068+455382006+456032910+456660831
2602+457103124+457420567+457611209+457819541+458235323+458664569+458974397
2588+459324573+459738126+459998832+460216821+460770918+461576156+462266154
2575+462773635+463253212+463668576+463974457+464259538+464403657+464512025
2561+464960169+465702447+466354651+466660626+466699023+466638014+466662622
2548+466879358+467056257+467194851+467598793+468201688+468705455+468958406
2534+469032091+469177742+469544586+470043571+470569810+471094935+471463172
2521+471414374+471039822+470840776+471123164+471633849+471994657+472225972
2507+472430172+472598760+472791863+472925442+472892430+472810574+472824828
2494+472963747+473174447+473337649+473464357+473634662+473566781+473249571
2480+473221573+473548952+473773488+473619340+473357985+473434827+473816668
2467+474096596+473962366+473496440+472922424+472390521+472129676+472199461
2453+472316186+472181399+471832338+471534256+471406388+471341246+471205810
2440+470946451+470570506+470214016+469980008+469742193+469333886+468796922
2426+468425806+468315581+468069362+467532537+467148328+467081097+466929502
2413+466415010+465658199+465049547+464835736+464679638+464166446+463490563
2399+463054955+462867702+463110625+465008595+470561824+481879445+500716378
2386+527522299+560454025+596070108+631875023+667524628+703514288+740361327
2372+778525820+816822872+851699509+881239653+903571614+914978102+918508649
2359+915868818+899049041+868600074+832940996+798536646+778700212+784488841
2345+808864470+823567033+816563327+803269826+793470470+789503387+792406013
2332+798229465+798485666+791582342+784481134+780673771+774960173+762128279
2318+743736658+725848245+716393865+715821846+713306541+700186084+677572711
2305+652578679+632887756+619249697+607136960+594238950+580211389+564533143
2291+548160303+533211986+520235973+508722046+499283962+492479721+487517408
2278+483484906+480147926+477315410+474660675+472255363+470263278+468585061
2264+467224380+466255755+465459896+464436066+463242068+462300048+461601228
2251+460857278+460132597+459664256+459384932+459143589+458961025+458888502
2237+458997102+459230134+459453788+459755027+460182927+460551814+460887829
2224+461453673+462166747+462763885+463283902+463897523+464681913+465535159
2210+466293920+467045578+468034214+469262384+470405633+471225914+471905790
2197+472740465+473774278+474939581+476185115+477466122+478785295+480068252
2183+481139999+482043854+483129437+484584185+486187139+487636827+488824556
2170+489850197+490949012+492318562+493802097+495035328+496016257+497007911
2156+498109327+499282894+500456927+501340724+501759059+502064802+502363533
2143+502426864+502405042+502427653+502264405+501652038+500597703+499287166
2129+497838732+496519095+495501347+494403831+492893413+491146155+489402796
2116+487620948+485626449+483579298+481726504+479827651+477695209+475577624
2102+473674267+471859407+469911988+467914007+466181606+464871302+463703491
2089+462210670+460372315+458663315+457518627+456819807+456177029+455585973
2075+455219965+455038980+455052352+455551847+456681771+458059585+459185608
2062+460082127+461102383+462299769+463564619+464952647+466448394+468005521
2048+469800370+471784747+473607501+475183571+476499958+477523649+478424812
2035+479257304+479886153+480242087+480329004+480136365+479712412+479074833
2021+478361063+477743914+476770739+475138023+473263221+471267840+469180806
2008+467243742+465290705+463092378+460899715+458869326+456777881+454777718
1994+453196586+451584950+449489930+447313333+445466946+444035319+442820661
1981+441530600+440211520+439084057+438271948+437737445+437349985+437062211
1967+436759208+436282603+435830095+435694055+435923605+436423751+437016060
1954+437630423+438424332+439452295+440581429+441843400+443278369+444643136
1940+445934404+447428247+449092210+450694235+452165466+453646401+455107929
1927+456414890+457626299+458662619+459360046+459729769+459957880+460398688
1913+460830395+460788469+460462993+460175823+459815247+459325920+458684905
1900+457954977+457369633+456656420+455663558+454884739+454156529+453288611
1886+452794455+452672390+452829742+453243945+453409979+453241763+453445173
1873+454371408+455291931+455304467+455131097+455812645+456779413+457386533
1859+457581169+457589062+457603176+457647471+457816709+458156252+458295542
1846+457566265+455645868+453886399+452922138+451860652+450569570+449403013
1832+447748336+444749183+441868983+440238078+438303289+436031230+434263496
1819+432621356+430508089+428149206+425869162+423279569+420694246+418630613
1805+417170154+416230687+414448327+411385192+409050407+407692790+405917535
1792+403664327+402351469+402010579+401578965+400534705+399314335+398268311
1778+397459220+396834549+395810950+394047906+393429364+394382110+394982312
1765+395022521+394744218+394392232+394603674+394717753+394792366+395483479
1751+395596211+394168949+393218571+393468597+393460147+392387193+390850728
1738+390293752+390246950+388985699+388033301+388217327+388082540+387906942
1724+387810808+387512309+386988415+385525401+383518529+383459075+384480654
1711+385149062+385122922+384316198+383511913+383589706+382755798+380264892
1697+379463299+380312343+381908355+383665666+384884248+385422559+384631807
1684+383199879+384858874+387303466+388375839+388364743+388717403+389996228
1670+391184142+392810961+395442063+397801828+399622074+401931787+404756689
1657+407248547+408279574+407988968+410760197+414538169+417528919+421040104
1643+425475156+429584083+432695319+434663353+437177776+442652862+448547167
1630+453465463+457988221+462809015+468121317+474194842+479847198+484483293
1616+490048407+497186203+504136514+510554271+516745217+523213909+530107389
1603+537434155+545364838+554017510+563182955+573088218+584138356+595942100
1589+607854909+619196859+629591032+638548981+645337994+649737527+651616925
1576+651740801+653247690+655566457+657265150+660155518+664886237+669946099
1562+674279468+677163150+682930979+694820201+706520964+717782358+728575179
1549+738547952+747502512+755984228+762839496+767848006+778249793+790820888
1535+800718676+810071746+820070009+828905847+836545181+843163795+848078888
1522+853011531+860133169+867970853+875891739+883634426+890207074+895019185
1508+895784539+894899674+902275378+910790105+916357077+918949178+920957374
1495+925052603+929106232+930610939+931003459+934409852+938835664+942055036
1481+944495775+946529228+947363856+945246735+940138679+938268752+942688064
1468+946772522+946947285+946461812+948538817+950076675+947207201+943545907
1454+946647532+951904815+955614025+957420528+960361876+964891228+968584373
1441+971279456+972882038+972659916+974228697+979060680+983059242+985702509
1427+988666887+990633574+991941882+993269783+992507494+993735013+1000301626
1414+1006491318+1010155955+1012202038+1012352471+1011285507+1011672363
1402+1013596056+1014160089+1012795972+1010263673+1007783840+1009200423
1391+1012885860+1012496776+1006878917+1003674310+1006054318+1010574476
1379+1014129259+1015010503+1012678411+1010049723+1010776540+1013536718
1368+1016859165+1019103968+1017571867+1015108285+1015819316+1017479285
1356+1017997910+1017474271+1016404428+1015150258+1014474235+1014032034
1344+1012698747+1010567419+1008070500+1006369857+1006791071+1008594881
1333+1009936805+1010396463+1010742367+1010748589+1010535289+1010583205
1321+1010706895+1011196918+1012937119+1016320018+1020317187+1023658113
1310+1027494449+1034354778+1042310580+1045967973+1045516487+1045206519
1298+1046588094+1048861870+1050755569+1052197967+1053975312+1055373416
1287+1056023159+1057568354+1059897475+1061708342+1063619220+1065086598
1275+1064745801+1064111473+1064449484+1064011091+1061727657+1059068883
1263+1057432221+1056806621+1056441216+1056224388+1056958541+1058742757
1252+1060733031+1062406001+1063624328+1063961318+1063265794+1061925078
1240+1061107536+1062089905+1063825092+1064399989+1064022234+1063550040
1229+1063418735+1064644769+1066720938+1067914193+1068845209+1069848936
1217+1070184161+1070212762+1069871594+1069093146+1068562171+1069494952
1205+1071943677+1073741823+1073722694+1072707081+1071861217+1071311856
1194+1070336359+1069272924+1069249987+1070207191+1071055190+1071590344
1182+1071797515+1071559700+1071510856+1071397845+1070402104+1068793765
1171+1067333259+1066166191+1064795760+1063351690+1062795271+1062672324
1159+1061688934+1060567368+1059971856+1059278097+1058284864+1056334705
1148+1053158792+1049895312+1047085268+1044107333+1040809772+1038249522
1136+1036257763+1032785997+1028059875+1024405731+1021246718+1016504531
1124+1010887787+1005746022+1000910324+996129415+990737949+984255004+978352713
1111+973872021+969258074+964182240+959198152+954527653+951248850+949134237
1097+946396531+943081513+940364422+938018772+935477095+933058364+930910135
1084+929047451+927380424+925037931+922398565+921346830+921873069+922132892
1070+921383324+920406620+919894402+919539583+919291554+919916039+921019869
1057+921419075+921012347+920204091+919298983+918192460+916604921+915191310
1043+914861377+915431260+915887947+915894912+916126412+916767798+917172761
1030+917046750+916854158+916916189+917011463+916743097+916436008+917284937
1016+918822238+919700510+920559189+921710285+922456881+922912360+923296338
1003+923487723+923257151+922863980+923006706+923559689+923803819+923493016
989+922624122+921190546+919826707+918782958+917158925+915097799+913672673
976+912536807+911044914+909522934+907797498+905355924+902420983+899692377
962+897850216+897144756+897335584+897613701+897704146+898069644+898300402
949+898567561+899838168+901388748+902592124+904553983+907554947+910630293
935+913237344+915052483+916355498+918464819+921899255+925468710+928115320
922+930131595+931675118+932279081+932089924+932329875+933867362+935228601
908+934881675+933919643+933359138+932710324+932079338+931577707+930315086
895+928615837+927496314+926323860+924170617+921567094+920337346+921467734
881+923196141+923555418+922965848+922898989+924509928+927539865+930511207
868+933767630+938814492+944399757+948783318+953684296+960240508+966131098
854+969807435+971328207+970480207+968133350+966535504+966847236+967432441
841+966891345+966385721+966342262+966301218+966959318+968765264+971093085
827+972727611+973062279+973436135+976117753+980928657+984581872+986192904
814+987563521+989058293+992089158+996773679+998854306+998655121+1000246002
800+1002448369+1004130718+1006279040+1007449264+1008317136+1011621568
789+1016150827+1019268331+1022777148+1028858101+1034063754+1036042977
777+1037463182+1039565352+1041688787+1043478854+1044999720+1047223908
766+1050750276+1054748188+1056624894+1053622165+1048486993+1047589313
754+1051154497+1053163157+1051822533+1052696812+1056658231+1056827422
743+1052686412+1049636696+1049662047+1051181426+1049294784+1043201759
731+1039712350+1041864386+1044916702+1044331869+1040886475+1036718257
719+1033701692+1033802724+1033847761+1031496632+1031699346+1034990128
708+1037223138+1039019612+1040642438+1039490414+1035872022+1032216392
696+1029370226+1028837672+1032719045+1037232146+1037027482+1034492118
685+1034727148+1038502938+1041809413+1039460792+1033057335+1031060004
673+1037051997+1044152277+1044811027+1040384287+1037077626+1034206109
662+1031502297+1029567925+1029657350+1036033784+1046834824+1052096378
650+1049026047+1047106904+1050654630+1048762788+1034246689+1019235273
638+1015424752+1020445706+1028155985+1030822746+1022623650+1013122747
627+1011631597+1012178265+1010196349+1007722181+999260848+985212114+981310405
613+991586784+1004342811+1012648231+1018988729+1027905541+1037462903+1040367386
600+1038361605
##END=
