##TITLE=Sample description
##JCAMP-DX=4.24
##DATA TYPE=INFRARED SPECTRUM
##DATE=24/8/2023
##SAMPLING PROCEDURE=Instrument type and / or accessory
##ORIGIN=Default
##XUNITS=1/CM
##YUNITS=ABSORBANCE
##RESOLUTION=4
##FIRSTX=4397.6552
##LASTX=599.8556
##DELTAX=-1.9287962
##MAXY=1.4065262
##MINY=0.39542881
##XFACTOR=1
##YFACTOR=1.3099296e-009
##NPOINTS=1970
##FIRSTY=0.64382762
##XYDATA=(X++(Y..Y))
4398+491497873+491210891+491735076+491831040+491364415+491335294+491832769
4384+491655583+490404456+489448227+489119201+488324961+487163336+486910526
4371+488224356+489918174+490184680+489109009+488331377+488581502+489135582
4357+489774069+490305443+489562165+488286102+488225038+488344072+487215845
4344+486335833+487479758+489268994+489645934+489026013+488167432+487098632
4330+486344615+486245284+486834082+487833310+487273178+484307028+482319083
4317+483683648+486167475+487418831+487416146+486748857+486262484+486261892
4303+485845274+484979732+484749855+484950565+484209289+483216568+484392026
4290+487131393+488136309+486458052+484240458+483121924+483192725+484300885
4276+485040659+484194228+483074465+482736884+482566342+481968444+481285228
4263+481276083+481885857+482366724+482304250+481906333+481638871+481435340
4249+480726598+480089158+480388790+480381692+479282678+478788752+479514557
4236+480194268+480775195+481656162+481830299+481035012+480770826+481696204
4222+482469514+481949697+480561971+479050935+478083650+478001837+477751712
4209+477098073+477685597+478925804+478976903+478648105+479018265+479641235
4195+479639688+478765091+477896500+477538215+477310523+477215196+477442615
4182+477555643+477417362+477085696+476316437+475786564+475963795+476235261
4168+476137113+475742791+475666802+476009524+476210326+476002335+475376999
4155+474991504+475556778+476235579+476174606+476013665+475813319+475341098
4141+475176380+475031182+474449664+474079459+474400158+474787928+474711165
4128+474873745+475722224+476210644+475049338+472753753+471272202+471428457
4114+472260191+472581846+472361024+472442837+473248635+474105941+474235759
4101+473565011+472550085+472091560+472094381+471701288+471202584+471029812
4087+470778185+470158718+469960921+470931846+471661382+470656103+469314153
4074+469224286+469815678+470403111+470560184+470079727+469849167+470145159
4060+470537570+470850215+470451934+469478779+469181241+469586620+469668751
4047+469103205+468273882+468090827+469040048+469962604+469655009+468506489
4033+467311192+466599538+466748285+467197619+467234567+467057745+467241301
4020+467911685+468306279+468029854+467498070+466990311+466600539+466390683
4006+466791194+467432137+467208039+466756339+467100927+467862133+468433049
3993+468251677+467296177+466660193+466797109+467033629+466857991+466122676
3979+465666562+466113985+466274289+465675116+465106885+464636347+464282386
3966+464214860+464171633+464148109+464187787+463896254+463743822+464305592
3952+464565682+463698183+462881647+463321198+463676206+463113799+463221503
3939+463775583+463779951+463650998+463050414+462189604+462395502+462621329
3925+461878051+461986756+462818717+461903714+460104422+460115888+461686760
3912+463576556+465327116+465866817+463287890+458505111+456149191+456824579
3898+458852975+461501839+462954086+461985755+461336347+462565361+462085450
3885+459937065+459296622+458245931+458437358+461068249+461968282+460989666
3871+459705231+458415017+459039125+458662685+456247202+456666368+459866309
3858+462579740+461472717+453192323+449216798+454294204+459817530+462716383
3844+462178638+459401095+456566764+454166433+453937694+455685023+457288702
3831+459086310+460644032+460527546+460237424+459011323+455089172+454890464
3817+456731892+456622686+458773301+462697955+464504664+462375663+460321786
3804+459942161+457046858+455599024+457721473+459510163+461143054+462804885
3790+463550438+463420529+462509530+461808660+462255446+461980795+460891473
3777+461608086+463203029+463499612+461796966+460250620+460623920+461405329
3763+462362695+462335621+460046998+459052866+460270323+459326516+453654352
3750+451190091+455952303+458666780+456171851+456483495+459566267+460528638
3736+456899112+452012998+452113512+456464612+460557714+461231328+459444140
3723+458349221+458666098+459816529+460951763+461117892+458402367+453744719
3709+453655444+457329836+460820216+461779220+460305541+460053550+461409060
3696+462646082+463158437+461646809+457679019+456161067+458796598+461803291
3682+462959638+462489964+461112977+456757509+453449956+455449185+455419290
3669+453650575+455362322+457212576+456911307+455993391+455617179+454568627
3655+453822528+454850149+453436215+446345156+442542767+444568614+446412044
3642+445780428+443245320+440476012+437956967+435327168+432820909+427697546
3628+419780668+417905751+419152283+418029244+413393983+408389745+406922891
3615+406060989+403546266+400943542+398014612+395084636+394107432+393480867
3601+391118166+388294074+386147691+383614175+381459670+381143021+380175485
3588+375563817+371528025+371088747+371158069+370144895+368714830+367756600
3574+367174695+366493482+365166457+361240279+355604266+354157638+355504184
3561+355812757+355529938+355517903+354693290+352799967+351288771+350553911
3547+349498648+348069015+347208842+346973778+346476097+345185042+343931684
3534+343332330+342610506+341221370+339728421+338809709+338305477+337847361
3520+337488508+337308274+337128427+336652770+335720840+334183367+332587355
3507+332134313+332272162+331703202+330897814+330417789+329917151+329212891
3493+328383728+327464425+326229063+324761095+323780910+323462577+323322953
3480+323293172+323453863+323507442+323132572+322588617+322365315+322099150
3466+321355257+320521817+319859988+319201913+318351750+317339850+316514600
3453+315999356+315541422+315061670+314784835+314564922+313990571+313669599
3439+314221768+314692966+314248591+313441679+313006541+312730480+312091060
3426+311515162+311422724+311464882+311678856+312202723+312545832+312552361
3412+312623140+312681474+312406163+312233004+312630125+313076160+312825511
3399+312125005+312010294+312646528+313007224+312844485+312898314+313157267
3385+313288541+313731072+314738127+315923890+316925575+317680775+318411312
3372+319185281+320257813+322009692+323801841+325139969+326603683+328101819
3358+329135242+330235462+331831450+333290023+334169602+335008708+336230805
3345+337372432+338229625+339286504+340443351+341348981+342448154+343618879
3331+344035725+344124318+344438419+344383180+343870575+343419057+343158762
3318+343287783+344003032+344709680+344585323+343800160+343210247+343147090
3304+343292197+343438304+343761301+344427294+345160903+345691799+346159812
3291+346501510+346731569+347313747+348268405+349278804+350281353+351099482
3277+351778170+352761631+353831979+354740908+355838648+356739750+356930609
3264+356875642+357202006+357928767+358558858+359167632+359973749+360330690
3250+360174481+360170477+360585025+361235615+361513315+361390049+361755045
3237+362695438+363443471+363941993+364194667+363877744+363841411+364965064
3223+366287676+366570017+366168733+365955942+365889259+365841504+365929073
3210+366291475+367052021+367383732+366836409+366833634+368043263+368932080
3196+368509228+367780443+367673786+368035505+368843920+370031162+370934289
3183+371356891+371484274+371513214+371933108+372604742+373042678+373505868
3169+374274627+374985712+375209469+375126837+375197570+375419962+375738295
3156+376427153+377242233+377457959+377109844+376926107+377050350+377162968
3142+377391981+377606387+377527577+377490538+377410182+377207538+377393710
3129+377764097+377805959+377659351+377702169+378071829+378602407+378955208
3115+378876648+378604818+378594580+378810898+378809555+378572444+378631278
3102+378982691+379098244+378817541+378436187+378430750+378714797+379002553
3088+379578929+380256502+380456052+380419468+380697327+381306351+381910665
3075+382168981+382016776+381847463+381974277+382255617+382337748+382138085
3061+382075610+382173213+382118018+382177399+382432393+382533681+382535910
3047+382601206+382712868+382731615+382283100+381520666+381234207+381617358
3034+382152691+382463334+382479624+382187864+381859657+381922496+382203381
3020+382435305+382863162+383210844+382898881+382517164+382704951+382903431
3007+382903295+383146959+383547879+384007633+384692986+385391263+385951986
2993+386393448+386680612+387134133+387899980+388717153+389594981+390679298
2980+391820948+392619738+392780406+392419665+392133684+392256904+392318923
2966+392091139+391815624+391364424+390762385+390426988+390392407+390652088
2953+391147788+391305772+391252625+391793419+392713473+393024981+392657004
2939+392579924+392999727+393086727+392732174+392614460+392768712+392665513
2926+392367838+392392227+392558811+392180233+391351047+390680117+390298217
2912+390284203+390838556+391510031+391753968+391871546+392068616+392194702
2899+392468989+392982755+393601766+394124040+394298086+394245030+394275107
2885+394531330+394790692+394805026+394860447+395136691+395248808+395064251
2872+394894983+394854031+394919282+395074853+395288850+395595671+395871779
2858+396068712+396301365+396306279+395674163+394534288+393699050+393927926
2845+394875235+395755338+396499891+397222693+397850486+398286397+398400698
2831+398382133+398604912+399121726+399680629+400214870+400914875+401607055
2818+401885027+401958832+402382821+402905232+403091199+403327037+403756304
2804+404042558+404338778+404952101+405593136+405859415+405872610+405903279
2791+406145487+406642189+407278400+407972536+408488621+408765229+409017084
2777+409163419+409158550+409386698+409984960+410571529+410992014+411330551
2764+411541544+411696206+411879352+412061406+412228399+412413184+412784982
2750+413371278+413865704+414171661+414493953+414817610+415071057+415402131
2737+415856561+416321047+416833674+417460330+418017413+418325736+418485904
2723+418781532+419336613+419995347+420636519+421136542+421383482+421598799
2710+422084307+422825492+423601759+424240973+424661641+424911630+425150607
2696+425483592+425916454+426331571+426539015+426509211+426501385+426702823
2683+426998041+427362513+427786184+428068343+428197160+428376575+428685671
2669+428865860+428729126+428619647+428705010+428735860+428778223+429052783
2656+429569232+430188426+430657326+430914368+431143881+431394052+431516816
2642+431593579+431865181+432208995+432509037+432924290+433404110+433801845
2629+434185018+434624524+435050788+435447704+435936443+436550312+437106167
2615+437509180+437932441+438411852+438820825+439283036+439969346+440732554
2602+441370631+441878844+442313072+442829567+443472422+443995333+444429878
2588+444969671+445483299+445922896+446391022+446842404+447337558+447897553
2575+448215341+448264711+448515200+449150365+449765873+450092032+450345980
2561+450681058+451136398+451780800+452426840+452826849+452993569+453065918
2548+453232092+453698171+454351855+454807878+455007541+455243424+455616269
2534+455928187+456129124+456369330+456712917+457190053+457720244+458100051
2521+458362917+458763291+459326016+459867401+460307361+460551253+460641302
2507+460841102+461221636+461659276+461991533+462201981+462502705+462922189
2494+463271555+463547025+463786003+463864221+463813804+463847885+464123674
2480+464458707+464421713+464186422+464278109+464606316+464729035+464463166
2467+464058015+463871001+463894525+463858851+463668561+463532965+463565135
2453+463517676+463246483+462992627+462846656+462659596+462462708+462243251
2440+461882419+461507618+461302994+461131815+460732807+460115342+459456835
2426+458879276+458492007+458396270+458379571+458058507+457570633+457195468
2413+456791272+456249432+455711596+455325419+454950481+454350353+453652350
2399+453129757+452872352+452648890+452071468+451193594+450415507+449795631
2386+449001391+447801362+446196045+444113320+441340918+437862368+434159628
2372+430695229+427287025+423845059+420535094+417413827+415120381+413985147
2359+413261299+413092304+414656213+418227816+422723840+425866038+425555941
2345+422015963+418374060+416751589+416530402+416923723+417507926+418074928
2332+418689117+419281418+419758873+420312179+421055093+422054867+423375931
2318+424926691+426535739+427971151+429084361+429852119+430372391+430950678
2305+431713067+432310647+432559089+432893348+433634442+434430594+434857905
2291+434941538+434959875+435189251+435611739+436013569+436373809+436647460
2278+436824918+437143752+437615746+438069948+438480606+438748522+438888715
2264+439238626+439877431+440470734+440898318+441457585+442293961+443057305
2251+443509233+443835119+444211195+444810049+445624492+446236087+446689152
2237+447482619+448384427+448952203+449481939+450203012+450907386+451630506
2224+452480168+453290471+454019416+454793908+455607533+456438903+457307175
2210+458117069+458950714+460037260+461167307+462047410+462802792+463600945
2197+464597852+465934934+467348732+468496570+469467085+470471091+471558775
2183+472673624+473785560+474987000+476321851+477737470+479062311+480158094
2170+481227259+482488215+483866749+485209017+486559112+488004443+489398585
2156+490637882+491716511+492616225+493455604+494304629+495083308+495772438
2143+496351362+496630473+496504068+496126946+495649855+495107742+494443775
2129+493621596+492741993+491763287+490452233+488907707+487408183+485731109
2116+483725738+481798812+479968441+477809408+475339186+472951778+470811265
2102+468784416+466735135+464546526+462270234+460126672+458077027+455991708
2089+453893921+451803779+449820930+447998659+446123560+444100443+442133293
2075+440303969+438497259+436691005+434896991+433015294+431127181+429450745
2062+427852071+426152656+424503339+422942023+421274186+419518348+417902156
2048+416453777+415028421+413579404+412062863+410463234+408976450+407621395
2035+406165781+404699382+403456399+402284946+400969569+399608463+398258049
2021+396805620+395336491+393994768+392741092+391585428+390527867+389425941
2008+388278603+387132313+385925049+384762832+383728295+382680471+381623114
1994+380562458+379290559+377955366+376934798+376198049+375552555+374790690
1981+373765275+372670516+371821741+371189579+370478107+369558099+368419612
1967+367151830+366162112+365589149+365111285+364562597+363915602+363153713
1954+362356288+361560341+360770037+360002074+359217116+358228058+357171338
1940+356623310+356352413+355866358+355253649+354576190+353871862+353295918
1927+352746365+351850268+350794186+350152764+349492118+348737988+348629078
1913+348642069+348039143+347214075+346812677+346755754+346640474+346356427
1900+346018710+345591763+344927249+344301503+343919444+343454366+343116991
1886+343171115+343194936+343077631+342911343+342666064+342411684+342189520
1873+341786439+340583566+338674500+338049095+339038699+339855440+339969287
1859+339885654+339788962+339621013+339440460+339252036+338797492+337847384
1846+336367175+335225753+335835505+336978952+337208397+336903305+336630565
1832+335686895+333673742+332453192+332734805+333195401+333719563+334183412
1819+334137819+333785814+333307950+332398362+331226908+330712779+330802373
1805+330685273+329975735+328702016+327715437+327584255+327350578+325974092
1792+324460713+325013769+326374466+326740235+326139060+325131415+324129798
1778+323703920+323363610+321801634+319144830+318597007+320411747+321988329
1765+322490696+321831483+320987668+321092937+321390681+321745302+321687856
1751+319724619+316976174+316576028+317682822+318322105+317960295+317265659
1738+317205254+316537282+314198903+313986772+316162276+318073390+319037308
1724+319016764+318592638+317500518+314112767+310686363+312224359+315418976
1711+317192719+317049136+315201384+313435081+313124278+311778597+308755933
1697+308264578+310496732+313340049+314921637+314741039+313563761+310784192
1684+307290103+308825665+312094974+313580369+312850833+311337704+310275182
1670+308922562+309073629+311024899+311591810+310539959+310547445+311347032
1657+310978350+307752314+301953745+301870271+303402511+303085179+304647360
1643+308150777+310449274+310714369+308894373+307803663+311915081+316950510
1630+320204166+322556560+325156509+328123888+332220448+336594504+339508668
1616+342653141+348268701+353954107+358303751+362041913+366088854+370066176
1603+373805499+377752540+381801824+385510934+389004818+392776493+396852259
1589+401002649+405066130+409007437+412917075+416753500+419864119+421795823
1576+425033712+430875054+435583482+438940041+443616436+449399262+454631648
1562+458301125+459068383+460085720+467940305+476957153+484994884+491692349
1549+497633067+502407838+505224605+506010609+507497984+517687150+529202703
1535+536321973+542892851+551331093+558866617+564762470+570007233+574357559
1522+579042508+586030960+593974046+602500289+610949952+617735282+621749347
1508+622815281+628105546+640254717+649549082+655562604+660187126+666580864
1495+674897433+681219050+685141383+690112222+698813148+708228003+716198755
1481+723225292+729587679+734665221+738106914+741213621+747695087+757052882
1468+765252556+771168202+777599297+785687309+791959601+795187617+802111773
1454+815194831+827891212+837905694+845134898+852686985+862092284+871627082
1441+880013406+886052819+891578329+901259918+912221028+920795548+928819129
1427+937636085+945121374+950991792+955540280+957689166+960971147+968984807
1414+976984181+981296240+983660715+986097993+988129301+990399313+993548337
1400+995575277+995480268+994994669+995375977+996877094+997627789+996149878
1387+994316778+995250300+998836600+1002792286+1005400561+1005835380+1004144974
1373+1002664970+1003605864+1005915191+1008291132+1009849127+1009103710
1362+1007454347+1008071175+1009617430+1009585487+1008198490+1007525058
1350+1007735733+1007465723+1006211774+1005180149+1004826597+1003557268
1339+1002276382+1001839470+1000643582+999950402+1001442054+1003994999
1327+1006029310+1007684224+1009214553+1010541215+1012461861+1015501498
1315+1019097443+1022403085+1025291563+1028129352+1031694356+1036203076
1304+1040090235+1042800345+1044864505+1046700063+1049655156+1053790667
1292+1057086207+1059036521+1061100955+1062980013+1063643799+1064512617
1281+1066700817+1068559944+1068492874+1067562355+1067265317+1067209349
1269+1066090268+1063829811+1061714324+1059917626+1058157875+1057354033
1258+1057358037+1057660172+1059202786+1061530587+1063062645+1064103189
1246+1064638476+1064229958+1063871400+1063393355+1062414967+1062438719
1234+1063647075+1064353997+1063986521+1062989568+1061813883+1061638063
1223+1063170758+1064296209+1063452416+1063509294+1066172445+1068733126
1211+1069401553+1069275876+1069469897+1069884877+1070411519+1070927423
1200+1071250306+1071811621+1072545935+1073010876+1072800292+1071647631
1188+1070440185+1070344449+1071328206+1072709106+1073741823+1073193795
1177+1071382171+1070543839+1071085952+1071053464+1069378893+1067569999
1165+1066548748+1065065742+1063088854+1062042304+1062607714+1064025471
1153+1064262719+1062280553+1058935598+1055444853+1053264844+1052265525
1142+1050194448+1047243814+1045437196+1044318206+1042439422+1039496432
1130+1035402237+1030349585+1025163520+1020997159+1018086931+1014288774
1119+1008534023+1002791557+998459933+994950896+990971731+987160924+984252152
1105+980394478+975425822+970695325+965771626+960475082+955772705+951915941
1092+948357216+944835894+940692193+935481466+930614371+927165853+923788954
1078+918921041+913553877+909668265+906223750+900928298+895344908+892152931
1065+890394636+887630288+883667413+880071467+877037018+873925488+871174063
1051+868692829+865963791+863373716+861297179+859540158+857973427+856999135
1038+856415706+855055828+852893473+851275598+850885917+851325923+851501744
1024+850396132+848883640+848206840+847934737+847746176+847494549+847065737
1011+847471070+848726202+849165207+848431257+847992798+848774162+850488866
997+852382211+853441775+853351680+852868447+852321420+851597025+850909852
984+850006633+848545377+846711366+844361543+841337013+838074780+835189306
970+832781786+830420860+828129461+826280253+824728538+823317970+822430405
957+822329390+823041772+824450429+826093785+827989406+830323667+832740106
943+835328997+838604608+842539181+846503148+850257805+854377390+859193431
930+864025671+867787427+871070318+875326591+879448451+882186226+884667732
916+886584739+886730983+886440042+886661456+886007953+884130625+882582186
903+881709272+880350668+877943603+874805500+871990645+870053253+868209323
889+866249089+864411621+862577792+861455526+861442149+861342772+860753974
876+860827869+861539432+861898263+862434096+864325258+867438243+871030640
862+875007621+879521345+884466613+889130586+892649997+895671705+899051333
849+902377360+905943730+910324588+914594330+918170255+922418793+928432906
835+934495434+937591493+937120727+935774955+936511453+939278622+942520652
822+946125971+949620356+951823117+954190868+958256760+961606812+963214313
808+965928608+969948816+973398700+976259422+978594594+980745026+984250514
795+987667090+986766420+985872393+993330290+1004595537+1012104578+1017737657
781+1022297793+1025344710+1029242972+1033941709+1037660510+1040595765
770+1043664704+1045119500+1044131465+1044056660+1045540122+1045448753
758+1044113356+1044636540+1046249774+1045397518+1043090012+1043493343
746+1046332315+1048006067+1047052523+1044331038+1041551492+1040504760
735+1040819817+1038585114+1033326792+1031481588+1034442506+1036905174
723+1037076262+1035916867+1034256584+1033136320+1032874501+1032576279
712+1029916495+1025135582+1022230723+1022355672+1024025511+1027219035
700+1029086718+1027048584+1024921358+1024651803+1023822935+1020981324
689+1017758132+1019019180+1025531269+1029836594+1027418335+1024211797
677+1025255981+1028132355+1028927278+1025031109+1017561745+1016542951
665+1025301392+1034003319+1039346366+1041665339+1042875059+1042914191
654+1037864997+1030417292+1029509433+1034739908+1037094554+1034435407
642+1030140275+1024304075+1017475291+1009235757+998588704+990649939+992502060
629+1004417714+1019222756+1026721970+1020263755+1007038184+1002487421
617+1005103341+999649359+989987519+988098087+990863345+994575958+999955134
604+1001433318+995939749+994692262
##END=
