##TITLE=Sample description
##JCAMP-DX=4.24
##DATA TYPE=INFRARED SPECTRUM
##DATE=24/8/2023
##SAMPLING PROCEDURE=Instrument type and / or accessory
##ORIGIN=Default
##XUNITS=1/CM
##YUNITS=ABSORBANCE
##RESOLUTION=4
##FIRSTX=4397.6552
##LASTX=599.8556
##DELTAX=-1.9287962
##MAXY=1.3993473
##MINY=0.39547703
##XFACTOR=1
##YFACTOR=1.3032437e-009
##NPOINTS=1970
##FIRSTY=0.46984664
##XYDATA=(X++(Y..Y))
4398+360520924+360878897+361236412+361147570+360595930+360370385+361126989
4384+361819587+361086971+359787942+359349955+359843077+360639242+361008145
4371+361111714+361742110+362181835+361658940+361301837+361661662+362083961
4357+362156475+361724479+360928771+360056891+359542616+359540833+359375796
4344+358527469+357295237+356130763+355473222+355527442+355493414+355087945
4330+355389938+356344577+356649611+356196668+355655387+355207681+355010103
4317+354704978+354205363+353990954+353443110+352954837+353624635+354419062
4303+354440261+354351602+354611106+354772118+354494069+353974009+353325958
4290+352745711+352560458+352859661+353098629+352979168+353513657+354710375
4276+354861737+353824705+352809832+352103651+351903215+352458834+353236156
4263+353374415+352585659+351432390+350436748+350076901+350425177+350563002
4249+350250307+350040015+350018245+350083601+350269425+350322066+349799514
4236+349141013+349070626+349361664+349617875+349773468+349829128+350007565
4222+350448251+350524561+349656750+348664654+348553127+349276276+350173220
4209+350267069+349774222+349818151+350147905+350332494+350533525+350411937
4195+349795970+349217666+349454919+350358815+351080797+351579498+351592373
4182+350429637+348709337+347741160+347967140+348649424+348817525+348476086
4168+348222573+348187677+347926275+347397594+347349023+347992134+348696623
4155+348855828+348201855+347230842+346523015+346120016+346273939+346725395
4141+346498181+345799707+345596115+345517701+345082046+345155589+345744184
4128+345929527+345628221+344745226+343696921+343475720+343851781+344273166
4114+344599787+344552359+344269507+344264774+344576073+344733427+344646094
4101+344526107+344352403+344215219+343974444+343742976+344172251+344569579
4087+344028504+343383517+343439452+344041447+344466171+344210554+343806000
4074+343477595+342982576+342789526+343287793+344093540+344796587+345522114
4060+346126625+345970095+345121653+344037628+343006793+342449893+342444222
4047+342537912+342287098+342016023+342084878+342119522+342129653+341928507
4033+341295321+341194954+341764568+341851992+341290450+341050247+341165615
4020+340821866+340323897+340040359+339760983+339761417+339975643+339934138
4006+339491669+338776272+338047933+337385384+337056087+337442004+337892454
3993+337532332+336748172+336109909+335428243+334811841+334943628+335638283
3979+336117936+336117204+335225542+333763238+332867895+332475552+332207450
3966+332429450+332773565+332343810+331750162+331592717+331234516+330992072
3952+331335706+331212632+330302196+330313950+330873068+330080630+329100584
3939+329054711+329537999+330426940+330175325+328362389+327624056+328203960
3925+328138833+327711639+328254292+328253286+326053952+323642222+323327676
3912+324658833+326669622+328730537+329169691+326665597+323646842+321610509
3898+320238784+321118852+323295638+322795336+320726051+321874564+322946904
3885+321332574+320611003+319195829+317946378+320345691+322695335+322800527
3871+320902682+317374935+317241570+318551803+316658898+315016349+316589952
3858+320115161+322011153+315137777+307776128+309996135+314467751+317541024
3844+318471697+317918319+316281465+312550583+309986667+310798634+311590684
3831+311417163+311735551+312341548+314023772+315445281+312421860+310405011
3817+310323053+307757925+307940136+311464545+313749313+311964732+310411345
3804+311963315+310147862+306924806+307249025+307440909+307648755+308651027
3790+309319202+309882139+309771893+308654343+308309062+307734943+305957406
3777+305869777+307646719+309262673+308927362+307197184+306428643+306278150
3763+307038184+308214687+307535284+306572527+307844160+309312685+306867179
3750+303455920+305778488+308147593+305613886+305587656+309676374+313138765
3736+312247378+307810155+306367837+309280098+312985277+314616757+314497662
3723+314257527+314077031+314711247+316868664+320231489+322260664+321115216
3709+322334161+328444461+337310080+347249022+357330385+366854208+374827388
3696+380731375+385134205+388094899+387582478+386003318+388369679+392875917
3682+397389655+401903806+406655324+408919328+409488690+414079539+419303277
3669+423069651+429008694+436599478+443663526+450183686+456797969+463089177
3655+469533461+477020060+483678616+486662498+490768550+498973426+507600808
3642+515013041+521585797+528343050+535189030+542288752+549892617+555384411
3628+557761657+563477007+572217996+580446747+586164613+589263154+593439822
3615+599435806+605451364+611626678+617506905+622828929+629052630+635736341
3601+641161590+645818527+650766159+655052683+658908515+663984893+669598573
3588+672155194+673710708+678986813+684936695+688057419+688391060+689504677
3574+694416315+701480591+707816848+710678434+707795398+705426339+708126067
3561+712140784+714915426+717885634+720720190+720910861+720536515+724033277
3547+728432951+728922459+727864091+728922825+731831930+734080064+735578362
3534+738080878+740734778+742217023+743728951+746498699+748707729+749379036
3520+749670372+749577986+748298075+747013316+748284217+751272628+753011038
3507+753846582+754683955+754156395+752565710+752698572+756298651+761008229
3493+762103231+760785040+761587745+763663593+764078506+763681887+763463866
3480+763018126+763866934+765740859+765934503+765172868+764485873+763312755
3466+763563478+766028170+768316779+768830024+767940467+767688647+768877590
3453+770692287+773184146+774493648+773161278+771750335+771927880+772836372
3439+772493538+770442479+769212283+770430862+773559361+776861289+778578478
3426+779199659+779573227+779768244+779315461+777776824+777623793+780008356
3412+782689377+784431447+785434428+787415969+791352799+795214714+797633670
3399+799763669+801789573+802671722+803149842+803108405+802944215+805610052
3385+809981004+812085848+812370232+814322685+818466880+820786499+820176203
3372+820074670+820430127+820117021+820621119+822517774+825323471+826902813
3358+825985814+824146694+821462837+817877439+815881537+817371695+820879067
3345+823863499+824619508+822203479+818289243+815307373+814303293+814696711
3331+814927218+815427108+815883367+813440994+809390923+807895460+808259790
3318+809153464+812381757+815559376+814848279+813143438+813567041+814314544
3304+814452940+815868366+819110471+822240342+823783096+824889714+827273820
3291+830088664+832312786+834277314+833894781+831376487+832093896+835677281
3277+836918911+835813847+835034330+835858943+837645375+838539049+839072967
3264+840085645+839745646+837571375+836252635+837500759+838969330+838050319
3250+836605439+836685385+836825336+836765514+837711966+837783131+836392128
3237+836401458+838107214+839126843+837459689+834494101+833395348+832976868
3223+831893665+831625929+832132863+832264032+831430272+830536233+829635515
3210+827296231+824890446+824251062+824460074+823772668+822855577+823403581
3196+823406417+821808964+820596970+819152365+817563693+817734653+818447305
3183+818283755+817991413+817170093+814844620+812464813+811931627+812519787
3169+813029922+812666050+810876873+809353694+808607929+807981351+808732696
3156+809743087+808567682+805814856+803029374+801267547+800899833+801141591
3142+800580964+798808709+796852140+795315241+794524564+794535997+794175967
3129+792606504+790267768+788383643+787738223+787725874+787245010+785423543
3115+782633305+780129555+778270860+776582576+774511210+772508814+770924898
3102+769165266+768059288+768139417+767458231+765570539+764200986+762895281
3088+760832422+759605290+759599710+759116833+757865553+757155553+756883335
3075+756660419+757394430+757590133+755306005+752163512+749533074+746965111
3061+744406661+742104239+739768339+737582725+736431331+735321923+732696516
3047+729967564+729290402+729993724+729892420+728596502+727177234+726713749
3034+727903881+728841370+727236828+724908474+723958911+723501966+722704612
3020+721986288+721884069+722936171+724471561+724975659+725324851+727070396
3007+729421069+731663211+734504307+738877043+744901063+751679263+759325799
2993+768221192+777472957+787543206+798973723+809220878+814900600+815987187
2980+815987919+816212206+815227244+813204084+810040643+804350676+796883972
2966+790251211+785105681+780296765+775517119+770836903+767152031+765451855
2953+764600899+763919484+764113677+764945379+765715064+765960618+765176435
2939+763712530+763165990+763909376+763926253+762151071+759318344+756035945
2926+752549383+748269079+742674471+736097096+729137554+722766675+717566308
2912+713521954+709864797+705726777+701832344+699150728+697454211+695539536
2899+692937774+690907571+689840193+689252673+689174831+688824314+687507448
2885+686047202+684981791+683790058+682380075+680733685+678598838+676376179
2872+673938700+670753626+667474017+664887989+662462721+659622951+657229104
2858+655314245+652371250+648604374+645410794+642729681+639856570+636642089
2845+633327629+630434943+627911115+625123621+622438530+620399499+618357633
2831+616016015+613911400+611850416+609516620+607577064+606316270+605120879
2818+603721506+602473016+601523910+600408739+598844673+597237112+596230929
2804+595876203+595391269+594289498+592885003+591800520+591075702+589845323
2791+587990012+586338179+584950790+583263100+581366947+579785684+578374787
2777+576839763+575351526+574022952+572960331+572096934+571171520+570187381
2764+569067179+567846267+567094602+566953050+566633358+565594063+564380926
2750+563715107+563296671+562428564+561282841+560412813+559794513+559114196
2737+558369803+557667807+556828147+555721025+554489686+553269597+552234325
2723+551534799+550992055+550546819+550197673+549389571+548112129+547224310
2710+546778113+546082429+545202567+544698652+544548091+544471849+544124716
2696+543212840+542272012+541674980+540912384+539928474+539173333+538542868
2683+537680752+536646030+535502411+534196979+532935134+531828789+530805226
2669+529927423+529143103+528147027+526884816+525705706+524742789+523802419
2656+522933122+522244847+521589501+520945453+520277667+519405169+518581242
2642+518354942+518710262+518833794+518216638+517348118+516747061+516560277
2629+516732334+516846170+516598695+516223205+516075891+516028875+515879319
2615+515798047+515728986+515617254+515638887+515682656+515533467+515262895
2602+515341148+515854439+516131551+515861757+515281555+514722391+514543748
2588+514684339+514568994+513962448+513415085+513208406+512905224+512330373
2575+511658563+510829193+509752074+508735234+507951372+507013472+505976554
2561+505217800+504385366+503320230+502602501+502419696+502310113+501918937
2548+501337683+500666513+499841168+499030962+498566379+498521147+498677563
2534+498820075+498933362+499032151+498926730+498586411+498429996+498612984
2521+498816233+498929611+499082140+499324173+499553399+499604120+499519143
2507+499560809+499871994+500197814+500207281+500025391+499985647+500176135
2494+500327658+500142062+499814687+499592641+499334189+498926639+498452955
2480+498029032+497607029+497127766+496742626+496578527+496511570+496219502
2467+495777834+495530495+495295597+494829186+494100937+493181103+492450019
2453+491989553+491536908+491018861+490451144+489919651+489483013+489061651
2440+488436262+487591891+487020837+486837483+486633273+486220143+485635551
2426+485165206+484962506+484697148+484079031+483389063+483216457+483458536
2413+483637271+483658766+483398028+482859399+482258662+481765907+481656370
2399+481923603+482208399+482336458+482328135+482238539+482390701+483218332
2386+484636868+486380950+488548360+491081290+493501206+495414647+496984796
2372+498716758+500577557+502002358+502627930+502700878+502868865+503085606
2359+503129650+502740257+501003081+498288993+496180536+495699763+496694512
2345+497749130+497612792+496724103+495985473+495921032+496064367+495915498
2332+495867933+495768641+495166303+494715761+495029004+495281694+494677846
2318+493630318+492704446+492046037+491378571+490320935+488910723+487373275
2305+485821969+484422963+483352612+482499918+481696206+480915499+479957292
2291+478748088+477679293+477064240+476736225+476436794+476215205+476021697
2278+475629652+475255260+475204173+475260199+475107534+474741329+474310500
2264+473932449+473701118+473561122+473251995+472842387+472719175+472685513
2251+472323287+471964217+471900645+471789964+471568970+471478505+471411182
2237+471208025+470885223+470461940+470158255+470173531+470290934+470245930
2224+470013914+469830194+469974764+470337767+470642229+470856729+471122133
2210+471497760+471925616+472341719+472698594+473045590+473403105+473681543
2197+473870386+474054334+474403937+474972660+475502461+475691258+475471178
2183+475044876+474695090+474511553+474332132+473954173+473322336+472567470
2170+471996872+471732612+471537229+471363983+471300776+471084630+470514307
2156+469793468+469220904+468903179+468766704+468627576+468254419+467801271
2143+467611925+467614624+467614532+467451942+467047776+466680474+466575007
2129+466557354+466405786+466135854+465905804+465773674+465545042+465104928
2116+464731359+464554454+464320105+464015185+463854150+463809878+463691972
2102+463373286+463069876+463117944+463315568+463435487+463613124+463751245
2089+463819574+464064809+464506203+465099943+465755334+466157167+466282117
2075+466506496+466960650+467397745+467762990+468276738+468903224+469489052
2062+470075519+470532372+470789910+471121630+471625865+472186263+472616590
2048+472823132+473049340+473361348+473584172+473748043+473951841+474255068
2035+474626624+474947688+475146592+475202252+475174034+475128938+475141424
2021+475291666+475392650+475129579+474578419+474172973+474173567+474381527
2008+474372883+474002836+473465717+473035985+472825876+472632597+472375517
1994+472244439+471990835+471280241+470579389+470296880+470250001+470229648
1981+470079544+469774762+469491979+469331675+469361129+469405356+469136613
1967+468705509+468406490+468270884+468184078+467894343+467364541+466777753
1954+466289754+465950076+465569967+464992601+464309677+463552707+462546569
1940+461467163+460626680+459928252+459306979+458647654+457867679+457350959
1927+457273345+457227107+456911622+456480198+455916690+455160726+454742748
1913+454831796+455048354+455091757+454926331+454740644+454623698+454573023
1900+454612082+454709681+454695869+454744852+455145816+455287917+455011399
1886+454960404+455022330+455186475+455559678+455897252+456053622+456149164
1873+456541347+456953882+456660168+456140703+456353419+456964538+457310437
1859+457292691+457107051+456861542+456801491+457165455+457828621+458372235
1846+458189338+457312907+457020839+457435386+457945201+458519961+459252874
1832+459653335+459137391+458857489+459530489+460052652+460343531+461000889
1819+462075813+462978634+463489409+464023006+464537898+464977371+465394983
1805+466082206+467052624+467047639+466163204+466141800+466563391+466335764
1792+465850510+466310381+467471334+468468141+469163872+469785373+470533607
1778+471615575+472653133+473012614+472626652+473354534+475632807+477804883
1765+479612263+480890756+481747612+483156910+484633804+486118473+488267132
1751+490351258+491692775+493506695+496208389+498640745+500399920+502791069
1738+506410448+510045468+513393863+517044297+520627407+523857942+527063596
1724+530547872+534127553+537538697+540446247+543074581+546903978+551543535
1711+556216571+560596487+564747908+569632928+575208419+580464584+585534239
1697+591130951+598085919+605487541+612254079+618995782+625120100+630025061
1684+636070988+644754488+653676682+661884897+669795282+678527307+687519340
1670+696974308+707515130+717088096+725299879+732688969+739719676+746631790
1657+752611400+756722300+759081297+763397046+768802675+774700830+783154325
1643+792398498+800748631+807763650+812787524+819009670+830150498+841297455
1630+851206166+861279708+871634250+882068280+893766168+905795822+915988368
1616+925444571+936461913+946205610+953180565+959194706+965948300+972550875
1603+976876275+979326514+981362572+982574108+982485290+981669275+981231585
1589+980174635+976679795+971370439+965498628+959995536+955110242+947645001
1576+936753889+931576070+929921355+924787533+918941974+917111543+917297962
1562+917960488+915464055+907433340+909802444+918565387+926787734+933795802
1549+940345781+947083825+953580843+958149098+961072061+969262760+981218962
1535+991569205+1001507918+1012685335+1021649240+1026368240+1029823931
1524+1033368898+1033674229+1032131475+1032877789+1035767273+1038881868
1512+1040868440+1041409401+1036194261+1025839719+1028524582+1035633451
1501+1037773145+1034877624+1032979231+1034925829+1036462180+1033452045
1489+1028589801+1030415018+1035747332+1040092581+1043331577+1047069640
1477+1050525514+1049569365+1041956216+1031077818+1026803551+1028121194
1466+1028136013+1026291587+1026543956+1026067665+1016308693+1001649607
1454+1001480751+1006886609+1009227906+1008157327+1007679390+1008093754
1443+1004944675+998573613+992866724+987627161+986665524+993911051+1002105042
1429+1005301321+1005380444+1004261751+1001871150+999548696+1001899141
1418+1008297278+1011952468+1015005685+1015291716+1010714862+1006396689
1406+1004646570+1005789777+1008295997+1009608518+1008215228+1001736688
1395+992971276+989733560+992292559+992554258+985406880+978724359+977902582
1381+979349931+979629741+978554406+977849163+979172294+981576706+980786852
1368+977116112+974911290+973550656+973640023+977846510+981985857+982677288
1354+981118527+978074548+974562419+973193369+973616789+973370275+971942775
1341+968926969+964320570+961032637+960140701+959283524+958068055+959360269
1327+962757144+965125699+967113369+969614649+971393764+973225293+976347754
1314+980326752+984922174+990309189+995190733+998095585+1000532652+1003551294
1300+1005830939+1008387651+1013521839+1019762097+1023799911+1025696018
1288+1027439276+1029099296+1030659612+1032866172+1035324827+1037060951
1277+1037629444+1038288860+1039499665+1039557292+1039190401+1039076793
1265+1037266121+1034702548+1034072037+1034491524+1034739320+1035829931
1254+1036555664+1036743454+1038889369+1041118156+1041615485+1042846048
1242+1044498841+1043990078+1042506964+1042175381+1041656464+1040336443
1231+1040192651+1042042199+1044419901+1045342206+1044338401+1042399943
1219+1041621065+1042807355+1044537625+1045993481+1047005884+1048037314
1207+1049767400+1051631492+1052059852+1051524196+1052229714+1052911815
1196+1052118851+1050742483+1049459051+1049354682+1050430566+1052010915
1184+1053515891+1054328978+1053803476+1051805104+1050567682+1050416114
1173+1050304611+1051957404+1055114899+1055883349+1054430054+1054500304
1161+1054326600+1053198303+1054252783+1055583415+1055998054+1057039545
1150+1057627522+1056463825+1055058919+1055535941+1056508097+1056720585
1138+1056077725+1054021544+1051751502+1049019989+1045691351+1043658404
1126+1042734087+1042235843+1042146201+1042255235+1041833827+1040594850
1115+1040038796+1039187016+1037521508+1036731197+1035311929+1034226898
1103+1034500031+1034110272+1034795026+1037452356+1040601801+1042329235
1092+1042713597+1044801336+1047356219+1049145945+1051335491+1053220896
1080+1055268662+1057843211+1060061388+1061536727+1062198338+1061949537
1069+1061186027+1061932798+1064295133+1065673970+1066733573+1069337210
1057+1071711711+1071978898+1069845607+1067122691+1066683630+1067624868
1045+1068052496+1068654194+1070385104+1072530470+1073741823+1073596841
1034+1071887976+1071021469+1072692008+1073445731+1072833148+1073148175
1022+1073196655+1072456195+1072060948+1072233097+1072612428+1072670329
1011+1072358321+1072293376+1072234835+1071386714+1071189227+1072327495
999+1072385305+1070540788+1068511499+1067977215+1068203881+1067574285
988+1067158182+1067879524+1069068193+1069718279+1068973154+1067269320
976+1065374951+1063952116+1063794786+1064333002+1063718224+1062336643
964+1061367780+1060072364+1059253971+1059087951+1057946482+1056542307
953+1056769522+1059139815+1060004035+1056690216+1053952391+1054387520
941+1054910003+1055251100+1056914412+1058131711+1057659994+1057419425
930+1057562760+1056956580+1056794859+1057404972+1058850766+1060924419
918+1060722725+1058572511+1057079518+1057312403+1059321752+1060522769
907+1060454623+1060059741+1058296817+1056135809+1054739227+1053122473
895+1050811087+1051359091+1055390593+1056897673+1056937829+1058292152
883+1057193948+1054786517+1053332308+1052766833+1054177045+1055796634
872+1056633413+1056533526+1055416754+1055091482+1055630614+1058362036
860+1061892459+1063967117+1066439218+1066266429+1064480362+1063158512
849+1059341326+1058732494+1062656609+1065765899+1067662280+1068398806
837+1068428260+1064167622+1056253350+1050725104+1046731653+1047615997
826+1054037551+1059663945+1064256258+1064959306+1062530013+1061746288
814+1063167385+1067574468+1069886220+1068573882+1064143748+1057007073
802+1056302744+1059605861+1060770747+1061630851+1061015982+1059141279
791+1055322996+1053201961+1055960642+1057662189+1058525678+1061147060
779+1063869426+1062356035+1054176953+1049214823+1051187765+1051898314
768+1050616893+1049024471+1044298153+1035975096+1028949009+1028322431
756+1030433952+1031325431+1034201835+1037965509+1038151379+1033617883
745+1027789245+1026414158+1029288275+1035676991+1042488212+1042312953
733+1038421585+1032651398+1026732478+1026129500+1026643477+1030721995
721+1035365166+1031823675+1028853879+1026863739+1025270219+1027771042
710+1031873801+1037333809+1034602387+1025630159+1022015125+1020475115
698+1021729734+1024508996+1026437575+1028873271+1027981518+1027539346
687+1029104052+1032561664+1036907736+1035327845+1036868678+1038187419
675+1029153447+1025099626+1024217660+1021015710+1027105589+1029847439
664+1026037297+1020198415+1009731089+1002379365+1000626227+1010073832
652+1028118542+1033131347+1027329602+1017050067+1013460371+1020762701
640+1019088320+1027491598+1045609668+1049649951+1041604417+1007204746+971335406
627+944403810+923508583+926815450+953024058+991221797+994186562+973957062
613+969497383+956199572+970407339+1001952103+1006639088+1016166364+1011376931
600+1000748433
##END=
