##TITLE=<SNM>
##JCAMP-DX=4.24
##DATA TYPE=INFRARED SPECTRUM
##DATE=29/4/2025
##SAMPLING PROCEDURE=Instrument type and / or accessory
##ORIGIN=Admin
##XUNITS=1/CM
##YUNITS=ABSORBANCE
##RESOLUTION=4
##FIRSTX=4497.3318
##LASTX=599.83466
##DELTAX=-1.4281778
##MAXY=2.110136
##MINY=0.38075522
##XFACTOR=1
##YFACTOR=1.9652173e-09
##NPOINTS=2730
##FIRSTY=0.39955851
##XYDATA=(X++(Y..Y))
4497+203315180+205005809+205685090+204647007+202629166+200973234+200218614
4487+199959431+199792662+199792207+200006897+200172801+200183113+200349032
4477+200819159+201246339+201405646+201524736+201604746+201200299+200279789
4467+199495006+199327919+199664094+200159911+200444328+200227030+199641620
4457+199186097+199211043+199710484+200349290+200527644+199886806+198834711
4447+198110177+197954373+198059557+198075844+197923619+197803134+198030016
4437+198763360+199713198+200165749+199751854+199186536+199539408+200776788
4427+201847976+202123158+201808593+201096313+199869821+198306229+197052638
4417+196634254+197014513+197811656+198771519+199822977+200738163+201096449
4407+200671544+199622436+198320969+197206820+196710093+197020625+197791032
4397+198213162+197750057+196801856+196281169+196569151+197114223+197061327
4387+196210304+195160847+194468084+194110481+193997866+194391562+195305717
4377+196086907+196180732+195771553+195313027+195049082+195130472+195617053
4367+196284930+196775257+196936172+196769706+196266732+195631111+195393628
4357+195941172+197079268+198247799+198945915+198864768+198048851+197046890
4347+196458508+196310195+196257360+196248807+196562675+197287345+198060664
4337+198282405+197600000+196342784+195251973+194612560+194107160+193747130
4327+194155945+195459035+196710321+196985655+196470973+195989230+195938215
4317+196072030+196004789+195677910+195383286+195391793+195683020+196132568
4307+196765187+197606794+198409108+198805412+198736427+198457666+198189262
4297+198041647+198183136+198736215+199468376+199844496+199514144+198692691
4287+197977424+197693689+197528088+197097374+196663203+196720057+197184588
4277+197664663+198148575+198733819+199086918+199000827+199058984+199781531
4267+200532057+200321978+199327615+198508817+198192947+198114651+198341882
4257+199041818+199764562+200002378+200095308+200682918+201573507+201935629
4247+201432018+200518985+199770749+199425550+199474639+199827572+200332487
4237+200678823+200455596+199653069+198975972+199115701+199882666+200606835
4227+201112812+201713494+202472982+202978004+202852575+202343808+202201591
4217+202821017+203810542+204583542+204961148+205023400+204769585+204109442
4207+203099475+202171777+201911942+202441667+203234715+203677743+203614687
4197+203303185+203059500+202969906+202864146+202620613+202449492+202655067
4187+203143893+203468634+203472364+203557000+204108168+205088321+206347402
4177+207755645+208890874+209268662+209070002+209011617+209341135+209427241
4167+208558262+206910929+205396153+204601801+204348304+204355159+204719708
4157+205497970+206394110+207094971+207514523+207642878+207503028+207324704
4147+207406018+207607468+207364057+206550687+205872786+205968689+206632153
4137+207250229+207486255+207314862+206885028+206529123+206621538+207225449
4127+207883424+207994825+207530931+207042758+206845281+206675889+206292945
4117+205940922+206055417+206745344+207658483+208327801+208546737+208313212
4107+207735809+207300258+207763637+209271467+210897038+211508699+210922728
4097+209872998+209108702+208904583+209171470+209508495+209336434+208601770
4087+208122180+208613250+209711325+210540800+210783135+210654536+210386588
4077+210167349+210137322+210126131+209797644+209258031+209081315+209553550
4067+210302210+210786380+210788518+210403527+209890407+209482805+209162568
4057+208847214+208725743+208991902+209461756+209821832+209936918+209753165
4047+209319676+208922053+208843393+209056429+209305922+209348384+209135544
4037+208897455+208897076+209108733+209349885+209577101+209778354+209774153
4027+209473706+209222697+209550380+210533339+211698382+212610475+213208154
4017+213462651+213123731+212067041+210633730+209424997+208883458+209121926
4007+209978152+211073618+211986970+212573730+212964317+213169711+213008872
3997+212533331+212145974+212187632+212675623+213386326+213920813+213877472
3987+213286207+212706044+212631797+212966562+213312109+213656565+214398977
3977+215605360+216674516+217037533+216824421+216435320+215843222+214873078
3967+213871178+213508252+214036506+215058347+215872839+215970683+215445083
3957+214925078+214929870+215435999+216219797+217286814+218603446+219661698
3947+219858675+219305110+218675267+218203441+217477270+216396270+215524183
3937+215337412+215936183+217388631+219484617+221134680+221144810+219849364
3927+218854212+219174525+220311696+221171212+221514257+221907680+222560059
3917+222839184+221920601+219760452+217320677+215825403+215816077+217107808
3907+219702355+224015692+229603669+234347674+236235477+235213696+232205071
3897+228130005+224427798+222830161+223969500+226220259+226914356+226000671
3887+225958953+227833364+229889361+230732726+231179348+231199138+229231568
3878+226119776+225104335+227469452+231376613+234887893+237418400+237985279
3868+236218644+234136685+233484625+233274500+231594457+228669633+226321166
3858+226305152+230326807+239467890+249579284+251317970+244346666+235576001
3848+229413395+227280361+228706332+232005456+235659514+239458928+243402636
3838+245888117+245182145+242202971+239029367+236494008+234451796+233010464
3828+232437382+232562144+233770923+237701938+244489064+249607566+249123730
3818+245665572+242514791+239358718+235493762+232300292+231341824+233101408
3808+236612461+239530840+240997210+242891230+245806151+247045836+245366460
3798+243058514+241402689+239762483+238146982+237426695+237836602+239090466
3788+241208790+244050707+246623342+248190922+249585850+251915148+254427608
3778+255404683+255131745+255738674+258822669+264406263+270917010+276144441
3768+279555573+282535718+286065500+290318193+295946160+303475350+311630062
3758+318325547+323768078+330381885+340173921+352834549+364572879+371579153
3748+375791386+381008869+386970949+389700934+388664747+388241707+391849710
3738+400068691+410521067+418682118+421433910+419460957+415804639+413385019
3728+413599390+415916617+418432959+419681394+419508787+418395987+417252311
3718+417085284+418520036+422328518+429315381+437642761+441869491+439602976
3708+434826427+432240690+433665251+438029891+442330929+444331270+444804294
3698+445518227+447205443+450345851+455862932+464122009+473207361+478113327
3688+475045953+467090356+460223114+457860089+460129213+464969515+470722077
3678+477749673+485304674+488643863+486048573+482398928+480553572+478372556
3668+474014134+469389598+466936766+467088203+468567235+470071836+471704823
3658+474134755+477008413+479727115+483579606+491016442+501787676+509282927
3648+506517031+497034602+488165229+482725610+480356549+480011882+480850258
3638+482782691+486570943+492233486+498055746+502764750+506830733+509638999
3628+508771749+505544870+504546656+508144710+515188442+521736282+523950781
3618+522223803+520052917+519477076+520712348+524137795+529904400+535874699
3608+538488096+537119313+534879882+534068984+533996920+533428176+532976687
3598+533959736+536449691+539245856+540876325+541235248+542441464+546472355
3588+551515533+553098870+550099799+545416878+542064162+541650463+543914946
3578+546453975+546689516+544658936+542775820+543172594+546183251+550929137
3568+556267545+560473621+561450605+558920796+554700890+550809637+548458896
3558+548169125+549940931+553248275+556934680+559378351+559793263+559427486
3548+560047730+561306659+561200748+559382901+558017453+558928561+561351183
3538+562810896+561915864+559719562+558022973+557370155+557251019+557310830
3528+557840934+559225186+561310784+563289318+563875351+562294258+559727023
3518+558641580+560044818+562229838+562719482+560863420+558182205+556813057
3508+557889826+560907095+564229906+566065890+565316501+562778322+561011611
3498+561697732+564151048+566750979+568846586+570620698+571950902+572339548
3488+571504205+569648324+567472707+565717765+564399813+563217073+562417458
3478+562279215+562542356+562990024+563826034+564845176+564976019+563468749
3468+561069844+559636397+560364191+562028812+561951653+559342926+556330995
3458+555281099+556609120+559103381+560975276+560892536+558883126+556183774
3448+554394862+554636712+556529231+557916394+556905745+554397713+552977369
3438+553634616+555148800+556215863+556771748+557059942+556707509+555587005
3428+554468685+553821690+552946978+551320816+550002562+550540734+553009458
3418+555750119+556901195+556257415+555269938+555112769+555385070+554928363
3408+553492793+552079000+551581410+551618169+551313537+550934536+551546227
3398+553204600+554823362+555602170+555412670+554288587+552706160+551594937
3388+551382143+551660934+551999354+552411657+552823415+552787565+552165440
3378+551796266+552830027+555055749+556459654+555597621+553997360+554612812
3368+558352476+563310246+567409985+570519336+573066250+574431879+574153452
3358+573264122+573020088+572993701+571747086+569272356+567328519+566962924
3348+567064590+566252418+565019391+564775296+565878452+567616289+569290675
3338+570683844+572043044+573819400+575978942+577764093+578287525+577273660
3328+575472495+574178322+574117602+574922737+575604066+575253453+573459082
3318+570673957+568198863+567207079+567638733+568503374+569265623+570153497
3308+571160811+571858760+572208523+572463536+572312918+571216557+569577171
3298+568689781+569470106+571681331+574391298+576928083+579099271+580511306
3288+580399449+578668042+576426246+575083485+575291547+576594333+577864242
3278+578271935+577880802+577303929+576988621+576859658+576678044+576515173
3268+576455908+576302682+576148849+576662212+578310151+580658223+582585257
3258+583003930+581628352+579438237+578035120+578014981+578201570+576973153
3248+574305950+571856152+570973615+571770076+573656468+575521023+576164136
3238+575438222+574274528+573471941+573372035+574189908+575492270+576247603
3228+576120946+575542132+574556474+572998311+571527559+571114103+571624371
3218+572109345+572422773+573121814+573554499+571999126+568503132+565551679
3208+565022181+566178110+567045178+566527146+565046081+563876867+563919147
3198+564925247+565930922+566162945+565425203+564136308+562741683+560770914
3188+557506457+553684235+551279810+551376501+553232928+555437237+556936196
3178+557040106+555614181+553442264+551536400+550025370+548392899+546730401
3168+546037062+546913472+548294691+548130364+545724726+542794260+541386048
3158+541408067+541127638+539784574+538519336+538547482+539446336+539692129
3148+538485609+536538436+535136532+534935385+535701637+536769610+537528583
3138+537699097+537364013+536843554+536400800+535880098+534823650+532998464
3128+530933975+529687784+529675106+530104334+530005216+529390977+528984497
3118+529249155+529919079+530244579+529672316+528401983+527034776+525600844
3108+523592101+521099356+519143023+518518957+518892681+519425818+519642252
3098+519284481+518109748+516404970+515164057+515183953+516124359+516804899
3088+516531324+515808504+515418888+515279007+514855482+514134664+513346210
3078+512346843+511104959+510169649+509993615+510194762+509904081+508736081
3068+507272547+506597163+507281403+508681275+509355779+508530566+507015866
3058+506151679+506088077+505843346+504883317+503687747+502783615+502177444
3048+501756588+501678519+502354085+503964597+505739770+506242638+504908794
3038+502711703+500885243+499726523+499006282+498671744+498539203+497984683
3028+496653660+495045453+493774846+492736111+491614667+490576812+489845864
3018+489261742+488651840+488129986+487886377+488007059+488348087+488495854
3008+488217881+487826627+487727570+487908851+488136476+488102234+487415021
2998+486180083+485189421+484815485+484395842+483387224+482260715+481622000
2988+481416091+481430315+481612992+481647719+481162442+480452968+480152672
2978+480248879+480079699+479182422+477619558+475648212+473630644+472200988
2968+472008940+473076670+474547362+475271880+474720484+473343724+472034781
2958+471204047+470528906+469742636+469277741+469617465+470369068+470627023
2948+470040384+468972806+467903923+467166605+466961455+467123082+467068489
2938+466427074+465508324+464713167+463898175+462851403+461979816+461940781
2928+462834509+464030110+464555149+463844310+462422873+461336672+460712879
2918+459732863+458147585+456747380+456199472+456433618+457129383+457960693
2908+458441329+458130176+457047099+455712951+454718013+454206895+453860680
2898+453403914+452894039+452534965+452511884+452857886+453161942+452746303
2888+451501720+450167815+449522276+449666342+450154136+450392165+449937885
2878+448841827+447693449+446988251+446556052+446008326+445478100+445297304
2868+445210804+444683672+443886241+443613819+444147229+444766897+444626227
2858+443766469+442963548+442771045+443027695+443255684+443197694+442836041
2848+442201330+441388036+440544595+439699546+438801723+437995800+437598025
2838+437682857+437906934+437854160+437361361+436469877+435353195+434379335
2828+433911741+433868157+433726850+433186282+432640983+432678289+433156438
2818+433195988+432229893+430677007+429386292+428754796+428566114+428446160
2808+428236217+427915661+427404998+426678933+425934215+425390736+425033724
2798+424725512+424405563+424108392+423919437+423871001+423817468+423517264
2788+422888800+422111478+421485683+421178655+421060884+420875872+420534601
2778+420077501+419500264+418846384+418266691+417813260+417405658+416997358
2768+416512112+415770821+414767633+413836629+413327756+413258452+413355326
2758+413306070+412937806+412264848+411444124+410662464+410044919+409687513
2748+409675593+409844288+409668011+408803945+407630031+406831629+406590841
2738+406504097+406148147+405461693+404627744+403818182+403123144+402569170
2728+402148192+401945013+402132785+402600865+402801072+402332446+401411148
2718+400462614+399673493+399089099+398662449+398179296+397508704+396820976
2708+396339793+396045534+395735108+395303424+394942257+394923028+395113499
2698+394995547+394311397+393392344+392735946+392480145+392320489+391865481
2688+391115941+390495878+390239986+389963954+389203738+388205069+387653612
2678+387723947+387972985+388086206+388069616+387779390+386960910+385738528
2668+384565311+383806914+383629697+383979127+384488698+384712410+384536164
2658+384157436+383720323+383208598+382669547+382280476+382086790+381897896
2648+381583224+381247565+380991126+380727712+380338065+379844963+379416100
2638+379221382+379193752+378995486+378397807+377615571+377101269+377070181
2628+377301446+377355099+376993719+376396556+375907488+375657692+375529154
2618+375370287+375157523+375030532+375146028+375414386+375510562+375223733
2608+374646072+374019155+373591626+373559901+373892831+374241715+374223426
2598+373806088+373332700+373137741+373189726+373208591+373071986+372866804
2588+372581340+372091120+371462504+370972223+370827580+371009499+371295448
2578+371400965+371226205+370915385+370614817+370334661+370062724+369819297
2568+369614389+369482575+369491765+369635801+369796155+369837737+369703194
2558+369430014+369082010+368706375+368410235+368351274+368518452+368669373
2548+368635282+368526823+368500951+368520787+368522880+368647475+369075944
2538+369692336+370095813+370007948+369564708+369131932+368915287+368863392
2528+368893510+369009218+369171968+369231748+369038668+368595034+368113337
2518+367872761+367976397+368327495+368795090+369230080+369461890+369500773
2508+369528677+369559613+369424676+369133813+368887414+368731064+368533950
2498+368276359+368117037+368194135+368446054+368629610+368545233+368256220
2488+368032599+368071299+368324371+368598431+368756753+368790813+368784201
2478+368870641+369074094+369154134+368870975+368430526+368338990+368761393
2468+369311697+369555700+369512996+369525340+369728004+369857816+369650875
2458+369236752+368959417+368932939+368970669+368879862+368662306+368468953
2448+368507654+368967393+369834340+370727674+371123963+370868981+370337087
2438+370021414+370096420+370415823+370779053+371063213+371154081+370964429
2428+370625614+370458982+370578694+370700620+370554582+370321649+370389679
2418+370795765+371222232+371492228+371732955+372018905+372181654+372085479
2408+371878417+371863161+372192694+372714458+373123880+373320842+373543887
2398+374060252+374815494+375500007+375865208+375879494+375684109+375481445
2388+375348025+375096378+374459816+373400852+372021725+370247644+367933754
2378+365260334+362666924+360362071+358177719+355908474+353533135+351134867
2368+348900259+347187232+346277004+346012225+345963515+346075493+346967765
2358+349459783+353799310+359421848+365417745+370889241+374852254+376383878
2348+375091829+371519343+367310689+364416043+363529503+363915147+364660259
2338+365367368+365908997+366096617+365839876+365470641+365597389+366523570
2328+367896964+369061992+369759486+370347642+371277523+372520681+373626687
2318+374212265+374349204+374519536+375129589+376097717+377078006+377985231
2308+379012562+380227755+381437156+382435643+383223854+383938788+384638011
2298+385267840+385853205+386498047+387105735+387386346+387292445+387175979
2288+387359231+387802410+388300244+388751339+389084026+389110110+388677546
2278+387932282+387256171+386890575+386702470+386404389+385968792+385665282
2268+385635104+385663917+385542476+385396954+385432015+385609445+385812503
2258+386081134+386502778+387055751+387651520+388214471+388706693+389128217
2248+389449834+389552652+389340434+388908235+388481828+388172525+387876294
2238+387433024+386795491+386013619+385199234+384581689+384404988+384640923
2228+384983983+385238663+385513420+385961301+386570020+387281223+388085478
2218+388939656+389793956+390716588+391821200+393104817+394521765+396166307
2208+398180388+400476535+402738744+404761984+406641218+408573864+410671503
2198+412990640+415480414+417880623+419964704+421848367+423776614+425734645
2188+427544728+429193728+430817586+432470287+434090687+435607450+436948755
2178+438038353+438891681+439599458+440131321+440353942+440307355+440196469
2168+440091316+439894385+439503403+438773820+437539973+435898100+434262323
2158+432963116+431921287+430831811+429560021+428189994+426794702+425401351
2148+424036692+422673277+421585681+421809332+424413388+429178533+434760824
2138+440156616+445306343+450513848+456021284+461876148+467778388+473287523
2128+478249660+482897125+487619929+492513369+497059018+500609666+503116333
2118+504914344+506141882+506904950+507627436+508865650+511081727+514665132
2108+519808034+526334279+533966348+542703938+552456849+562303903+570673047
2098+576256581+578383124+577025199+573017116+567631939+561605772+554941284
2088+547417310+538966155+529734674+519829023+509213229+498228231+487805881
2078+478725716+471074448+464566371+458944288+454108626+450146493+447157006
2068+445075169+443688157+442555187+441106272+439250604+437486441+436132944
2058+435055114+434193050+433701009+433631190+433910467+434467777+435299632
2048+436559775+438442831+441038667+444552587+449403959+455911672+464194831
2038+474308515+486131434+499361140+513691970+528482599+542426542+554268205
2028+563634411+570688272+575392667+577517876+577279787+575665817+573644457
2018+571223411+567922801+563870740+559690506+555632803+551383720+546502200
2008+540879419+534859561+528884469+523099667+517401122+511716469+506166449
1998+501086724+496935666+494042567+492257477+490861396+489139301+487110540
1988+485343193+484194512+483629317+483553977+483926973+484636236+485508884
1978+486461270+487567914+488869335+490197962+491459561+492968316+495081181
1968+497570075+499777326+501383471+502695871+504204111+506122168+508368089
1958+510802511+513323584+515780298+518036592+520118126+522164902+524314678
1948+526692353+529468378+532797620+536409535+539356196+540935165+541819582
1938+543286331+545680383+548431296+551124036+553806040+556497809+559049516
1928+561427797+563762342+566008324+567862385+569356673+571188593+573796531
1918+576421332+577858965+577985319+577691180+577802976+578712749+580351407
1908+582118967+583359031+584063107+584663273+585258586+585652692+586090957
1898+587239911+589184779+591029255+591978942+592348177+592836608+593371747
1888+593457155+593154464+592800758+592328887+591570157+590668694+589838325
1878+589170160+588691009+588373942+588504057+589992340+593291251+596646273
1868+596863738+593241571+588436846+584846344+582802479+581554469+580426867
1858+579105398+577476991+575550260+573569785+572033824+571290501+571290137
1848+572093695+573985364+576151094+576138234+572835986+568361188+564954909
1838+562915049+561503924+560314026+559775854+560554662+562313669+563378003
1828+562560554+560373351+557468241+553935972+550413955+547943108+546712082
1818+546027053+545402866+545186129+546018561+547814509+549330211+549214351
1808+547700045+546448637+546798097+548809933+551549260+553713958+554409785
1798+553970002+553865850+555573054+559235377+562680539+562949746+560321911
1788+557912816+557814244+559852649+562742593+565496539+567642190+569034571
1778+570273179+572729771+577613779+584567127+590567696+592229466+590112446
1768+586987931+584536737+583875001+585777650+589171919+591520962+592206233
1758+592720141+593466012+594076126+595754516+600216818+606663053+611535717
1748+612777722+612166334+612243068+613917758+616666669+619287710+620686399
1738+621425172+623808306+629043532+634210698+634804556+631643827+627935827
1728+625041515+623689109+624360672+626456582+629332332+633986137+641888505
1718+651573173+657379935+655981792+650905554+646592657+645004528+646519198
1708+650601589+655628267+659612936+662771905+667599014+674800218+680488268
1698+681512506+679919888+677395296+674324283+672627149+674013584+677920608
1688+683010980+689781804+698712534+705147790+703914701+698877832+695843396
1678+696986829+701891158+708032942+712675342+716239093+720142478+722264472
1668+719662842+715174821+713789902+716449097+720178024+722271812+723487612
1658+725948936+731293046+740989422+753443201+759190334+755320676+751566029
1648+752175112+753518055+750691621+745230438+741312192+740445002+742753160
1638+747993361+753795391+754808709+749361174+742589379+738484666+737640406
1628+739321647+742718342+747161111+751076749+752288910+751391390+751738120
1618+754941614+758404428+758295726+755358285+752627269+751071289+749885455
1608+748136457+745951316+744512713+744823594+746581387+748684395+750866867
1598+753826873+757517949+760587142+762118918+762820386+763655001+764401721
1588+764263963+763119316+761611076+760411047+759734936+759758593+761288367
1578+764990180+769047639+769279723+765703658+763167965+764445275+767952855
1568+770184946+770287582+769751291+769933816+772890789+781717124+796149983
1558+805436482+802383242+795446332+790589864+787894637+786070785+784474406
1548+783866051+786100144+792387450+801932117+812564106+821151746+822641242
1538+816832964+811123926+810350213+813884423+817632094+819318795+821169701
1528+825312084+830884699+836132300+841217152+846826344+852047983+856334615
1518+860833737+865211480+867361923+867578053+869301635+875209030+884870830
1508+894762651+898663791+894223205+888214812+885937711+887641214+891756119
1498+896101469+898825388+900436204+903737845+910462810+918847665+924295018
1488+924281066+921289335+918745332+918321079+920268677+923687755+927348440
1478+931272874+936824440+944868933+953732150+958988425+958253777+954761786
1468+952499607+952190001+951236614+946729667+940207850+936662661+939484788
1458+947203418+951651040+946759936+937583716+930221703+926835442+927422991
1448+930236504+932962668+934975596+937078118+939539017+942017387+944726808
1438+947962027+950824068+952435308+953934995+956266690+957971346+957009224
1428+954190554+952722531+954338624+957933069+961505252+964151285+965587279
1418+964833280+961491907+957202485+954527397+955171177+958128636+960457904
1408+961021371+961497124+963118980+964700557+964821209+964004306+963600010
1398+964101604+965224717+966906443+969085397+971069087+972245398+972344152
1388+970650900+966664412+962176936+960186149+961646711+965357743+970015066
1378+974752216+978469558+980468534+981605113+983571394+987201082+991839054
1368+995781018+997928792+999266822+1001383963+1003726940+1003890963+1001747193
1358+1000913608+1004409360+1010706312+1015380740+1016731508+1016974025
1350+1018570222+1021983901+1026165046+1030102945+1033236378+1035508565
1341+1037522585+1040022609+1043360464+1046689584+1048639790+1049618715
1332+1051429282+1054618157+1057680982+1058827933+1058323488+1058041906
1324+1058542469+1058591846+1057695176+1057344078+1059057348+1062866649
1315+1067863544+1072120149+1073253271+1071623711+1070624284+1071709120
1307+1072793835+1072678946+1072839693+1073741823+1073683226+1071670176
1298+1068916352+1066797998+1064399881+1060315549+1055781972+1053002186
1290+1051736220+1049969449+1047123300+1044368627+1042255853+1039847546
1281+1035800459+1029525223+1021918631+1015066887+1010400769+1007131460
1273+1003252703+998291537+993387148+988242001+981002339+971727426+963156710
1263+957438936+953803728+949597834+943420989+936421599+929980157+923901823
1253+917292474+910258145+904250115+900283645+897021432+891630675+882937305
1243+872368584+861698925+851753541+843062538+836072005+830291873+824698755
1233+819539474+816233405+815143777+814824101+813738597+811609991+809020251
1223+806865501+805986483+806407339+807287813+808101197+809317362+811673562
1213+815296336+819442176+822830985+824849191+826559731+829685277+834529795
1203+839548588+843115736+845268485+847604304+851746566+857978126+864843336
1193+869786669+871216476+870461689+870546006+872868480+876138578+878719522
1183+880947428+884340423+889505951+895977299+903329788+910985817+917698651
1173+923278060+929643496+938172842+947568346+955912559+963335170+970424336
1163+975389749+975759530+972692702+970606254+972180917+976264460+980768617
1153+984697782+986642043+985055249+981371634+979214822+980226381+983307585
1143+987007760+990148532+990952332+988592067+985118941+983438853+983787342
1133+983639090+981463412+978804217+977986525+979889781+983994434+989042647
1123+993865267+998725859+1004668559+1010723721+1014078925+1013354164+1009356939
1113+1003392099+997312855+993787319+993141658+992194216+989774687+988617787
1103+990134155+992634180+994206052+995324069+997853574+1002121038+1005432081
1093+1004319099+999203736+994139994+991370580+989695223+988066816+987077579
1083+986538073+985350600+983955005+983797229+984896745+984656715+980190470
1073+972113463+964212430+960653956+962184033+964580694+963089378+957772746
1063+952694567+951396998+954402499+958680153+959440642+955687815+951755921
1053+951267065+953933540+957942714+961937270+965070884+967165824+967883366
1043+965792187+961003173+957231177+958005800+962375111+965997520+965872986
1033+962865301+959422202+956327107+953241535+951361269+952236405+954549356
1023+955823935+955764792+955189739+954506591+954962994+957824913+960874211
1013+959983060+955433712+950698624+946137326+939501044+930572437+921602885
1003+914069691+907459251+900749996+893559589+886038345+878728136+872652714
993+868580695+865653142+861640874+855712733+850255067+848329125+849917921
983+851604016+849830632+844475664+838468787+834230561+831799992+830087935
973+828459529+826442718+823255481+818829696+814241222+810481783+807713825
963+805864072+804996518+805014352+805648609+806848274+808839364+811887569
953+816088368+821151685+826450847+831525204+836587975+842235566+848472525
943+854569724+859927847+864463365+868260170+871726441+875985048+882207267
933+890338747+898881013+906257584+911696748+914543685+914401377+911783249
923+908070214+905001809+903408221+902520164+901185956+899507627+898723662
913+899111156+899219251+897932115+896157458+895797443+897233377+898420667
903+897245570+894398815+892838286+894386683+898749624+905451054+913498277
893+920029071+922541956+922161802+921883678+922613292+923257496+923195502
883+923200901+924012102+925593922+928005626+931078278+933491074+933912112
873+932805256+931701616+931057532+930607256+930774798+932339087+935676518
863+939759272+942492776+943568392+945235621+949198391+954864240+960957072
853+966609575+970726178+971961572+970221126+967519166+966488135+968255149
843+971400834+972593099+969395003+963525035+960507220+964167056+971757634
833+976484048+975879575+973826005+973976623+975985911+977443137+977280812
823+976370190+975787069+976473675+979556092+986018038+996507174+1010281573
813+1022724676+1026276902+1019661245+1010732395+1005390105+1003606591
804+1002937637+1000584166+995498223+989893216+986734428+986801153+988006581
794+987197139+982949148+976333976+969554720+964028813+960312017+958378735
784+956750450+953750590+949726675+945569491+940941953+935383956+930054101
774+927014509+927500029+931760698+938780651+945178297+947239510+945655264
764+944072291+942777209+940108914+937855471+939052345+943778881+949923576
754+955266474+958680032+961224216+964147948+965174794+961577741+956648420
744+956257469+960971266+966026030+968250599+969619201+973066607+977567974
734+978749623+973393017+963901549+957711965+960540886+970781985+981370664
724+987570620+990076529+990899619+988901189+982168034+973336239+967016480
714+965547972+969349205+977103079+984286995+985503705+979905674+973069701
704+970868000+971843164+968836207+959692440+951494053+951528205+959620862
694+968161309+969355453+964548605+960959255+962351272+967031402+968627235
684+962150974+951084783+944432670+947514056+954904275+955423279+948656094
674+945716955+949092782+947538926+934859857+922394796+922329101+928380442
664+927745215+919144230+909733682+904363852+902421956+902422684+904233858
654+906553057+907574382+907893149+910481130+918372458+931856480+946091467
644+951977389+944638366+930127317+919284778+918079047+923630856+927901292
634+925080924+920641127+922905974+925761161+921123674+914594396+915289434
624+923722998+933046075+936540735+934375066+929130680+921645407+911836690
614+900038701+888820073+880527482+872728235+862854490+854842510+852813871
604+855286963+858950439+862055907+863903113
##END=
