##TITLE=<SNM>
##JCAMP-DX=4.24
##DATA TYPE=INFRARED SPECTRUM
##DATE=29/4/2025
##SAMPLING PROCEDURE=Instrument type and / or accessory
##ORIGIN=Admin
##XUNITS=1/CM
##YUNITS=ABSORBANCE
##RESOLUTION=4
##FIRSTX=4497.3318
##LASTX=599.83466
##DELTAX=-1.4281778
##MAXY=2.1075327
##MINY=0.38561562
##XFACTOR=1
##YFACTOR=1.9627928e-09
##NPOINTS=2730
##FIRSTY=0.39675018
##XYDATA=(X++(Y..Y))
4497+202135538+202530434+203371500+203967412+203705419+202875558+202444540
4487+202972459+204124062+205286020+206101183+206301607+205713302+204544967
4477+203185759+201878114+200908943+200763757+201610685+202876165+203700348
4467+203619555+202803177+201996213+202048930+203009341+203920313+203962918
4457+203421257+203071609+203089206+203052644+202697256+202178462+201702759
4447+201275719+200884133+200659886+200668617+200792561+201039249+201560458
4437+202182728+202506231+202635595+203098787+203914042+204472299+204382169
4427+203798905+203002417+202213506+201684645+201467944+201159291+200218468
4417+198624900+197079525+196462721+197110029+198558016+199824802+200033470
4407+199110746+197885457+197196682+197059103+197130011+197568544+198586531
4397+199509164+199421600+198631869+198303994+198816411+199570051+200112926
4387+200438114+200468481+200202084+199990470+199932165+199559043+198734131
4377+198180703+198458594+199022833+198933522+198132358+197414704+197357173
4367+197745494+198048605+198170393+198439310+198885497+199079240+198923015
4357+198999480+199751586+200868737+201835175+202543082+203023993+203071487
4347+202543385+201727220+201074278+200763499+200728288+200962526+201544333
4337+202339105+202911391+202838798+202075107+201033403+200234851+199883350
4327+199860286+199960285+199962669+199720050+199412232+199411944+199717332
4317+199934610+199918728+199886933+199893143+199799141+199778021+200250490
4307+201213937+202095377+202413474+202306217+202280116+202570306+202852357
4297+202607673+201771100+200895202+200633710+201198237+202298185+203417704
4287+204144120+204377052+204250724+203910823+203425903+202864656+202362670
4277+202088727+202120567+202305306+202404956+202502602+202927987+203551138
4267+203637685+202906775+202195285+202372448+203192546+203942086+204551785
4257+205255258+205825418+205952126+205753797+205471716+205356214+205836183
4247+206971160+207950200+207946860+207203059+206610928+206543513+206637773
4237+206460185+205931871+205243293+204741231+204801950+205507625+206514330
4227+207390365+207907352+207914564+207335856+206508393+206120269+206544075
4217+207440182+208187278+208529972+208649786+208748708+208802154+208698343
4207+208442499+208194384+208143944+208338947+208717293+209304186+210089088
4197+210793411+211124460+211054615+210564776+209590427+208439159+207663199
4187+207518363+208026270+209032186+209806961+209467258+208221061+207411470
4177+208053768+209846378+211574715+212176443+211595563+210742941+210507519
4167+210886532+211211280+211086744+210828622+210937504+211464756+212066923
4157+212457902+212638390+212786612+213058764+213454920+213901607+214445834
4147+215144539+215758671+215866779+215306882+214298325+213272124+212730266
4137+212979551+213772318+214448051+214642629+214594466+214621675+214703561
4127+214681408+214473756+214092905+213779303+213909760+214463523+214945527
4117+215118605+215315932+215774432+216189416+216212039+216001366+215966778
4107+216254219+216754702+217307189+217635095+217464567+216962293+216735905
4097+217220840+218302385+219518822+220367981+220495038+219896879+219101909
4087+218914331+219642447+220640877+221045232+220882919+220842986+221153218
4077+221449800+221551257+221635784+221754915+221667807+221203992+220642866
4067+220532344+221000319+221493817+221391313+220592365+219457449+218531612
4057+218239024+218486578+218732082+218701122+218715850+219124396+219782167
4047+220345980+220846463+221635921+222746467+223635089+223761189+223173916
4037+222325835+221536590+220932888+220707002+221084558+222029238+223084622
4027+223670922+223690585+223628864+223850788+224172696+224374547+224640640
4017+225159708+225644278+225611406+225028005+224447808+224423742+224850372
4007+225108129+224908768+224657524+224822267+225256564+225370866+224907249
3997+224345015+224371571+225036204+225731265+226040556+226175417+226463298
3987+226878449+227253697+227574922+227856002+227924571+227600810+227122405
3977+227085189+227764854+228757545+229436117+229493465+228997583+228281538
3967+227821186+227867966+228251125+228711721+229203124+229719124+230130479
3957+230352297+230458628+230639602+231206938+232463945+234201499+235445601
3947+235395343+234602636+234255826+234430878+234010550+232419685+230562909
3937+229785082+230724645+233111087+235941164+237708174+237308951+235367815
3927+233945761+234354201+235639253+235972609+235391258+235580188+237176929
3917+238729592+238461130+236331945+233779653+232068822+231557604+232339212
3907+234924377+239689152+245737005+250919330+253479260+253039405+250045421
3897+245696358+241960396+240548090+241648144+243250974+242948835+241545943
3887+241864663+244434432+246778405+247419336+247631862+247574255+245668360
3878+242844645+242245696+244845711+248814484+252562822+255565476+256592102
3868+255485154+254530742+254836267+254467046+251817002+248386458+246447963
3858+247307266+252384945+262627899+272541869+271487730+261393379+251106681
3848+244739911+243025011+245397408+250387782+256140359+261578589+266176223
3838+268482343+267201877+263492182+259369431+255531373+252170689+250175879
3828+250200036+251696459+254393512+259457405+266528999+270835836+269350907
3818+265722202+262802237+259144774+253999269+249746896+248868796+252138136
3808+257948516+262736310+265140760+267524620+270708051+271523746+268713650
3798+265113004+262010168+258312863+254035421+250874797+249871432+250757913
3788+253054301+256320710+259573074+262077796+264409455+267022831+268606666
3778+267777306+265528519+264138883+265328824+269592722+275406777+279912975
3768+282159667+283493852+284583946+285611939+288133484+293403115+299484646
3758+303018545+304390932+307388667+315058921+326950407+337407435+341034561
3748+340853208+342881650+348327502+351776343+349839306+347167716+349198435
3738+357877429+370769395+381609992+385296091+382652469+378492580+376804038
3728+378643869+382674698+386791618+389967123+392416607+394443743+396189679
3718+398082076+401242518+407591310+418532028+431964288+441840086+444807939
3708+443563003+442274338+443945023+449416566+456282908+460957887+462784387
3698+463513444+464866579+468149189+473859783+481023906+487239386+489541073
3688+486906865+481687978+476914153+474463363+475360047+479875750+487828937
3678+498707340+509079825+511871063+506787856+502409261+502908013+503764886
3668+500208333+495086500+493223286+495312554+498365162+499957226+501298609
3658+505158470+511777289+518470780+523824346+529305455+535861625+540550027
3648+539628137+534838856+530389870+528376763+528657357+529971469+531466632
3638+533736646+537729030+542865227+547919493+553771447+562168602+569829170
3628+569163701+561292932+554514473+553050832+556697758+563628235+570714922
3618+574536946+575045901+575039584+576266179+578472907+581257281+583647975
3608+583371390+580521118+578517183+579571595+582334226+583981407+583807767
3598+583838802+585955461+589726407+593150741+595545139+598546214+603325232
3588+607999968+609012838+605569251+600821998+598740626+600595883+603885204
3578+605460293+605085986+604281679+603958511+604536946+606535416+609967524
3568+613195868+613735798+611691716+610040770+610953792+613251561+614196287
3558+613905429+615527648+620786894+627166205+629742382+626586069+621327188
3548+619006522+620919599+623920977+624382013+621629464+617415459+614404971
3538+614721580+618482747+623242087+625719813+625283982+624389666+625160022
3528+626876562+627109601+624532270+620414105+617090590+615314531+614176001
3518+613180016+612996780+614117939+616151270+618784355+622249199+626442857
3508+630442651+633190584+634047488+632913696+630735938+629445329+630479759
3498+633499723+636591232+637390194+634951764+631282427+629784714+631576504
3488+634407218+636058043+637165598+638957449+640799345+641440580+640536000
3478+638060157+634571687+632134289+632341151+634245664+635883371+636552969
3468+636424880+635560020+634665765+635111314+636802892+637327213+635148179
3458+632339147+631815737+633270693+634434852+635295825+637828819+641793265
3448+643490309+640103813+633757177+629228689+629093555+632429034+637035444
3438+641046352+642809050+641401163+637469878+632889098+629841865+630108307
3428+633687271+637931157+639560968+638078560+635834115+634913562+635227742
3418+635471287+635230050+635167432+635732446+636635507+637072310+635909487
3408+632461466+628022805+625399195+626012796+628384601+630291604+631480907
3398+632944913+634776302+636240125+636759466+636185464+634874631+633109382
3388+630569343+627592015+626154429+628051107+632982933+639331391+645320484
3378+648854990+648412843+644722491+639912924+635546173+632777407+633085817
3368+637111970+643257028+648337836+649847939+647805680+644508524+642584636
3358+643481685+646777140+650210524+651288197+649436948+646496365+644576546
3348+644195680+644670199+644923462+644038985+642317283+641606567+643691644
3338+648312752+653310050+656671523+657820742+656980601+654019975+649106613
3328+644211228+642005958+642993562+645185531+646701951+647187767+646778902
3318+645604660+644628657+644943444+646213281+647147378+647345555+647519681
3308+647883966+648002885+648353201+650120698+653072274+655316901+655658229
3298+654749579+653896138+653957480+654898379+655758805+655899345+656007634
3288+656688468+657035931+656081305+654579705+654054533+655054163+656926305
3278+658569052+659173604+658669143+657565050+656150300+654652040+653907131
3268+654404607+655395066+656000589+656177812+655997674+655329108+654389788
3258+653689762+653004616+651566118+650461479+652220229+656878324+661230257
3248+662653510+661637117+660012104+659051406+659369594+660637913+661706416
3238+661873800+661129680+659392977+657248258+656224457+656843766+657929032
3228+658182902+657667023+657445828+658016672+658592496+658218978+657173980
3218+656321814+655591542+654165799+651821021+649375120+648139659+649204942
3208+652791984+657655423+661435782+662385488+660881580+659185872+658618733
3198+657802704+654895950+650645444+647492897+646389593+646022635+645152310
3188+644412077+644962271+646701101+648467382+649182714+648203916+645361236
3178+641510911+638082507+636068308+635917686+637495144+639436523+639775543
3168+638179379+636385949+635568280+634635823+632374494+629738920+628359517
3158+628115121+627578532+626232776+624801142+623758998+623071909+623059944
3148+624245057+626117077+627113548+626122482+623531487+620783189+619041505
3138+618400270+618430273+619258145+620929923+621911029+620493485+617470728
3128+615084772+614054593+613498022+612791558+612122689+611783972+611498824
3118+610566913+608861366+607210602+606346835+606178601+606483245+607115977
3108+607090104+605417718+603369325+603271117+604843291+605431444+604001086
3098+602145282+601057283+600285894+599321916+598630514+598916695+599788721
3088+599571960+597277592+594279492+592619375+592509445+592831278+593074094
3078+593341083+593256055+592381539+591342432+591286313+592191804+592634073
3068+591710240+590288688+589547240+589518635+589781190+590179426+590457104
3058+590386106+590284072+590655767+591293601+591283580+590154586+588515300
3048+587102129+585717078+583960636+582428729+581956882+582222535+582282662
3038+581901918+581298642+580163999+578023168+575400044+573765556+574057021
3028+575542831+576533836+576185098+575040678+573900934+573029150+572275921
3018+571421507+570424186+569389148+568387028+567388370+566312094+565261204
3008+564782434+565315076+566121327+565597249+563146793+560034452+558120950
2998+558343421+560112314+561698942+561685884+560421999+559616598+560402382
2988+562120926+562947583+561698457+558959086+556212246+554260117+552889096
2978+551730828+550910304+550691053+550878905+550971160+550793390+550594303
2968+550460565+550031111+549076850+548073881+547619404+547494959+547004892
2958+546078630+545371923+545391722+546008056+546581815+546357523+545086531
2948+543179042+541060561+538962912+537337596+536641335+536776469+537217523
2938+537408655+536971123+535954428+534844565+534068256+533839955+534419423
2928+535617898+536206840+535012192+532505496+530219934+528947303+528453410
2918+528360790+528467804+528544390+528374941+527845336+526897574+525689200
2908+524648453+524145996+524198410+524415475+524119394+522899420+521200432
2898+519798983+518705519+517440176+516321628+516256338+517143062+517711841
2888+517195537+516113673+515128194+514128018+512899055+511862438+511482787
2878+511558462+511676955+511834926+512021138+511782330+510877932+509734726
2868+508808919+508139321+507692527+507545064+507594927+507540600+507170089
2858+506404743+505252943+503918028+502826113+502383783+502562343+502748616
2848+502227756+500831591+498876698+496644765+494383376+492634859+491941696
2838+492126694+492310537+491843155+490935356+490312979+490467973+491169882
2828+491552449+490880269+489374964+487990035+487318767+487043184+486452874
2818+485241524+483765432+482675642+482346340+482645457+483173240+483608828
2808+483748214+483355930+482306498+480827218+479396525+478512260+478486387
2798+479056351+479297406+478480861+476887217+475229772+473693583+472177953
2788+470972585+470486679+470672314+471185490+471755150+472095020+471890405
2778+471182180+470403230+469807697+469181494+468311107+467480168+467192590
2768+467395261+467333312+466406837+464879576+463516876+462793436+462552290
2758+462177588+461209753+459967672+459186808+458967374+458663155+457864799
2748+456873642+456132590+455711305+455416682+455105691+454786349+454477939
2738+454092365+453527656+452780166+451924690+451059739+450172893+449049183
2728+447630880+446411817+445989894+446324268+446840420+447115426+447073945
2718+446645554+445638423+444016751+442135104+440536754+439530382+439126802
2708+439309795+439963875+440494695+440111217+438789421+437456177+436890313
2698+436871729+436665201+435940608+434936939+433995068+433209194+432480319
2688+431781416+431297150+431234046+431512636+431749166+431598119+431083971
2678+430488439+429928892+429316232+428748425+428500902+428522523+428431087
2668+428062186+427518946+426817219+426066358+425703986+425924847+426174587
2658+425746591+424629501+423420368+422676491+422512720+422588396+422463434
2648+422027118+421423599+420721264+419989717+419437549+419150457+418970835
2638+418744720+418339256+417524290+416307353+415220113+414812463+415063661
2628+415560591+415961348+416074496+415796423+415224577+414619904+414084955
2618+413490212+412824045+412316122+412102003+412064803+412037230+411877467
2608+411503980+411093476+410980752+411259858+411731462+412112449+412108137
2598+411589373+410805807+410123515+409641283+409276511+408959143+408605790
2588+408153743+407668322+407327055+407328269+407697505+408121310+408258904
2578+408179281+408049310+407654262+406812572+405897850+405411062+405398794
2568+405623755+405927488+406188313+406227820+405970944+405605990+405497943
2558+405835202+406304923+406327516+405772251+405166727+404998159+405158619
2548+405309393+405397367+405509786+405571705+405481211+405272041+404987561
2538+404641404+404327741+404144626+404054648+403986565+403974539+404089479
2528+404348725+404706147+405000831+404988897+404611341+404149910+403935335
2518+403980916+404053190+404026801+404014138+404162998+404468736+404781276
2508+404883371+404627739+404149424+403831509+403894096+404166521+404382827
2498+404500257+404619722+404768765+404854704+404796034+404698798+404773714
2488+404977418+404986073+404668887+404294792+404180551+404388293+404724823
2478+404879484+404724945+404494973+404440343+404477269+404445991+404458107
2468+404714195+405174441+405571523+405649051+405379572+405006935+404813040
2458+404821209+404827586+404731413+404714225+405015225+405591049+406077168
2448+406099367+405610727+404923243+404407910+404208397+404297374+404637851
2438+405063782+405233475+405083126+405065392+405510151+406070761+406244431
2428+406135899+406234319+406627423+406885181+406728911+406437263+406389405
2418+406531189+406605650+406607806+406629154+406545826+406267116+406050415
2408+406216068+406710903+407172880+407315667+407148191+406903067+406806590
2398+406923504+407214088+407641902+408137132+408535034+408691942+408659904
2388+408607004+408526288+408185841+407438351+406355393+404919993+402886966
2378+400235145+397484235+395178449+393238406+391184638+388875450+386674279
2368+384968945+383854588+383242050+382972935+382852772+382912079+383715870
2358+385997089+389768096+394279092+398966492+403554469+407171453+408547424
2348+407164954+403854103+400441460+398405942+397712415+397511019+397337258
2338+397202640+397256086+397582473+398130481+398753921+399242712+399400349
2328+399291239+399263757+399573958+400199888+401061802+402156876+403407795
2318+404558987+405337908+405750842+406156366+406902642+407926535+408911892
2308+409740432+410497640+411157703+411610812+411986395+412655871+413781677
2298+414988533+415699795+415816041+415810909+416116950+416711510+417367170
2288+417975366+418446210+418540865+418096197+417380228+416963255+417100940
2278+417410261+417352715+416890131+416389101+416037266+415726943+415398764
2268+415106509+414847173+414682157+414863420+415490018+416219045+416629033
2258+416715094+416811844+417205039+417951770+418895706+419754401+420319779
2248+420614554+420764933+420760620+420478114+419905235+419179549+418433061
2238+417742358+417170117+416719193+416317222+415920625+415551876+415240095
2228+415016410+414904324+414875111+414927646+415145926+415506355+415786493
2218+415872554+415952936+416225391+416638690+417049073+417419432+417814176
2208+418345846+419051642+419724702+420082945+420248598+420755640+421854237
2198+423088210+423840711+424107184+424425220+425165938+426179112+427073094
2188+427644849+428023376+428459207+429003055+429471530+429760870+430003231
2178+430286891+430475411+430479177+430439001+430487072+430600676+430783335
2168+431108660+431541910+432008017+432626021+433563671+434654918+435471464
2158+435831194+435969669+436186461+436618830+437371118+438528111+439936575
2148+441223206+442155754+442881805+443765158+444995822+446375740+447596808
2138+448719607+450129438+451951048+453824010+455455370+457092226+459103541
2128+461328307+463297442+464987957+466848438+469092639+471425877+473484231
2118+475170343+476510572+477452868+477964253+478315723+479082952+480605020
2108+482512509+484094522+485090994+485864782+486923658+488543721+490678418
2098+492965832+494949938+496392474+497185151+497032069+495588987+492918247
2088+489504389+485854214+482243152+478709617+475186407+471725997+468528203
2078+465691020+463174697+461076654+459583009+458550037+457549253+456465719
2068+455676049+455480605+455664600+455782577+455670674+455484583+455360199
2058+455248417+455063207+454844137+454738125+454890812+455345501+455992810
2048+456673826+457409412+458443782+459955707+461845522+463983226+466502585
2038+469575084+473058725+476688919+480471465+484581522+488996224+493489910
2028+497852623+501868937+505254522+507860823+509828804+511382089+512563375
2018+513247732+513366772+513077493+512623928+511968602+510725002+508664583
2008+506179144+503963974+502324810+501043980+499848086+498689363+497534830
1998+496298184+495205296+494773049+495091784+495587954+495856583+496171370
1988+496798272+497550742+498345362+499471532+501052209+502814695+504487324
1978+505964448+507129184+507936042+508675182+509917780+512128273+515236423
1968+518481469+520870947+522084909+522773335+523802299+525486771+527632704
1958+530009064+532503370+534928075+537018800+538760241+540517291+542636197
1948+545114834+547952411+551441185+555460778+558877641+560690081+561416648
1938+562273916+563784080+565898067+568491249+571189380+573464981+575230534
1928+576927153+579118333+582037356+585134634+587477469+589133395+591100404
1918+593362401+594523220+594134276+593683262+594629263+596808114+598920703
1908+600078486+600485771+600652731+600644410+600406816+600213498+600437184
1898+601295180+602766596+604360270+605463937+606206781+607069212+607673945
1888+607219469+605948781+604890421+604651309+605173930+605916896+606059925
1878+605225433+603957721+603110778+603250650+604775026+607605194+610158595
1868+609832572+606110396+601518562+598482747+597258156+596681847+595716411
1858+594126320+592210449+590238825+588205433+586182730+584597316+583966892
1848+584778123+587271518+590202748+590499861+586846437+581851751+578261126
1838+576477535+575604112+575084710+575424520+577341909+579928532+580542315
1828+578173182+574807153+571887220+568805307+565315319+562677740+561832741
1818+562174980+562490617+562550805+563213904+564899591+566519016+566495451
1808+564715626+562659580+562013183+563684840+567265079+570867366+572448285
1798+572043368+571779720+573613659+577547556+581060684+581132836+578342814
1788+576134021+576679660+579554346+583158454+586556430+589400870+591164965
1778+591966418+593447733+597715123+605123946+612357367+614665522+611897363
1768+607526057+604094678+603088306+605359960+609691243+612934466+613844816
1758+614128021+614975875+616396699+619112382+624158389+630636697+635526738
1748+637095207+636712276+636566027+637872973+640743773+644113871+646317805
1738+647713545+651406144+659180406+666776959+667365355+662229704+656775136
1728+653615484+653262373+654937310+657193780+659992123+665450942+675478030
1718+688365106+697254515+696996819+690926403+684852343+682067908+683717275
1708+689499324+697350233+704038319+708917730+715155288+724540229+732846040
1698+735458111+734066804+730706302+726058228+722440576+721907995+724436313
1688+729571356+738517126+751628374+762072040+761734538+755093947+749996680
1678+749535523+753744912+760597284+767071342+772120385+776172593+778007504
1668+776522970+774647002+776109186+780725799+784202183+783277135+780599957
1658+780967766+787029375+799435859+814869717+822274348+819280136+816681185
1648+817986370+818010420+812137149+804715451+801292574+802280178+805858232
1638+810881888+815731965+816095522+810429233+803933129+800696283+800226987
1628+800155442+799802756+800265250+800886139+799464708+796988987+797005263
1618+800012655+801466761+797330801+790523736+785354134+782416709+780058387
1608+776971495+773527908+770833785+769173303+767942639+766736998+766049666
1598+766810973+769231304+772036632+773253084+772133807+769699993+767384428
1588+766021303+765890845+766892114+768368328+769284447+769433854+770321246
1578+773763315+778607622+780025105+777018321+774483869+775178429+776641342
1568+775219182+771774441+769218854+768785817+771684554+780214354+793316674
1558+800254257+795329962+787117015+781227163+778320469+777347623+776680333
1548+776250272+778308322+784697351+794959664+807621416+819496169+822367272
1538+814189854+805252405+802107146+803821985+806214804+807205931+808588856
1528+812036512+816906024+821997763+827960315+835846025+844011356+849887361
1518+853675130+855800110+855396833+853632677+854029516+859301880+870338012
1508+885758265+897255250+894094625+882264086+873334228+871440343+876534512
1498+885615599+892829343+894841113+895217242+898692775+905705669+912612703
1488+915667589+915036861+913185004+912041373+912696274+915695952+921145600
1478+928767358+937840792+947193970+954851500+957892721+955734580+952426978
1468+951900106+954447433+957239825+957275779+955781285+956814136+962197766
1458+968863198+969765470+963305382+955754380+951152525+950412839+953502769
1448+958376957+961264762+960650190+958868968+958905348+962181975+968934683
1438+977797429+984296145+984778012+982652608+982940489+986322005+990755747
1428+994520255+996978546+997875898+997958437+999296540+1003002439+1007007820
1418+1007698554+1005206434+1003030073+1002989806+1004507015+1006141503
1410+1006403451+1004643061+1001884316+999989035+1000088700+1001827955
1401+1003852965+1005067534+1005631697+1006160452+1006160088+1004887942
1392+1003480480+1004069362+1006436126+1007085378+1003507568+998746467+997351638
1382+999247952+1000554838+998874313+996365856+997052642+1002152520+1008809206
1372+1013310788+1014756452+1014799756+1015713689+1019163835+1024826844
1364+1029975795+1032693544+1034920558+1039720529+1046564095+1051043630
1355+1049887002+1045494438+1043001893+1044977709+1050326113+1055234070
1347+1056067955+1052709578+1048630648+1047445231+1049635440+1053555732
1338+1057865940+1061569288+1063653818+1064545523+1066379584+1070022319
1330+1073318260+1073741823+1071331999+1067963662+1064722503+1061977788
1321+1060453109+1060678555+1061938432+1062514803+1061636217+1060947609
1312+1062613922+1066001694+1067726068+1065746487+1062543713+1061631116
1304+1062576266+1061609494+1057172594+1052941827+1053153305+1057126679
1295+1059777862+1056955894+1050099330+1043769213+1039786000+1036675664
1287+1033533867+1031161333+1028634413+1023273619+1015932516+1010685539
1278+1008481604+1005852528+1000075096+992312616+985287271+980407191+977336150
1268+974268753+968447227+958847953+948176837+940316878+936501474+934367506
1258+930627717+924392650+917015895+909575612+902251757+895543811+890149128
1248+885571688+880157266+872876715+864267353+855450704+847013889+839047220
1238+831626251+824898566+818923321+813938839+810730537+809872966+810430084
1228+810416601+808924293+806657680+804325049+802153183+800854132+801381733
1218+803711934+806861870+809952164+812681027+815107492+817465085+820038771
1208+823057824+826518416+829836526+832187134+833854783+836512951+841316262
1198+847319566+852518502+856077363+858635198+860761210+862468518+864304583
1188+867307055+871125010+873821319+874615301+875612198+879631669+887087986
1178+895579948+902441371+907634598+913646587+922446655+932970187+942098222
1168+947850935+950851707+953046956+955876881+959311297+961764607+961512620
1158+959080749+957388746+958735837+962602744+967178058+971387568+974107746
1148+973581117+969697326+965622343+965063282+968569425+973174135+975629874
1138+976145693+977252883+979637381+981632693+982122091+981769345+981589693
1128+982656920+986732692+994223992+1002007122+1005501725+1003231530+998197245
1118+994211420+993313764+996447605+1003155368+1010410350+1013407721+1009553508
1108+1002098163+997511127+999377074+1005085876+1008103592+1005117701+999806892
1098+997130261+997150242+996671290+994973517+994530033+996118120+997594090
1088+997927158+997969065+996630537+991417025+983877016+979328000+980756901
1078+986235823+991522095+993374559+990023228+980408224+966216873+953260863
1068+946605938+945147034+943877865+940500782+936930807+935760635+937727219
1058+941441621+944852654+946820452+947336453+947096430+946586867+945162157
1048+941995216+937608483+934228546+934378438+938241701+943095422+946344597
1038+948174407+949838898+951469559+952810516+953429948+952050970+948486583
1028+944960822+943588283+944810504+948416859+953304410+956264367+954681322
1018+950910376+949963829+952862384+955576610+954567141+949909532+942731865
1008+934096205+925559178+917812186+910234946+902679329+896021549+890792003
998+886749938+883369090+879467990+873296876+864452593+855053136+848151386
988+845255868+845114781+844921646+843278109+841223338+839861123+838739782
978+837164875+835381163+833673915+831609124+828878499+826019847+823642940
968+821351487+818146952+813533010+807814612+802027037+797633562+795810980
958+796735602+799473697+802605655+805250157+807652815+810695554+815138345
948+821349119+829026266+836863389+843122932+847031077+849403064+851885648
938+855942897+862321662+870857353+880524346+889746883+897453912+903720865
928+908831371+912866391+916135002+918720774+919729818+917682639+911992604
918+904241724+897748718+894845668+894618764+894670449+893962892+892458619
908+889953138+887197126+886806117+890645633+897333172+903559554+906630656
898+906045297+904069663+904159793+907763719+912871250+916265338+916911068
888+916294977+916084106+916584862+917205994+918023420+920195226+924190708
878+928304379+930282745+930564189+931992604+935886052+940067927+941298652
868+939144398+936227865+935032124+936193004+938894354+941609066+943318743
858+944719827+946872320+948615340+947733535+944776371+942776505+943204258
848+944809593+945856474+946308643+947791901+951042899+954577830+956839402
838+957789411+957730013+956974536+956683800+958300492+961340498+962696457
828+960383322+957764207+960392858+968939116+977985827+982437121+983675498
818+986345570+991333515+995572177+997755401+999208961+999270545+995991124
808+991196801+989402946+992442163+999184970+1007833931+1014908714+1015240264
798+1007577631+996211287+985626777+978113066+974305922+973189197+971511466
788+965833699+957061630+949636591+945363492+941575662+935110897+926275238
778+918824934+916623611+919579257+922912064+922240340+918246559+914137990
768+911884132+912849750+918535412+928079539+937481183+943444099+946094189
758+947173016+947548599+946604602+944072883+942353550+944561614+949928542
748+953904953+954510233+954927479+957195428+958970091+957871767+955768713
738+955091219+955414145+957045231+961461299+967768640+972242588+971716810
728+967099832+962158896+958846860+956343140+955169931+958120415+965347944
718+972753123+977472074+980937768+984824049+987368947+986864182+985358391
708+984693470+982809667+976990085+968388072+960715479+956774902+957225916
698+960337042+962714860+961321428+957239217+953485581+950022498+944077985
688+934279563+924477192+921570924+927312098+934602063+936409826+934316550
678+932460685+930355383+926518662+923154395+921663119+918724843+911693668
668+904055755+901833479+904640932+907768335+909313664+908246012+903489527
658+897807387+897127282+903648166+912178087+916000475+914742177+912721964
648+912215924+910813139+907109973+905153957+906773018+905883804+896818143
638+881402992+868211757+865016999+873121657+888160801+901342683+902955792
628+892063116+878984604+874269115+879301334+887115621+888180479+880380040
618+871424067+866122185+863184274+861369830+861841312+864716606+867656765
608+871828437+883350687+903021446+918403497+914985783+898008844+885840985
##END=
