##TITLE=<SNM>
##JCAMP-DX=4.24
##DATA TYPE=INFRARED SPECTRUM
##DATE=29/4/2025
##SAMPLING PROCEDURE=Instrument type and / or accessory
##ORIGIN=Admin
##XUNITS=1/CM
##YUNITS=ABSORBANCE
##RESOLUTION=4
##FIRSTX=4497.3318
##LASTX=599.83466
##DELTAX=-1.4281778
##MAXY=2.0721245
##MINY=0.41212586
##XFACTOR=1
##YFACTOR=1.9298163e-09
##NPOINTS=2730
##FIRSTY=0.43103206
##XYDATA=(X++(Y..Y))
4497+223353933+224211425+224436076+223661543+221973907+219671698+217381272
4487+216169360+216944109+219574762+222631922+224279035+223905977+222682591
4477+222097653+222421680+222937463+223099430+222940120+222630949+222092479
4467+221141154+219951620+219132765+219236836+220389045+222224348+223811063
4457+224019823+222621977+220670711+219318777+218959494+219494720+220437150
4447+220960918+220672457+220072910+219769700+219648688+219160331+218142431
4437+217103652+216768722+217408807+218515536+219152424+218902663+218375081
4427+218340813+218634309+218573895+218122556+217699230+217277093+216685283
4417+216293229+216459876+216822804+216877642+216789601+217054543+217643527
4407+217930861+217497975+216685360+216121008+215958547+215871062+215589781
4397+215183721+214954375+215142858+215655569+216230083+216849567+217539255
4387+217830172+217188697+215986190+215228753+215270928+215457202+215157653
4377+214629499+214569951+215138565+215802572+216142057+216420805+217074356
4367+217870077+218086512+217595607+217128407+217134105+217087035+216418982
4357+215521245+215193589+215540780+215971179+216040843+215869208+215711951
4347+215448153+214779544+213898392+213557038+214267976+215654673+216766019
4337+217028583+216805430+216857288+217342216+217682536+217414506+216755657
4327+216308626+216457266+216970949+217140607+216576780+215760613+215357008
4317+215300949+215091711+214641931+214435287+215005894+216303700+217535857
4307+217920452+217561632+217138337+217000322+217078773+217303887+217542405
4297+217405533+216682225+215854337+215703025+216363356+217181130+217607359
4287+217777866+218058868+218489360+218827332+218742055+217973128+216796581
4277+216157608+216711196+217936420+218798237+218998627+218921041+218753267
4267+218390787+217884794+217445608+217214116+217288691+217740648+218457902
4257+219098605+219266379+218825046+218104086+217695060+218028554+219080537
4247+220261331+220737673+220281484+219590112+219395529+219728977+220378652
4237+221246661+221933462+221894700+221234662+220545051+220042332+219592352
4227+219316677+219433334+219687867+219638851+219423976+219610852+220310100
4217+221003942+221314920+221403980+221526892+221667995+221746894+221754847
4207+221605003+221271957+220993086+220981488+221158481+221352416+221437600
4197+221234091+220716593+220238429+220092816+220023708+219605586+218934275
4187+218545125+218785914+219497516+220160673+220426078+220593542+221142899
4177+221814689+221911131+221475173+221251171+221593992+222233784+222868217
4167+223359755+223637730+223817457+224120527+224518805+224744830+224571821
4157+223874318+222764887+221886978+222004438+222957369+223601192+223233646
4147+222472843+222171347+222219700+222103722+221948303+222176490+222626023
4137+222767219+222512887+222294907+222415595+222685293+222843261+223056499
4127+223581425+224093533+223949356+223136756+222388137+222217476+222311262
4117+222106486+221711097+221867180+222976426+224464059+225306881+225064919
4107+224210005+223534370+223448135+223830182+224356173+224875617+225410597
4097+225779748+225577135+224830199+224180570+223966004+223769660+223345717
4087+223230403+223932600+225202362+226439230+227275164+227602310+227497545
4077+227198906+226902198+226612285+226273155+225915400+225578957+225214516
4067+224862336+224818493+225301599+226004275+226292134+225871990+225097550
4057+224630674+224768535+225106630+225098832+224844453+224826693+225045646
4047+225143447+225166241+225331250+225365673+225000799+224761585+225243981
4037+225879989+225516799+224220243+223415983+224067063+225590956+226789294
4027+227245220+227415758+227705810+227953672+227817711+227363190+227105383
4017+227429209+227975663+227876240+226816952+225523486+224895477+225083605
4007+225666674+226256739+226692049+226985745+227233993+227432328+227442583
3997+227213670+226880748+226647959+226752184+227400438+228445055+229306177
3987+229585898+229534812+229600368+229823181+229943421+229807213+229493826
3977+229290178+229519786+230149246+230643332+230373634+229216360+227783195
3967+227022948+227465361+228843564+230409617+231441292+231575184+231014878
3957+230351952+229998197+229973149+230262660+231008175+232150825+233138426
3947+233388681+233089487+233014263+233393005+233584824+233183628+232673543
3937+232564329+232811789+233270495+233868451+234200401+233814833+233111678
3927+233021151+233629130+233814586+232802261+231496455+231384045+232809102
3917+234740291+235735135+235065322+233234065+231503219+230874191+231631273
3907+233770836+237269915+241563387+245292337+247183404+246757546+244179091
3897+240372570+237076120+235975553+237458537+239761534+240291571+239117433
3887+238723851+240166683+241816082+242405931+242909267+243655168+243162503
3878+241306398+240174389+241053240+243260752+245673626+247273067+246772865
3868+244610957+243366352+244354725+245764185+245087484+242473417+239893232
3858+239040681+241347338+247800433+255291875+256608398+251350706+244818944
3848+240430575+239095937+240290243+242727718+245319640+248099179+251500921
3838+254583377+255477284+253933238+251290849+248651069+246409968+244829492
3828+244074155+243948232+244634585+247264172+251955040+255488558+255216605
3818+253411169+252478391+251308346+248507217+245301417+243712663+244874941
3808+248279369+251618922+253579144+255525266+258180165+259564174+258722835
3798+257366206+256187805+254382756+252237000+251249585+252106630+254209484
3788+256724684+259207717+261334817+263066018+265150896+268282477+271627110
3778+273592953+274302377+275639008+279359958+285972904+294168087+301239940
3768+305728845+308774561+311944039+315857966+320924009+327451586+334796349
3758+341691657+347961983+354793078+363546467+374607703+385862779+393867735
3748+398878399+404456473+412538922+419816075+422543664+423295465+426183384
3738+432123351+438881555+443861272+446554670+447419019+446582375+444749373
3728+443338678+443102614+443514451+443881533+443979164+443239718+441098287
3718+438466939+437378634+439315939+444289323+450297271+453903850+453510483
3708+450759514+448511772+449146637+453201436+458303338+460946237+460566832
3698+459366811+459379598+461776273+467070966+474551011+481282035+483138047
3688+479593920+474665259+471290913+469861779+470385794+473047132+477688645
3678+483530796+488060531+487936338+484633463+483275614+485290535+486566690
3668+483370527+477687873+472999876+470617873+469884913+469846120+470571420
3658+472289093+474174107+475547306+477360356+480825383+485561871+489335080
3648+489704757+486739653+482827270+480262668+479828501+480684604+481620918
3638+482577525+484103364+485860138+487286956+489392065+493863951+499542745
3628+501883515+499730193+496835850+496578568+500362062+507280102+513760949
3618+516521030+516454069+516441992+517531440+519089370+520610329+521876909
3608+522429215+522455963+523059602+524706947+526625349+527994534+528976590
3598+530183684+531606857+532505274+532500271+532567664+534661376+540008885
3588+546765545+550357236+549081699+546162585+544450688+543418534+541645605
3578+539780389+539326980+540146267+541363059+543152109+545635420+547581558
3568+547765145+546887483+546771969+547665692+548062702+546837015+544695183
3558+543325999+543804981+546137752+549463946+552663136+555178939+557140335
3548+558804667+560159088+560663521+559263697+555668979+551640372+549803015
3538+551058414+553762746+555595223+555660207+554259828+551800856+549116230
3528+547931622+549495883+552889841+555629630+555986180+554439277+553040133
3518+553274930+554617737+555521652+555553527+555458830+555385876+554548552
3508+552878413+551618751+551436708+551192399+549573160+547137106+545437316
3498+545131728+545854464+547212530+549236130+551924895+554888671+557632043
3488+559921449+561589056+562089165+561049598+558978371+556533545+553871713
3478+551251206+549475498+549038582+549456348+550077408+550669125+551069657
3468+550999792+550318443+549178991+547960407+547152363+547000465+547318469
3458+548000807+549167748+550250617+550014276+548391270+546871361+546501344
3448+546760418+546476327+545194242+543513169+542366303+542099014+542350737
3438+542693388+543194547+544305461+545936066+546730273+545339654+542520240
3428+540262831+539039801+537617801+535477265+533783097+533647692+534802773
3418+536502192+538602885+540786599+541813379+540901557+539332787+539330748
3408+541383258+543611449+543979365+542537598+540892292+540027355+539514336
3398+538659901+537799597+537915173+539104414+540068125+539585065+538327071
3388+538135083+539263478+539892012+538969936+538049837+539286890+542576947
3378+545539240+546123730+544506036+542219162+540544266+540360184+542180677
3368+545409580+548593759+550956058+552626876+553356716+552627803+551092513
3358+550391582+551227115+552769014+554188728+555517081+556668456+556991710
3348+556386094+555675712+555342327+555101168+554803240+554551517+554420127
3338+554922398+556720468+559315277+561096915+561192601+560392155+559718589
3328+558965893+557308603+554818744+552574370+551279374+550533349+549703253
3318+548889649+548739233+549702758+551596204+553554882+554374292+553367465
3308+551190113+549512376+549631967+551357825+553629380+555912486+558191824
3298+559956660+560481045+560353979+561101857+562796149+563695246+562893935
3288+561596963+561260550+562146551+563919356+566072431+567598826+567634222
3278+566469689+565054670+563895697+563030205+562533493+562679956+563776415
3268+565534703+566708810+566248421+564635174+563369953+563542606+565117307
3258+566833467+567125094+565922942+564766564+564416006+563738734+562016644
3248+560688477+561503439+564235445+567088525+568597561+568672429+568165773
3238+567657448+566732283+564704112+561925344+559707594+558910360+559005057
3228+558666297+557326764+555864550+555500402+556463433+557870175+558481721
3218+557943190+557441042+558185955+559355368+558718248+555755399+552787917
3208+552160433+553603312+555118464+555710243+556140549+557008142+557485333
3198+556588955+554468495+551903213+549583970+548020944+547229579+546488681
3188+545276769+544164805+543820610+543786573+543264164+542378720+541716335
3178+541311293+540837932+540136136+539137895+538033344+537499322+537887623
3168+538487494+538424610+537630094+536137797+533646704+530741179+529122744
3158+529590175+530872260+531308373+530822101+530313962+529934000+528959603
3148+527145040+525439938+524952369+525481943+525652929+524574384+522621080
3138+520490923+518634602+517661008+518020090+519005545+519227369+518371760
3128+517489095+517379820+517547933+517033648+515852221+514905034+514571865
3118+514428152+514344080+514559109+514644633+513822165+512292311+511008867
3108+510364458+510079903+509987183+510199525+510756372+511428208+511724191
3098+511062948+509259196+507032673+505602890+505379861+505638996+505787466
3088+506025691+506356050+506174099+505342891+504453492+503816866+503236392
3078+502672997+502335442+502310301+502464577+502458153+501888303+500703015
3068+499319345+498190239+497530325+497445079+497987163+498989882+499964712
3058+500346897+500027411+499462811+498945715+498092793+496484087+494501071
3048+493047382+492621277+493000929+493518427+493396921+492349355+491041202
3038+490397935+490586372+491213577+491897861+492006055+490859622+488901160
3028+487599864+487791296+488864622+489612129+489351697+488232413+486766956
3018+485264962+483794409+482535334+481883389+482046838+482654586+482987384
3008+482621105+481714225+480801693+480446904+480798543+481361289+481456696
2998+480858894+479737634+478342999+477077994+476359829+476121171+475952100
2988+475738800+475601203+475369062+474669243+473429132+471943415+470564625
2978+469555234+469040516+468804298+468340264+467478293+466765100+466872121
2968+467775665+468745645+468966481+468126872+466654559+465339518+464643529
2958+464549697+464895560+465445581+465814331+465717657+465148240+464164700
2948+462877087+461689266+461053567+460922918+460907352+460895152+460932400
2938+460659614+459622425+458054735+456736266+456158757+456157737+456222166
2928+456072214+455969486+456229764+456502335+456064121+454814065+453455722
2918+452758065+452894273+453280876+453044442+451921977+450561996+449700303
2908+449330935+448958448+448397926+447950756+447903840+448239047+448776559
2898+449245751+449284204+448716300+447759941+446758735+445924592+445398075
2888+445216248+445140114+444795331+444063205+443190362+442413359+441628047
2878+440709893+440006306+440013904+440622485+441230356+441540268+441637683
2868+441432723+440729135+439760947+439059460+438797607+438640334+438260589
2858+437745809+437397413+437249808+436962196+436244741+435185623+434066987
2848+433105995+432491638+432386038+432638255+432706729+432177865+431224625
2838+430338192+429782704+429463218+429142681+428637290+427941332+427246424
2828+426723243+426358138+426152529+426256739+426617952+426740509+426200062
2818+425256922+424581472+424439025+424492335+424379662+424110366+423832853
2808+423548577+423172538+422652044+421986262+421276435+420675082+420199311
2798+419738983+419245021+418702443+418015566+417171261+416397655+415930656
2788+415741725+415636527+415462669+415159274+414746820+414335663+414038507
2778+413777890+413293811+412512792+411801453+411647361+412112878+412690573
2768+412702001+411923237+410825480+410047859+409723585+409502131+409031735
2758+408197901+407118800+406129979+405556237+405328760+405004486+404272206
2748+403306210+402538997+402230908+402350993+402676657+402846006+402538164
2738+401826855+401150201+400790809+400614078+400363005+399977329+399616270
2728+399501033+399655711+399754485+399388577+398522497+397529816+396753368
2718+396198869+395725075+395314165+394959530+394491234+393822239+393233919
2708+393087395+393320184+393456547+393090546+392300138+391598929+391408670
2698+391575764+391578668+391181255+390594510+390011688+389336918+388469665
2688+387609485+387126147+387154779+387415180+387511947+387329409+386985801
2678+386495699+385751991+384856786+384188810+383997687+384109278+384214353
2668+384294009+384489703+384699019+384654203+384302008+383791151+383213487
2658+382592304+381956388+381268244+380450934+379559529+378764488+378187874
2648+377892108+377927071+378248194+378678717+379060840+379340762+379409113
2638+379031437+378142440+377067354+376229011+375783107+375691220+375891888
2628+376214432+376409664+376418806+376348139+376143394+375626267+374900534
2618+374403823+374435914+374810409+375086531+375030936+374684393+374097895
2608+373332351+372653874+372339298+372306065+372281572+372253188+372391002
2598+372646369+372770222+372639018+372327314+371975397+371729883+371683091
2588+371797925+371958008+372041000+371910135+371498206+370938518+370423151
2578+369970977+369575696+369448352+369754342+370220074+370403198+370276874
2568+370138473+370035807+369724722+369175967+368728859+368662361+368856573
2558+368939811+368668167+368153326+367747142+367675331+367826272+367949384
2548+367966217+368001675+368199099+368580698+368979809+369077193+368699764
2538+368107336+367733305+367672799+367730649+367879520+368248270+368690529
2528+368802862+368444891+367984533+367928907+368347322+368736519+368599106
2518+368097329+367840078+368058969+368362394+368342133+368075740+367911919
2508+368029472+368336388+368607785+368634285+368370332+367975885+367651518
2498+367512623+367658622+368120216+368639073+368767158+368326196+367625883
2488+367160521+367147857+367393835+367627149+367854409+368206079+368555124
2478+368630579+368507065+368595461+369026818+369348312+369050755+368220874
2468+367402545+366965042+366894220+367035401+367234617+367331136+367232424
2458+367005688+366855551+366964579+367274830+367538351+367645742+367646854
2448+367478278+367064897+366613032+366426202+366570533+366936750+367351799
2438+367553022+367418513+367235358+367411224+367963623+368513860+368709123
2428+368514076+368167008+367951207+367977553+368140601+368311957+368561765
2418+369046369+369652448+369990065+369856266+369491840+369275637+369367832
2408+369698191+370110675+370457867+370642381+370647261+370594507+370730407
2398+371206764+371901178+372583237+373144872+373540832+373713177+373732203
2388+373833015+374219031+374932471+375853404+376737181+377421526+378102813
2378+379252458+381192141+383853016+386960628+390382230+394216501+398412604
2368+402417182+405537149+407534775+408559948+408772075+408255565+407094307
2358+405523714+403919980+402390867+400766965+399205514+398153439+397763933
2348+398024427+399264044+401978815+405824267+409245560+410872273+410895283
2338+410566778+410559149+410494597+410117260+409840335+409810128+409498456
2328+408572766+407279840+405899969+404525349+403207467+401879053+400370386
2318+398689530+397058709+395690822+394660799+393851427+392984328+391910416
2308+390848302+390118771+389705174+389307731+388791067+388348406+388194531
2298+388269708+388352236+388371571+388441651+388599696+388720615+388752335
2288+388856391+389215196+389783285+390275703+390396468+390108547+389663261
2278+389341891+389238360+389306341+389478655+389669006+389752183+389633889
2268+389354678+389116669+389158489+389532613+390010978+390291548+390339360
2258+390461175+390958720+391756047+392486165+392914495+393134682+393365618
2248+393718215+394159763+394579198+394877126+395002400+394878546+394403579
2238+393631517+392840182+392286332+391977037+391749097+391473222+391163310
2228+390967955+391021419+391256000+391444714+391465748+391429703+391530053
2218+391865507+392432485+393202199+394117882+395042706+395876448+396774402
2208+398021987+399600888+401156563+402490877+403790691+405311958+407128529
2198+409189470+411396504+413649774+415885593+417998640+419818608+421313097
2188+422685710+424150672+425711845+427187277+428388193+429304988+430090300
2178+430835398+431517457+432155226+432757136+433154795+433142039+432739778
2168+432173047+431612216+430981582+430032790+428649861+427042823+425551731
2158+424274340+422956087+421299446+419314669+417185747+414923921+412493148
2148+410075132+407870198+406039513+405127691+405863122+408206611+411210137
2138+414011822+416494051+418976280+421726231+424762589+427920144+431077206
2128+434228368+437362141+440468024+443608962+446850405+450240688+453876237
2118+457821915+462030528+466426155+470932387+475438062+479955814+484842902
2108+490697222+497937436+506558694+516396898+527419618+539436255+551705912
2098+563247643+573463308+582216697+589490762+595211067+599321831+601810639
2088+602574887+601510673+598788304+594627874+588887122+581437871+572796166
2078+563861228+555267706+547215000+539743882+533100389+527599685+523004501
2068+518608657+514167318+510059117+506522156+503450649+500671079+497865934
2058+494689569+491225160+487860945+484850531+482342882+480439398+478962823
2048+477495853+475761872+473904687+472480463+472113659+473096025+475442015
2038+479206515+484548804+491682059+500838914+512016497+524751423+538310516
2028+551944909+564937858+576744531+587138224+596160075+604069963+611097803
2018+617001881+621296913+623985245+625494035+626017494+625434610+623623630
2008+620526859+616113780+610517390+604142113+597448399+590652638+583679651
1998+576363890+568762802+561299714+554394430+547971526+541711702+535700325
1988+530308155+525717667+522069700+519565449+517941238+516442208+514771297
1978+513453291+512889063+512673477+512257811+511861819+512226060+513563370
1968+515196878+516386304+517166767+518021017+519107963+520283244+521583181
1958+523234542+525306077+527657504+530117773+532535419+534850153+537226288
1948+539937662+543145067+546851964+550727809+553917177+555706722+556456453
1938+557225457+558843893+561638906+565346977+569090999+572022653+574099069
1928+575922156+578031311+580509186+582977609+585074409+587067247+589451227
1918+591940159+593699683+594692117+595823972+597720321+600007628+601714027
1908+602289252+602273500+602699173+603820465+604925510+605515189+606042107
1898+607160804+608778252+610203216+611098112+611960392+613359660+614911319
1888+615679582+615571975+615214622+614750094+613969044+613212642+613111150
1878+613695763+614369267+614530246+614135150+613884231+614582999+615938285
1868+616397562+615003484+612603072+610445796+608871157+607576656+606255407
1858+604706218+602813575+600735986+598860824+597405097+596215300+595145650
1848+594584633+595091352+596081686+595556807+592602173+588867232+586102239
1838+584505918+583475247+582707416+582504247+583198507+584236406+584243942
1828+582743800+580642614+578392494+575562270+572339977+569726019+568210928
1818+567396769+566751865+566183930+565898480+565964330+566090036+565871671
1808+565230351+564458814+564027890+564458073+565985888+568104865+569781552
1798+570556548+571166735+572756508+575516312+577917465+578094690+576549948
1788+575465906+576035879+577864649+580051576+582214473+584306455+586167965
1778+587859786+589932496+592981270+596959471+600586744+602051366+601078390
1768+598864778+596651166+595533765+596293133+598546156+600806468+602335210
1758+603672705+605036330+606430593+608926443+613653202+619574700+623677434
1748+624417775+623064961+621506568+621090408+622553115+625483843+628231477
1738+629965859+632272439+636846372+641896015+643442239+641712798+639497765
1728+637899653+637068135+637301882+638668780+641099831+645181068+651718251
1718+659666005+664968050+664943588+661932803+659201662+658239126+659506694
1708+663041246+667796358+671649656+674155451+677657882+683571225+688932201
1698+690418134+689375664+687619229+685602671+684703018+686450867+690563052
1688+695586256+701344243+708276645+713629651+713810088+710930138+708836302
1678+709292120+712531895+717266066+721328216+724342089+727487846+730308865
1668+730971930+730219481+730675670+733017645+735334293+735853181+735282775
1658+735463088+737984265+744065815+752289630+755933210+753617303+752301799
1648+754490455+756691218+754566003+749424381+744973374+742579881+742436013
1638+744752847+748404767+749487883+745868456+741221260+739197227+739932071
1628+741384710+742001136+742097006+742218698+742056484+741899582+743088144
1618+745881242+747655159+745503134+741211870+738461642+738322963+739291801
1608+739541361+738918325+738375778+738426308+739024017+740164582+741900385
1598+744008119+746128888+748217782+750488039+752932927+755157040+756776403
1588+758073375+759899242+762520552+764899714+765896905+766210338+767907348
1578+771733033+775143793+774368550+770612174+768374656+769056252+769904386
1568+767649139+763249651+759795650+758907734+761330816+767924150+776737520
1558+779270495+772536382+763906476+757862669+755080134+754754532+755428530
1548+756454198+758697399+763053091+769031975+775414603+780764151+782311919
1538+779547853+776748639+777043108+779824161+782065015+782559502+783563797
1528+786899319+791662893+796119645+800690119+806598460+812282628+815132372
1518+816143214+817713838+820139824+822973074+827117196+833774217+842734543
1508+852167923+858515279+859247837+857382868+856759523+858418914+861983981
1498+866497131+870439751+872913178+875469997+880855743+889678132+898032101
1488+900541603+897965511+896012640+898290742+904072202+909974859+913361528
1478+914769134+916566957+920115902+924821102+929030826+931669494+933220350
1468+934909392+937541882+940712595+942864620+943460476+943779160+944689561
1458+945305740+943955952+940998663+938256156+936283209+934885486+933629592
1448+931536251+927823732+923604557+921418001+922587846+926137965+930475311
1438+934819142+938103825+938971418+938383901+938490644+939249888+939035476
1428+938347764+939863164+944222068+948829729+951364805+952442423+953377224
1418+953418488+951252811+947586561+944293909+942570769+942112048+942187286
1408+943223827+945751922+948423143+949536219+949989320+951507746+953509108
1398+954242099+953873750+954244940+955738472+956725533+956431867+955819394
1388+954979043+952530696+949215992+948698401+953218531+960934207+968329222
1378+973881382+978134656+981531888+983629183+984054485+983229763+981917533
1368+981157115+982097537+984735958+987481307+989237247+991256894+994921292
1358+998904126+1001099515+1001831950+1003255679+1006106967+1008521278
1350+1008556921+1006948678+1006393777+1008273015+1011334700+1013805408
1341+1015799235+1019044383+1024275637+1029323426+1031423253+1031171778
1332+1031369388+1033007344+1035336964+1038647715+1043762095+1049122206
1324+1051521938+1050005550+1046266593+1042564823+1041311215+1044647540
1315+1051934083+1058350871+1058947592+1054970688+1052798155+1056622110
1307+1064678831+1071655029+1073741823+1070969727+1065699928+1060336852
1298+1056953210+1056937767+1059000963+1059732595+1057550054+1053916111
1290+1049780328+1044332501+1037789080+1031698326+1026400976+1020781669
1281+1014467917+1008946890+1005981323+1005544160+1005692537+1004444550
1273+1001758750+998912898+996391659+993475510+989641733+985854532+983550485
1263+982476264+980749541+976670836+969783405+961360003+954361876+951218898
1253+951119383+950280206+945628253+937666848+928994689+921328555+914414932
1243+906752875+897284965+886884478+877794862+871123386+865500867+858917478
1233+851467177+845200928+841539063+839913215+838927637+837978628+837232604
1223+836665904+836060844+835756121+836250300+836976434+836910275+836290081
1213+836429687+838029096+840560280+843238173+846004957+849477490+854043516
1203+858882762+862460246+864501822+866403299+869327664+872945053+876174202
1193+878394362+879902102+881631604+884231108+887441232+890851066+894793377
1183+899469050+903849698+906983533+910104148+915689851+924242110+933510371
1173+941413588+948364892+955684916+963277973+969948090+974587934+976096415
1163+973830914+969321286+966013562+966793932+972280984+980445559+988011004
1153+993098081+995995822+997326707+996997337+995392677+993711419+992367314
1143+990752585+989198269+989539314+992543736+996001011+997440739+998013925
1133+1001197116+1007921530+1014796608+1017686256+1016215210+1013379797
1124+1011834315+1013086872+1016981681+1020221641+1019711030+1016106861
1115+1012160720+1010604921+1014427518+1024286200+1034513106+1036875466
1107+1030306965+1021352631+1015830615+1014846829+1015967750+1016205017
1098+1015396108+1016296008+1020350065+1025327805+1027784244+1026239565
1090+1021720114+1016527160+1012934171+1011968608+1012927006+1014083816
1081+1014871290+1016925159+1020720082+1023623382+1022386885+1015629978
1073+1005165989+995772391+990928636+988369964+983013065+974198645+965965503
1063+961844299+962454609+966171266+970886226+975474121+979232227+980765602
1053+979060129+975311968+972410150+972412559+974772387+977302953+978732180
1043+979311790+978685356+975727573+971403199+969208180+971123185+975076739
1033+977941247+979022077+979696014+980823050+981400992+979946068+976226631
1023+972042358+969900463+969988859+969914362+968338240+966911917+967692349
1013+970028147+971618352+971621194+970553397+968252871+963376006+955207786
1003+945090216+935151169+926771626+920640905+916902319+914315787+910473609
993+904097714+896367275+889535438+884718677+881303778+878681418+877523743
983+878142269+878988612+878273474+875970168+872872285+868927008+863716634
973+857757764+852430949+848858407+847161829+846411666+845313786+843258682
963+840502523+837250085+833464861+829917337+828236326+829277128+832098271
953+835180217+838163822+841690776+846233700+851796732+858162373+864832243
943+871025662+876398498+881718147+888044254+895212070+901914555+907337859
933+912184209+917873257+924945944+932423487+938473162+941894856+942861717
923+942149729+940464394+938804324+938373029+939210106+939861805+939088044
913+936826620+933228134+928612256+924882689+924727888+928240758+931860926
903+932162993+930094237+929340923+931527541+935295098+938955975+941970527
893+943930873+943755625+941039247+937515444+935767286+936857568+940323738
883+945603606+952060794+957724886+960024979+958655239+955200929+950508455
873+945827099+944601041+949337621+957459450+963072518+963412390+961102536
863+960158408+962398397+966884366+971412403+973567270+971994113+967905278
853+964612935+965038547+969584312+975608970+979423968+979416556+977342302
843+977069392+980205018+982684498+979071804+971476029+967646575+971550156
833+980720261+990530822+998583404+1004483343+1009139310+1014180120+1018658121
823+1019086821+1015024300+1011313574+1011376087+1011005824+1005447918+997625006
813+994519092+1000023194+1012382359+1025924464+1034442377+1034935629+1029643654
803+1023904447+1021553329+1022345374+1022978973+1021823151+1020688949
794+1019237978+1014571509+1007573876+1002803568+1002005839+1001768078+998206099
784+991310451+982935665+974251831+966335704+960179287+956277560+954963291
774+955482549+954792552+950558305+945227289+943234390+945291224+948385092
764+950808359+954972001+963002777+972312303+977655982+978647552+980191181
754+982601291+981315438+976122669+972706102+974517576+978950113+982638601
744+985219512+987094303+986816018+983662107+980847327+982339314+987711161
734+992252047+993571566+996224503+1004597066+1013834812+1014902732+1007446563
724+999330664+996978558+1001028786+1007432108+1010214582+1006973325+1002022024
714+1000859530+1004176705+1008590648+1012185614+1016010496+1018509126
706+1014414978+1003166974+991190551+983312723+978926639+975956872+974362465
696+975235988+979058770+985916922+993876104+996995608+992608535+985636475
686+981744879+982407511+985651918+987563340+984846283+980786913+981259595
676+984262658+980824162+966730059+946668067+927517836+915334166+913027710
666+916522110+922559987+931613775+941671055+946858820+942755221+931197985
656+920040416+917225018+924633932+937526933+948572447+952371447+948945305
646+942191240+937033249+937426491+942705371+948039908+950757644+951229153
636+949366037+945876022+942077888+936124207+925800379+913617636+904122423
626+898713636+895121141+891976187+889128914+886928583+886955392+889357534
616+890921363+889317011+889899648+900203770+917210192+925187289+914700938
606+895748810+880912636+876121510+883643715+896824328
##END=
