##TITLE=<SNM>
##JCAMP-DX=4.24
##DATA TYPE=INFRARED SPECTRUM
##DATE=29/4/2025
##SAMPLING PROCEDURE=Instrument type and / or accessory
##ORIGIN=Admin
##XUNITS=1/CM
##YUNITS=ABSORBANCE
##RESOLUTION=4
##FIRSTX=4497.3318
##LASTX=599.83466
##DELTAX=-1.4281778
##MAXY=2.1173513
##MINY=0.37475061
##XFACTOR=1
##YFACTOR=1.9719371e-09
##NPOINTS=2730
##FIRSTY=0.3878417
##XYDATA=(X++(Y..Y))
4497+196680568+196929483+197308900+198046108+198746334+198567303+197392673
4487+196116830+195507556+195540200+195876530+196390666+197189068+198217568
4477+198917945+198777966+198264101+198365103+199177605+199843554+199869050
4467+199627647+199595108+199867781+200307575+200517966+199915281+198465062
4457+197146902+197018273+197833390+198200671+197300180+195951098+195651479
4447+196811978+198295340+198808480+198352136+197713088+197135930+196454807
4437+195908902+195796339+195853966+195787513+195889285+196574730+197710141
4427+198611297+198518820+197267596+195507238+193929070+192567565+191356044
4417+190901318+191914583+194074399+196097349+196966586+196711278+195940187
4407+195062713+194167058+193294360+192667131+192651610+193311861+194103295
4397+194355943+194021170+193607174+193548686+193905070+194381122+194558188
4387+194386170+194211854+194063593+193516389+192641711+192232702+192578704
4377+192913265+192623258+192266026+192763418+194068066+195204535+195460417
4367+195047116+194508859+193961685+193209363+192304913+191688732+191873007
4357+193024846+194665825+195858469+196000458+195443627+195074123+195332378
4347+195889180+196170935+195875804+194998996+193650473+192049922+190662604
4337+190041874+190348476+191139200+191752676+191857486+191603432+191390895
4327+191577408+192231961+193088624+193876401+194585966+195191916+195302923
4317+194587810+193486767+192858132+192932973+193264466+193675349+194514632
4307+195796294+196870179+197295722+197420905+197746217+198127297+198011106
4297+197326915+196746537+196937599+197799415+198627529+198874132+198510054
4287+197815964+197094006+196486076+195951234+195461490+195191810+195413838
4277+196188693+197183430+197859959+197981817+197873954+198002129+198368624
4267+198563751+198417334+198264449+198394226+198541202+198294555+197808332
4257+197651971+198090602+198884257+199595727+199871211+199711661+199442283
4247+199174023+198705287+198248656+198508240+199635173+200876482+201562532
4237+201784711+201898710+201950367+201842414+201590869+201232051+200795717
4227+200452662+200377202+200392315+200160357+199855040+200054399+200832185
4217+201605786+201950262+201984297+201898302+201689574+201451042+201376624
4207+201415072+201301194+201013257+200935152+201411249+202296959+203075864
4197+203337005+203046363+202500217+202181585+202418983+202965114+203176654
4187+202827599+202449527+202599843+203080942+203228039+202840461+202466469
4177+202741454+203729254+204907027+205592004+205508458+205065459+204875622
4167+205023429+205172869+205302344+205716764+206325615+206596429+206334864
4157+205974353+205978374+206300194+206517916+206375791+206058307+205879503
4147+205954963+206330270+206974577+207390885+206861530+205440449+204084369
4137+203561936+203789631+204282322+204736853+205124869+205549642+206091224
4127+206728110+207332533+207648354+207429077+206854729+206543623+206754181
4117+206980078+206779420+206439750+206374295+206465987+206454228+206475644
4107+206808906+207373551+207794998+207825965+207529383+207140520+206873802
4097+206832104+206983720+207227950+207533056+207909133+208255921+208464589
4087+208699267+209289892+210207642+210928332+211022668+210640757+210193164
4077+209856366+209662100+209723037+210021145+210264377+210224856+209964093
4067+209623864+209328929+209298159+209659199+210178096+210495066+210555322
4057+210527378+210363974+209913418+209522409+209795369+210516980+210673417
4047+209942028+209193349+209146226+209569985+210027553+210431318+210796771
4037+211168647+211647963+212118588+212294642+212135077+211819150+211485722
4027+211311165+211523112+212111228+212770225+213211743+213365671+213300896
4017+213102973+212844204+212548560+212143525+211630688+211327321+211563888
4007+212073627+212230744+211996700+212019748+212716301+213728343+214306016
3997+213969429+212883605+211775957+211441607+212161313+213449232+214435188
3987+214656733+214355738+213949480+213554027+213134136+212781454+212722044
3977+213157456+214038300+214998942+215645818+215853428+215705168+215292320
3967+214690481+214080829+213799934+214114758+214854278+215448318+215479648
3957+214990917+214277391+213820791+214288787+215948400+217979345+218931599
3947+218283861+217116289+216827974+217623836+218434615+218217862+217146803
3937+216413056+217144037+219409781+221949936+223031121+222140922+220633755
3927+220228101+221246279+222390864+222352416+221615133+221742643+223058899
3917+223968563+222914295+220448120+218428389+217907058+218510680+219558722
3907+221469758+225465301+231446782+236744798+238550102+236796606+232901672
3897+228143485+224273563+223288317+225663647+229017301+229950165+228684176
3887+228376743+230097761+231761031+232153733+232620853+233122823+231628247
3878+228699818+227524236+229436270+233007041+236769568+239908947+240791801
3868+239202555+237818411+238264493+238518591+236022098+231779530+228703370
3858+228841414+233718390+244049849+254410900+254189340+244576394+234290728
3848+227860520+226234232+228671632+233370786+238423544+243035283+247020217
3838+249199831+248362709+245397812+241999287+238840306+236003343+233946418
3828+233127508+233341330+234643516+238200156+244030489+248399963+248535423
3818+247172437+246426781+244154176+239178057+234297423+232519866+234787635
3808+239556069+243378777+244960254+246715972+249762949+251194232+249184098
3798+245865159+242686939+239382659+236480588+235150398+235274190+235927701
3788+237198194+239729538+242871743+245306287+247213228+249447189+251155557
3778+250868889+249445254+249335109+252145307+257886276+264821099+270168066
3768+272837303+274183739+275530993+277773946+282479266+290474251+299493490
3758+305940971+309878842+314890840+324090832+337192545+348797867+353833502
3748+355514395+359535781+366380408+370735737+369958524+368593891+371575457
3738+380582394+393102549+403135764+406239989+403411610+398800446+396048932
3728+396602318+399521346+402665410+404828415+406206317+407025998+407341985
3718+407827633+409703063+414118149+421339035+429283542+433917740+433750587
3708+431198750+429380599+430370606+434725602+441094223+446917680+450579613
3698+452182038+452803373+454088843+457388785+462763711+468439996+471172043
3688+469259556+464802697+460838378+458779957+458709287+460170645+463190720
3678+468735127+476081664+480349547+479326080+477733781+478529734+478472394
3668+474339442+468702210+465592997+466200912+468837292+471470197+474230597
3658+478319146+483076879+486877492+490928772+497759253+506586584+511726077
3648+508964952+502188395+496405743+493188622+492356579+493046044+494176876
3638+495348664+497080609+499764325+503325272+508421843+515875140+523155239
3628+524907890+520896417+515856521+513339020+515261301+522000831+530648556
3618+536646087+539160565+540556240+541910990+542923394+544018377+545586707
3608+546198611+544396268+541413100+539826635+540736571+543227049+545984366
3598+548592485+551451181+554884905+558303395+561042515+563798562+567393030
3588+569927639+568394916+563919347+559875412+556931235+554562993+553986091
3578+556434856+560454792+563099545+563048765+561473786+560853539+563568418
3568+569495521+574257033+573869892+570381398+567965277+567553593+567888744
3558+568370675+568989652+569638613+570592318+571894715+572586175+572040044
3548+571012103+570499039+570522616+570535734+570462344+571031327+572893276
3538+575358424+576996153+577266438+576631199+575810611+575019283+573819293
3528+572147650+570887086+570730030+571373974+572476393+574114606+575852143
3518+576765162+576612519+576222537+576514404+577375011+577629518+576561436
3508+575210375+575027807+576103687+577372230+577745890+577049533+576167344
3498+576119526+577015740+578356524+580210614+582863650+585425885+586446753
3488+585922989+585267801+585303287+585350923+584630809+583438254+582328521
3478+581415501+580987797+581343199+581637363+580483680+578187679+576725324
3468+577147950+578547253+579905327+581226646+582315947+582276290+580983746
3458+579560262+578922666+578843412+578868016+579652030+581809472+584137755
3448+584566487+582611622+579277101+575571762+573087088+573944673+577930573
3438+581560044+582163364+581024068+580548727+580970386+581333889+581652174
3428+582502746+583245772+582328400+579678992+577456804+577565921+579344748
3418+580490813+579882113+578793296+579017939+580171199+580032460+578014180
3408+576254396+576139294+576358194+575548004+574679356+575253296+576845263
3398+577987218+578015268+577155869+576041844+575535067+576080473+577425550
3388+579379085+582052674+584780006+585870274+584589157+582588287+582458857
3378+584888640+587572507+587799749+585709469+583700922+583242568+583728791
3368+584229885+584931683+586353837+588371029+590726394+593678792+597102118
3358+599655346+600386342+600031363+599032984+596529146+593167059+591681066
3348+593064591+594951749+594990378+594003303+594282898+596164494+597776954
3338+597581812+596001150+594611157+594508810+595439664+596006289+595153238
3328+593663679+593274725+594457909+595669929+595056151+592630297+590438094
3318+590415001+592376637+594520841+595711400+596437076+597264616+597690144
3308+597075640+595771792+594675660+594279815+594756123+596173985+598186522
3298+600349224+602649034+604711565+605227833+603365340+600037650+597042875
3288+595720830+596487010+598550388+600281517+600731408+600297537+599754670
3278+599753582+601028654+603434196+605123249+604434933+602027820+599860100
3268+598987584+599197234+599918135+600699307+601239756+601405215+601183293
3258+600689695+600363733+600848082+601943669+601927105+599149537+594608316
3248+591669761+592545240+595864466+598556010+599257445+598801268+598373080
3238+598564292+599381374+600068179+599422542+597153927+594770813+594245417
3228+595482525+596237582+595300622+594106255+594071978+594359008+593618642
3218+592243762+591631858+592273142+593390372+594133700+594564488+595163515
3208+595847721+596111114+595552650+593809068+590946201+588265478+587290192
3198+587638823+587426513+585951704+584322741+583425922+583064656+582954208
3188+583032011+582967326+582447371+581563490+580487186+579478651+578798979
3178+578008557+576328814+574243189+573386148+574193194+575045701+574207461
3168+571785114+569563470+569213932+570698655+572425250+572899321+571914483
3158+570251787+568852061+568242333+568225346+568108309+567396718+566287649
3148+565457631+565218056+565005504+564076525+562679156+561642449+560827605
3138+559317855+557161440+555662027+555671880+556614341+557342194+557095062
3128+555714197+553798445+552394790+552044344+552453429+553034623+553357865
3118+553248868+552797285+552106430+551121168+550022074+549320579+549120661
3108+548757944+547635878+546180717+545404683+545490586+545355414+544098961
3098+542553785+542301334+543393597+544187464+543390332+541413946+539513549
3088+538521638+538559421+539178942+539706877+539918221+540192737+540620320
3078+540545782+539450013+537792153+536553836+536255199+536699528+537281991
3068+537258838+536163613+534265452+532320623+530907960+530254766+530293698
3058+530460971+529877721+528520675+527682617+528153666+528773549+528164366
3048+526884034+526116524+525392359+523616314+521301754+519694553+518753846
3038+517822207+517221728+517646228+518871729+520071356+520681265+520525841
3028+519619229+518122476+516413292+515053162+514387515+514063427+513515906
3018+512985855+513094307+513507503+513191697+511951022+510650076+509936188
3008+509597410+509133374+508316655+507182438+505920242+504865369+504395499
2998+504633533+505249880+505764939+506021561+506114659+505971204+505318071
2988+504036651+502414095+501038883+500321368+499977905+499221518+497732291
2978+496298923+496146975+497551960+499346928+500055526+499441748+498388931
2968+497440032+496370046+495084697+493991044+493367381+493070709+493015666
2958+493345709+493874369+493996333+493400842+492309002+490974807+489567645
2948+488501710+488247112+488698151+489055216+488471604+486881059+485195511
2938+484445321+484715576+485154675+484981961+484199127+483355748+482848337
2928+482511040+481934229+481048715+480141438+479398412+478840583+478638519
2918+479023997+479850871+480526765+480504427+479833733+479090162+478680171
2908+478472425+478171823+477573309+476435948+474780929+473250474+472497261
2898+472374572+472184508+471484131+470394649+469367041+468722613+468335563
2888+467944191+467699418+467936453+468507340+468832184+468479260+467419732
2878+465992561+464741488+463930906+463260332+462435090+461837603+462104987
2868+463100102+463865012+463806312+463422346+463386286+463429056+462860557
2858+461774098+460880906+460424366+459974657+459171359+458152788+457198540
2848+456308099+455405326+454735931+454538733+454444638+453861510+452877397
2838+452053757+451494840+450876618+450128302+449423391+448847789+448516235
2828+448547399+448711196+448568134+448007373+447304155+446781419+446633067
2818+446815756+446964772+446596493+445470679+443808346+442212329+441253486
2808+441067563+441394281+441896493+442299109+442372136+441981308+441199683
2798+440355368+439843543+439762627+439745791+439209906+437862230+436096371
2788+434739536+434155350+433869891+433374721+432834605+432614617+432635534
2778+432574204+432294398+431891782+431605477+431675663+432059871+432333934
2768+432021272+431059104+429848625+428730791+427556554+426041998+424437790
2758+423494664+423714652+424750875+425594495+425428280+424281882+422818892
2748+421678508+421072226+420745902+420305442+419717266+419279466+419009392
2738+418459120+417321366+415905409+414862052+414585783+414850173+414953064
2728+414395447+413458820+412831803+412663411+412419907+411769131+411074044
2718+410774954+410753463+410551429+409906004+408925156+407954705+407372453
2708+407354166+407641287+407554870+406554707+404942822+403685069+403391721
2698+403761723+404058275+403829975+403124338+402273373+401619031+401326318
2688+401265200+401075409+400543635+399892859+399475583+399284703+399057673
2678+398749121+398556155+398484640+398191383+397435963+396540414+396045335
2668+395918173+395577309+394797346+394051085+393809516+393981353+394119216
2658+393875832+393288986+392718311+392378958+392065873+391586905+391162767
2648+391002688+390815042+390202201+389308919+388656965+388464997+388471012
2638+388385138+388224576+388115670+388000174+387724570+387294024+386864567
2628+386535159+386247041+385885442+385474120+385174153+384987051+384664414
2618+384100812+383534429+383162009+382895321+382635797+382446549+382400212
2608+382530488+382847321+383202331+383304738+383004650+382455133+381986321
2598+381822736+381858010+381825456+381728157+381787068+381937777+381792056
2588+381148353+380227928+379467491+379247292+379566906+379902752+379731761
2578+379175685+378732565+378545615+378423349+378370725+378531167+378721110
2568+378534733+377860805+376977497+376239246+375847058+375781225+375864106
2558+375993445+376275548+376807050+377432345+377879182+378047604+378003080
2548+377754861+377242825+376539304+375875532+375439485+375295305+375447163
2538+375782495+376071006+376245715+376526972+377058685+377608807+377832573
2528+377662731+377290613+376961417+376883795+377093023+377322895+377253978
2518+376917921+376623334+376552574+376670699+376912148+377232276+377545996
2508+377753984+377809238+377710851+377434279+376948147+376403376+376138109
2498+376242753+376344888+376170784+376017022+376246864+376670064+376881921
2488+376936299+377224024+377799928+378184953+377890154+376986172+376050513
2478+375586476+375599141+375762968+375880398+376038603+376363054+376813640
2468+377265616+377629663+377857903+377984824+378161104+378477424+378768474
2458+378754147+378380186+377903363+377625310+377619870+377742136+377854789
2448+377995040+378269557+378630188+378881793+378901289+378736223+378511761
2438+378313053+378103221+377784332+377439508+377371650+377747576+378375652
2428+378945904+379289336+379361064+379185599+378852504+378482472+378228419
2418+378246736+378526542+378832373+378955939+378962196+379095706+379495602
2408+380069874+380621869+381031347+381303596+381516270+381750615+382035046
2398+382367537+382767614+383212638+383601139+383898053+384172932+384386331
2388+384345284+383948259+383261363+382333774+381112172+379506665+377442319
2378+374929414+372146223+369390569+366914540+364842305+363188284+361785717
2368+360261095+358444153+356853396+356311859+357017223+358509956+360534161
2358+363252999+366581263+370099893+373761978+377797752+381631130+383816381
2348+383308365+380514172+377294754+375489026+375230439+375481379+375505167
2338+375156777+374651995+374396824+374662847+375372020+376249523+377085406
2328+377743828+377987695+377645622+377066786+377042182+378023393+379629596
2318+381100747+382067419+382721066+383384959+384187109+385151151+386294587
2308+387470668+388353945+388770586+388903673+389089596+389534015+390246906
2298+391124621+392020805+392795962+393401428+393908447+394348514+394588149
2288+394525671+394310610+394192817+394244988+394343284+394317894+394055317
2278+393561901+392986177+392517940+392247625+392141076+392102386+392001612
2268+391691398+391159049+390667870+390556939+390888130+391468266+392150326
2258+392874188+393508097+393929091+394214913+394547313+394958272+395315518
2248+395528856+395628603+395623344+395420736+394973717+394390226+393805012
2238+393241440+392663420+392093772+391636053+391342252+391048602+390518642
2228+389853207+389485804+389612574+389927926+390068661+390021538+389972692
2218+390041276+390270966+390683920+391240147+391824878+392354022+392868778
2208+393452783+394086662+394698324+395319024+396055280+396935897+397872675
2198+398722280+399372783+399846643+400308231+400911098+401648290+402341111
2188+402794054+403045991+403377243+403910951+404379884+404523037+404511883
2178+404680970+405020080+405269993+405400087+405647460+406125069+406689578
2168+407188253+407604985+407982121+408358531+408746427+409129093+409574148
2158+410256117+411201600+412185652+413090299+414134048+415502762+417002659
2148+418363786+419707623+421398914+423539278+425914382+428358583+430854713
2138+433341805+435754691+438217149+440914406+443826663+446807202+449862128
2128+453164065+456759561+460385555+463712187+466688404+469429670+471862566
2118+473800263+475273167+476482467+477592231+478840250+480679529+483620955
2108+488092081+494490415+503055712+513512943+524955950+536032672+545122489
2098+550798713+552730364+551869031+549332730+545482909+540259054+533791139
2088+526400169+518398988+510011210+501324342+492403007+483493793+475002247
2078+467322131+460721341+455244370+450722161+446972934+443915619+441484386
2068+439627001+438356856+437593668+437034932+436402051+435736162+435307431
2058+435299269+435636899+436070769+436427592+436767730+437242467+437903398
2048+438833708+440348174+442803589+446295015+450775239+456379131+463433348
2038+472267238+483109252+495927470+510151702+524629262+538030277+549434775
2028+558578516+565514396+570133118+572244616+572147710+570785465+569036805
2018+566917508+563772628+559392998+554502661+549819376+545213289+540170974
2008+534590266+528764844+522975090+517366392+512025137+507051769+502522427
1998+498394583+494718050+491938184+490449290+489773336+488868780+487428338
1988+486124793+485552576+485649875+486064310+486565827+487147384+487971357
1978+489144082+490508836+491802075+492958418+494171495+495757749+497909297
1968+500353982+502395355+503643677+504527982+505756445+507566979+509738507
1958+511993521+514135850+516081043+518004412+520272302+523060872+526128252
1948+529085305+531930339+535063310+538465236+541274965+542913178+544086750
1938+545752408+547874123+549888655+551678181+553528402+555595166+557774492
1928+559991118+562558008+565861577+569413487+572032125+573503608+574774812
1918+576090811+576556116+575993965+575628950+576563733+578653590+580873178
1908+582452872+583498163+584448906+585380183+586157365+586811949+587428024
1898+588045067+588690885+589184604+589373096+589757093+590901405+592158523
1888+592320416+591534287+590896932+590674949+590364281+589814704+589309197
1878+589027728+588944183+588974530+589289731+590557670+593203754+596008465
1868+596350447+593163552+588300359+584064849+581282021+579570237+578236707
1858+576799742+575087655+573163803+571286136+569833090+568979616+568580446
1848+568779457+570194115+572418056+572922958+569944263+565394760+562048874
1838+560487739+559504594+558294750+557733445+558956769+561081205+561582117
1828+559780198+557416974+555151925+552081221+548385313+545537982+544251907
1818+544008282+544035909+544037904+544251725+544903226+545526012+545365147
1808+544568136+544128522+544813696+546746193+549425707+551705808+552553056
1798+552369339+552853688+555370765+559463062+562326776+561290009+557777817
1788+555512406+556303130+559422136+563297891+567021003+570102045+572021001
1778+573093677+574886045+579015823+585447406+591272223+592847444+590456230
1768+587039373+584579968+584198570+586471418+590168837+592701269+593540839
1758+594318384+595396380+596230871+598008851+602639180+609495444+614817535
1748+615918140+614257983+612822892+613247634+615398124+617977286+619587630
1738+620733817+624081819+631036621+637723739+638257719+634035629+629591495
1728+626537536+625097548+625378533+627069401+630228487+636182009+646122398
1718+657906116+664757907+662690479+656019745+650183079+647360836+647821305
1708+651330172+656846498+662281213+667034805+673312051+682100934+689416640
1698+691699522+690849373+688176207+683876737+680477411+680324768+683217741
1688+688171613+695951718+706862860+715052957+714127000+708537163+705025576
1678+705892833+710587362+716838856+722276774+726959516+731659667+734381861
1668+732932865+730112678+730063529+732921802+735272453+734953080+734212532
1658+736405098+743398832+755891784+770476043+776065215+771673010+768898344
1648+771054879+772831953+768861891+761973768+757226584+756089707+758462241
1638+763967987+770136781+771117811+764835728+757259651+753277620+752974690
1628+754114892+755378478+757142252+758633866+757659305+755004638+754485589
1618+757731849+761233945+759899206+754750192+750134432+747736085+746638563
1608+745543156+744408697+744026514+744749410+746161227+747530847+748459585
1598+749281261+750680503+752718551+754476400+755003671+754293047+752963507
1588+751558219+750478046+749911905+749586064+749254964+749533349+751537000
1578+755460876+759423744+760757214+760294568+761124465+763572565+764742993
1568+762826456+760124574+759113379+760368320+764999737+775399024+790033096
1558+796448780+789083865+779006308+772530111+769603406+768680351+768557510
1548+769466117+773032717+780331556+790396358+801186412+809814853+810718745
1538+803274213+795792866+793778515+796073065+797900012+797591944+798511312
1528+803410232+811892800+822103897+832932219+843045624+849368391+850542749
1518+849030158+847124199+845729611+846361102+850970212+860254324+873656004
1508+889083097+898546211+893684953+882597409+875699372+874994310+879185388
1498+885861200+890983676+891965672+891760012+894842323+901981144+909513937
1488+913239950+913579696+913856570+915710418+918335403+920488433+922667276
1478+926728743+933198894+940348839+945723947+948047574+948046909+947062253
1468+945377854+942362645+938052475+934411156+933680039+936332893+941708908
1458+948196289+951681579+949120492+943430787+938553630+935976160+935268257
1448+935216510+935290443+935810217+936596105+937000656+937566434+939981346
1438+944634586+949090749+950538354+949603269+948505505+948326323+949621889
1428+952915785+957671553+962393770+966137859+968936042+970732400+970483092
1418+967621252+964103015+962024161+961237850+960894236+961135564+962230185
1408+962982642+962190346+961115131+962102206+965287408+968818763+972005658
1398+975676479+979096722+979640133+975736750+968862773+962451079+959350511
1388+960086404+962555663+964498800+965820361+967220691+969185713+972332406
1378+976924589+982240574+986519611+987941523+986736758+985754096+987469326
1368+991286321+994783460+997243167+1000463372+1005842288+1011808323+1015193927
1358+1014623977+1011728767+1009497753+1009797781+1012419986+1015576594
1350+1017492708+1018390675+1020376916+1024837130+1030522603+1034947996
1341+1037150657+1038532248+1040689448+1043410070+1045421821+1045804005
1332+1045051124+1044746804+1045812831+1047100115+1046587232+1045020777
1324+1045661698+1050009470+1055976291+1059937527+1060416798+1059587263
1315+1060584857+1064248664+1068827124+1072279105+1073741823+1073431216
1307+1072522367+1071897043+1071184303+1069801262+1067913439+1065907491
1298+1063787046+1061273536+1058256090+1054606429+1050220813+1046123921
1290+1044242748+1045323525+1046918756+1044477426+1036112923+1024869895
1281+1014934826+1008230721+1004648102+1002597540+999333144+992886811+983902726
1271+975102176+968937372+965566096+962532630+956675773+947779345+939048376
1261+932793376+927736916+921582812+914196678+906758736+900041030+894867471
1251+892033621+890824926+888765659+883424768+874365902+863341956+852817108
1241+844180264+837219235+831057937+825121161+819353895+814191158+810124009
1231+806944308+804028423+801473140+800094089+800244375+801230422+801838638
1221+801269414+799889093+799093352+800044276+802455318+804899973+806564603
1211+808130998+810355664+812946071+815632960+819218058+824577932+831242258
1201+837623967+842332703+845194845+847220984+849389671+851588403+853227643
1191+854411069+855637416+857055520+858869711+861653627+865919848+871827123
1181+878891224+885989542+892291030+898282274+905561648+915187742+926109947
1171+935544225+941291904+943428430+943386899+942311200+940859182+939757610
1161+940008126+942948978+949587128+958944328+967721302+972107280+971037445
1151+967045620+962764770+959276517+957856479+960006969+965055813+970092627
1141+972844382+973122102+971485643+968950249+967781573+970546023+978028277
1131+987459835+994108504+995147507+991406199+985947001+981795036+980896585
1121+983631111+988881021+995175618+1001511020+1006173510+1006879660+1003680856
1111+999762964+998126988+999068723+1000979518+1001654656+1000694725+999677121
1101+999519158+1000231474+1001742555+1002158229+997656484+989516623+985574853
1091+989674828+995707362+995400382+989110017+983083287+980649696+980076965
1081+977565873+972032681+966595125+963764177+961858943+957987601+952716532
1071+949319685+949071888+949704346+949005753+948235281+949647339+952152567
1061+951995511+947798811+942205166+937903036+935532497+934488717+934772906
1051+936763197+939592694+941999444+943734684+944502436+942926610+938777547
1041+934821269+934803556+939991623+947675608+953097265+953560152+950233974
1031+945941759+942830551+941788041+942098708+942289739+942404962+943698291
1021+945990604+947922377+949709545+952874193+956986864+958602649+954593594
1011+945818979+935851748+927181414+919896478+913242792+907160506+901900923
1001+896989368+891384539+884445877+876471900+868820378+863127952+859665876
991+856917325+853597494+850318106+848164049+846867818+845492878+843581478
981+840610219+835879599+829976979+825025344+822780546+823055063+823824628
971+822468851+817803339+811476521+806582921+804590696+804138629+802916937
961+800229020+797493829+796639630+798452551+802166474+806132607+809006900
951+810798603+812851341+816395996+821210464+826250663+831437521+837959299
941+846377848+855138620+862109079+867250053+872099221+877343932+883035028
931+890032812+898245095+904489153+906104817+905314154+905598222+906195919
921+903980805+899175405+895437844+894870434+895750930+895234783+893108474
911+891325960+890580153+889727283+888493198+888304101+889625239+891042738
901+891931275+893455292+896179239+898999366+901051500+902826517+905025612
891+907772531+910791729+913686818+916212298+918542999+921098523+923658945
881+924755742+923296530+920523375+918232875+916602098+915633885+916533484
871+919077342+920585218+920372666+922172227+928874639+937798211+944579030
861+948447833+950623653+951350055+950361409+948435682+947256669+948198888
851+950877918+952981135+952779282+950799390+948188490+945702909+944661850
841+946957851+952252012+956806352+957650032+955890067+954683065+955680054
831+958081001+960375974+962326607+965214623+969860911+975173692+978961912
821+979788968+978429382+977641862+979035422+980360973+978821177+975623643
811+974923054+978723909+985070434+990791695+994007366+995622123+997602136
801+998589997+995062632+988106499+982670031+980426746+979417787+977978645
791+974852083+968279826+958726154+949505335+942668597+937683713+934226170
781+932641700+931301157+927026655+919735432+913224293+910646461+911765263
771+914085626+915608555+916536869+918213289+921544424+926925819+933456424
761+938219930+939725388+940951131+944960125+950276714+953378491+952626397
751+949129560+946743001+949861342+958001807+964611605+965345987+962927690
741+960968472+960006425+960410432+963765325+969371242+973198212+973355632
731+973386523+976633931+981008363+981883781+977389290+969055618+960051886
721+954604053+956044162+963859088+973504588+979091341+976954392+968768346
711+960533151+956747168+956829565+957005242+955085862+952466499+952804794
701+958210309+964912237+965410671+957853214+949092563+945917215+947840644
691+949465678+947423761+941444366+933533078+927597934+925466789+926548714
681+930716941+936180733+938127679+933467668+925100565+918884134+916582028
671+914233010+908840008+905086004+908945377+916753412+922872151+927068548
661+929501052+926743795+916137034+901562326+890897591+889424535+897450684
651+912046369+928357041+938806988+936432096+925840085+922705422+933332133
641+947401696+950596389+943454545+939361159+945652250+957793668+962356229
631+949527945+925214821+899435775+877946950+864323831+861420521+868170811
621+877380265+879256904+871947424+865135593+867243585+874821536+876622548
611+868516602+858926114+856525167+861179314+866547833+867405175+863694819
601+857640281+853551973
##END=
