##TITLE=<SNM>
##JCAMP-DX=4.24
##DATA TYPE=INFRARED SPECTRUM
##DATE=29/4/2025
##SAMPLING PROCEDURE=Instrument type and / or accessory
##ORIGIN=Admin
##XUNITS=1/CM
##YUNITS=ABSORBANCE
##RESOLUTION=4
##FIRSTX=4497.3318
##LASTX=599.83466
##DELTAX=-1.4281778
##MAXY=2.0883572
##MINY=0.37454847
##XFACTOR=1
##YFACTOR=1.9449342e-09
##NPOINTS=2730
##FIRSTY=0.38712084
##XYDATA=(X++(Y..Y))
4497+199040584+199820803+200401455+200492443+200203926+199591739+198582946
4487+197612185+197617288+198989421+200922347+202172370+202299996+201815313
4477+201246353+200632450+200030070+199863325+200309195+200778218+200594587
4467+199944629+199628959+200026776+200671784+200849486+200402344+199786633
4457+199410529+199207315+198952967+198648881+198400096+198236324+198205402
4447+198382934+198739287+199119100+199285232+199054299+198617776+198520873
4437+199009387+199690374+200041011+199904299+199427185+198878313+198530097
4427+198451122+198497735+198601181+198769382+198719613+198049214+196966977
4417+196266622+196327210+196654142+196629962+196202710+195664227+195232868
4407+194991591+194887916+194706138+194356221+194170981+194517649+195146492
4397+195417633+195147059+194739037+194566086+194749640+195414170+196503792
4387+197418961+197472715+196672698+195618840+194798552+194303203+194036061
4377+193936921+194038436+194340101+194625278+194531394+193941120+193257129
4367+193053609+193390700+193799504+194100219+194649106+195533889+196281164
4357+196606227+196654387+196324022+195266870+193823347+193049441+193405227
4347+194094963+194207250+193960794+194140641+194851784+195565562+195897444
4337+195660657+194714520+193398331+192576418+192753982+193515706+194076392
4327+194134328+194018011+194172636+194793311+195875471+197218643+198307867
4317+198596798+198070053+197259617+196700954+196576470+196756607+196950904
4307+196864236+196344356+195469762+194626014+194451255+195370392+196965506
4297+198027516+197693152+196454437+195535176+195501772+196026908+196685646
4287+197366189+198022184+198409443+198176196+197287980+196263833+195687963
4277+195583781+195613370+195732737+196311887+197647030+199438110+200842682
4267+201275712+200974016+200445218+199772628+198823733+197701043+196774060
4257+196555615+197381619+198869227+200092037+200573303+200558164+200239782
4247+199529114+198639657+198160674+198435508+199208617+199892806+200070370
4237+199807626+199534569+199565859+199812636+199917017+199575773+198887814
4227+198390182+198532411+199152979+199729524+200088727+200559145+201432758
4217+202471859+203066256+202921714+202462267+202284658+202366866+202225097
4207+201672671+200982153+200495906+200455086+200979303+201890396+202707329
4197+202978332+202535174+201527638+200448803+199990981+200557290+201890334
4187+203256629+203960938+203765370+202986806+202207031+201800695+201730760
4177+201809674+202059639+202663551+203598226+204541237+205191272+205512811
4167+205696519+206039617+206700975+207371818+207471280+206927863+206405439
4157+206448129+206769745+206704898+206067643+205266033+204793531+204905727
4147+205584415+206418357+206708299+206155842+205314867+205002737+205416429
4137+206030285+206164255+205583634+204742659+204431846+205018719+206084467
4127+206886936+207043338+206713172+206329406+206268313+206585163+206920233
4117+206867583+206552939+206513666+206909353+207303677+207383433+207356832
4107+207472966+207721061+208130370+208789629+209496129+209915245+210043484
4097+210066361+209894314+209236695+208132991+207065648+206494053+206596763
4087+207390803+208679932+209886407+210334223+209855102+208967806+208474955
4077+208866949+209870257+210641879+210658336+210213125+209886867+209915674
4067+210179292+210393677+210308986+210075294+210239282+211004070+211748127
4057+211698128+210907382+210187091+210154852+210669338+211162235+211201002
4047+210741755+210144248+209842982+209760773+209388362+208620999+207933914
4037+207614474+207522658+207688546+208452430+209818924+211097388+211497626
4027+211077621+210784874+211310164+212248976+212738195+212465675+211695891
4017+210840328+210304834+210318333+210727551+211220968+211732758+212429053
4007+213384077+214366269+214912674+214696680+213863305+212893510+212182781
3997+211861349+211858484+211978340+212047647+212067766+212115083+212199544
3987+212395526+212847035+213401821+213632969+213505604+213544172+214070090
3977+214780160+215250608+215374618+215248953+215039533+214896630+214754187
3967+214440371+214118005+214232269+214829148+215306415+215138290+214536539
3957+214074840+214018221+214310386+214937512+216052433+217705882+219404472
3947+220194529+219698629+218707350+218123665+217810630+217144185+216201281
3937+215635876+215883803+216943805+218464756+219722640+220039276+219650423
3927+219611471+220525307+221713901+222130029+221967789+222399853+223774774
3917+224860428+224217059+221903769+219171531+217108696+216160613+216544609
3907+218653306+222745648+228069580+232617675+234586473+233791697+231003285
3897+227200073+223904561+222851515+224597193+227307549+228150853+227260707
3887+227423054+229646812+231853821+232543650+232661208+232204428+229812699
3878+226637871+225770019+228086190+231730195+235002616+237201673+237343733
3868+235842273+235101572+236040431+236575021+234728563+231463957+228906969
3858+228710451+232727327+242230590+252277301+252554188+244028122+234887004
3848+229320538+228161932+230747850+235425961+240335022+244541934+247600200
3838+248363181+246260506+242913845+240252814+238563861+237147490+235895383
3828+235226808+235087613+235639978+238210113+243204814+247499160+248390885
3818+247820668+247204559+244644001+239584575+234705855+232538256+233916227
3808+237676549+240924928+242516610+244671399+248341545+250257998+248228093
3798+244680194+241867511+239690795+237872225+237019037+237470945+238925730
3788+241167033+243893417+246035365+246922508+247705638+249614124+251655583
3778+252145645+251612694+251953908+254480065+259649587+266561355+272763574
3768+276803741+279603691+282137817+284967279+289651259+297340028+306127122
3758+312725687+317319598+323316396+333434175+347140183+359432179+365548037
3748+367925868+371701835+377875154+382154208+381986666+381107735+383768399
3738+391130664+400988074+409085417+412309172+410785325+407239020+404973538
3728+405996229+409950495+414169236+415950326+415021627+412924331+411241492
3718+411124271+413500906+419005896+427311509+435821256+440134664+438802877
3708+435072021+432704518+433478791+437073058+441639755+445498681+448597400
3698+451513836+454195278+456649356+459967930+465572887+472796019+477302436
3688+475454200+469753045+464792269+462840450+463768567+466078854+469124003
3678+474516583+482536943+487721925+486442297+483909091+484354379+484549073
3668+480521931+474829296+471412164+470676596+471029547+471930236+474460930
3658+479297497+484832519+489014884+493148644+500386517+510686701+518114212
3648+516701366+508981736+501133240+496226432+494142957+493416185+493240920
3638+494138942+496614013+500263442+504768541+510820135+518603937+524819211
3628+524604627+519499784+515023308+514101198+517147880+522816917+527712386
3618+528872586+527318829+526031203+527010468+531312629+538418172+544807944
3608+546166363+542444088+537578040+534908458+535468669+538457215+542083200
3598+545021364+547152432+548784398+550069696+551598507+554459443+558846554
3588+562999836+564446516+562868364+560251371+558531696+558532738+559783589
3578+561003488+561602987+562059798+562593469+563005414+564054613+567214104
3568+572077272+575196860+573896914+569617861+565275493+562274014+560756909
3558+560688752+562060288+564680162+567905602+570563048+571843258+572466109
3548+574069145+577056098+579511034+578950395+575316074+571591470+571033220
3538+573958881+577495747+578707616+577389221+575120245+573193219+572288423
3528+572583300+573157608+572551796+570557470+568707181+568913307+571615680
3518+574933120+576076833+574361632+572032406+571281270+571656133+571515958
3508+570904997+571395151+573752387+576818836+578703142+578762044+577882133
3498+577035443+576360493+575646745+575161372+575395386+576307169+577654187
3488+579456852+581370640+582526304+582518949+581729260+580718245+580160548
3478+580923758+582912567+584439662+583988307+582053373+580521620+580648434
3468+582009304+582960069+581995575+579298902+576692268+575495905+575361859
3458+575806473+577061185+578633698+579006538+577748455+576459296+576682461
3448+577724551+577676743+576611301+576613936+578214950+578977915+576818162
3438+573217735+571054427+570945205+571806421+573356562+575960132+578658950
3428+579348549+577187754+573443659+570025148+568253129+568263303+568834363
3418+568747021+568284510+568196188+568234680+568235599+569059734+571024885
3408+572898587+573474427+573064444+572802726+573132478+573547304+573670378
3398+573768446+574059645+574235860+573758271+572350144+570276262+568431673
3388+567997847+569658620+572669048+575119387+575702399+574922455+574387068
3378+575297012+577620293+580226376+581954693+582689096+582918329+582627742
3368+581438796+579644161+578328156+578596616+580899915+584677537+588680837
3358+592099961+595095372+597647702+598553784+596311532+591450632+587074920
3348+585924405+587732034+590267324+592016910+592805618+592491557+590870072
3338+588847429+587959183+588656443+590055560+591010921+590739949+589202618
3328+587334125+586149102+585592814+584955375+584108255+583698149+584287351
3318+585738444+587317821+588254918+588282193+587601298+586639684+586214194
3308+587026683+588609616+589879896+590584205+591240951+591863373+591794297
3298+591155387+591435002+593736095+596949216+598790617+598440945+597147619
3288+596217019+595704616+595109469+594220916+593413024+593262245+593889571
3278+594986824+596235897+597452302+598673610+600212903+602047255+603181345
3268+602498121+600300734+598169176+597085591+596629761+596267647+596345610
3258+597169745+598072886+598224155+597563057+596327406+594629858+593039938
3248+592572769+593478913+594796756+595465883+595368429+594943306+594483737
3238+594290238+594592286+594935522+594545581+593490436+592437988+591701991
3228+591439967+591977438+593242386+594254382+593834469+591654060+588394541
3218+585222302+583179863+582576380+582693877+582726423+582998683+584312175
3208+586328810+588065280+589478862+590832438+591603188+591426053+590721561
3198+589308837+586315939+582337647+579574165+579141136+579868061+579925370
3188+578617210+576596468+574827820+573571391+572670580+572252138+572521395
3178+573244152+573827961+573581137+572105711+570112244+569225346+570177030
3168+571896337+572889822+572627430+571204164+568845763+566270449+564633089
3158+564483598+565222230+565884492+566114215+565921941+564983497+563016078
3148+560403499+557776270+555324827+553030783+551397285+551387600+553150916
3138+555265680+556071734+555442876+554219422+552571398+550380754+548497367
3128+548034672+548848816+549820543+550211832+549879077+548791508+547171065
3118+545575261+544375957+543597669+543306408+543475759+543573458+543155507
3108+542666640+542870682+543796685+544733413+544925748+544149789+542951465
3098+542126043+541776861+541333106+540433337+539177153+537709144+536151035
3088+534706255+533511609+532624956+532177094+532283374+532784990+533152927
3078+532817046+531763249+530677335+530191533+530119821+529842535+529263202
3068+528788371+528507653+528045693+527075990+525557230+523908960+523031440
3058+523338759+523958423+523890511+523502777+523762043+524717343+525641200
3048+525927312+525274489+523538694+520907175+518164901+516465943+516386140
3038+517009420+516713440+515258486+514180357+514590340+515558634+515435682
3028+513914961+511948187+510419590+509622087+509362422+509142199+508669759
3018+508177736+507987608+508149388+508574909+509005119+509053816+508702796
3008+508209087+507436039+506142835+504751839+503973091+503913975+504017222
2998+503669235+502704374+501351869+499842365+498396697+497478141+497456689
2988+498055820+498661939+499012591+499048355+498486888+497242013+496007037
2978+495788193+496784835+498030139+498244569+496887376+494462443+492113266
2968+490672317+489936627+489397164+489373872+490261690+491142183+490682492
2958+489035631+487486134+486790069+486818815+487157393+487365572+487024635
2948+486040129+484884464+484227167+484168050+484078870+483405392+482343474
2938+481478488+481061854+480896457+480724808+480461619+480096379+479656822
2928+479360903+479407424+479536873+479308008+478709367+477987774+477057635
2918+475665229+474055267+473002175+473087004+474089254+475089144+475106673
2908+473790822+471744766+470130391+469647378+469876978+469828098+469143372
2898+468432995+468216358+468033401+467113466+465647725+464695887+464758528
2888+465139796+465030849+464555773+464227278+463983212+463417056+462568098
2878+461887540+461615709+461522208+461148295+460346655+459686507+459905657
2868+460776527+461132635+460239638+458511842+456885484+456161715+456609761
2858+457524762+457714798+456945244+456177958+456048202+456004777+455412326
2848+454671917+454460704+454475199+453876344+452675109+451702923+451345589
2838+451158709+450635335+449739764+448808521+448264859+448217910+448260385
2828+447940961+447345262+446875764+446582634+446048717+444986493+443718235
2818+442853249+442619572+442780801+443079938+443403806+443629239+443685965
2808+443568314+443047606+441806133+440102516+438844310+438695462+439341267
2798+439775155+439267104+438031759+436869016+436229922+435921898+435646849
2788+435353107+435013732+434566207+434097230+433657090+433057622+432254847
2778+431607265+431318793+430984383+430173242+429127229+428366287+427911437
2768+427375866+426658380+426083581+425866546+425800166+425491284+424770457
2758+423887666+423261566+423036930+423077291+423291109+423577374+423587150
2748+423021760+422033240+420979504+420008421+419101665+418260429+417493235
2738+416797354+416176066+415586465+414953256+414272023+413650950+413234929
2728+413068766+413001620+412742140+412122476+411355036+410838098+410615454
2718+410312885+409706368+408957377+408221472+407526940+407037246+406917450
2708+406988365+406854779+406302506+405486829+404857603+404753100+404905350
2698+404610075+403558822+402240090+401399559+401273604+401397169+401158190
2688+400489002+399816198+399406858+399124239+398806623+398483705+398148621
2678+397635575+396854988+395985987+395333348+395064122+395110704+395225014
2668+395126333+394758243+394364288+394133001+393896873+393391151+392647187
2658+391924919+391389226+390979978+390535609+390041655+389714661+389683586
2648+389690574+389372620+388761261+388208498+387856926+387503975+387043302
2638+386683793+386563047+386488731+386285945+386086807+386036425+385994532
2628+385718410+385143244+384415798+383799352+383504015+383483206+383489581
2618+383402240+383326697+383306072+383199822+382976106+382843806+382921678
2608+383048093+383039696+382844082+382388405+381607022+380670600+379978396
2598+379906255+380527206+381410151+381827245+381435373+380601431+379898011
2588+379563662+379528818+379628877+379694736+379649962+379553733+379451038
2578+379243349+378812006+378236564+377774697+377585947+377593333+377660601
2568+377722292+377653951+377283715+376688170+376211592+376058147+376102523
2558+376156123+376184869+376223023+376254650+376239327+376189711+376189895
2548+376342574+376707630+377251016+377772858+377974264+377791092+377542062
2538+377488554+377435230+377092361+376619768+376442480+376697364+377149332
2528+377529895+377735286+377741200+377520518+377099318+376591420+376129706
2518+375824869+375761983+375926246+376173622+376352319+376405368+376372975
2508+376366110+376454861+376497796+376264242+375806359+375452059+375371491
2498+375437870+375544856+375758490+376064614+376246958+376192653+376112544
2488+376266112+376609256+376895062+377007839+377026043+377045166+377080808
2478+377103455+377073269+376953044+376749217+376528902+376336383+376134977
2468+375970591+376095290+376654398+377333239+377632345+377443964+377112588
2458+377021017+377250648+377531520+377523828+377217888+376912990+376771742
2448+376647594+376403437+376162405+376190753+376621208+377255858+377672369
2438+377657782+377449174+377411203+377646504+378007208+378269631+378221026
2428+377791766+377220309+376946057+377206211+377792012+378309073+378589913
2418+378671034+378528253+378193935+378016556+378388415+379240928+380078946
2408+380480165+380440784+380317679+380478357+380938140+381385604+381582903
2398+381616798+381749986+382142685+382707860+383205124+383516580+383738948
2388+383915684+383861992+383381737+382444181+381037832+379088556+376649096
2378+373998607+371449495+369129310+366976544+364876520+362781951+360752720
2368+358904607+357328815+356120593+355494922+355723971+356867806+358664249
2358+360802091+363353286+366894474+371909677+377729892+382462906+384440345
2348+383314255+380048760+376487867+374250303+373524512+373543512+373685067
2338+373550377+372977080+372378011+372402374+373156115+374176477+375131961
2328+376109418+377131159+377836081+377959554+377907854+378415997+379670771
2318+381161703+382366493+383239447+383999195+384731085+385369811+385929225
2308+386518273+387158317+387787757+388417596+389077529+389666516+390092865
2298+390493042+391082857+391850296+392571368+393095294+393468594+393772205
2288+393992887+394154086+394397416+394756558+395029063+395049075+394895323
2278+394692936+394423588+394026261+393500864+392889291+392300120+391882873
2268+391661823+391532741+391506815+391738254+392197210+392564228+392623742
2258+392552521+392654113+393031856+393681033+394615310+395665030+396425421
2248+396674605+396612792+396477152+396189814+395581551+394702467+393740609
2238+392868360+392275266+392080510+392096967+391942449+391519441+391158644
2228+391186226+391591888+392206128+392923093+393622989+394142808+394499130
2218+394980856+395887429+397256881+398902423+400632426+402371347+404115999
2208+405883880+407746519+409816755+412109574+414469568+416709706+418760757
2198+420621159+422297256+423945556+425941782+428551941+431549650+434360326
2188+436601046+438355260+439948581+441585573+443221523+444710035+445990214
2178+447103893+448107369+448998833+449671546+449965779+449857047+449534803
2168+449210445+448909990+448520785+447956314+447165584+446082397+444784076
2158+443547781+442474310+441285793+439752783+437970100+436073627+434144179
2148+432318285+430619081+429164617+428794014+430603421+434652751+439971657
2138+445749091+451649752+457318299+462551611+467669969+473094604+478820245
2128+484473378+489627959+494116050+498170620+502093842+505764540+508689005
2118+510580543+511738905+512739193+513911437+515352386+517336169+520417328
2108+525031956+531183976+538704713+547537347+557251241+566506853+573748526
2098+578227882+579808363+578589567+575226158+570534057+564647922+557360096
2088+548861136+539674784+530290214+520819221+510961137+500756017+491032409
2078+482586160+475476449+469384189+464044413+459326109+455321706+452147567
2068+449576482+447259821+445182046+443562890+442503209+441818545+441124135
2058+440279498+439677700+439704944+440152194+440541736+440741365+441072986
2048+442057063+443998616+446768686+450212971+454599776+460381407+467865644
2038+477328607+488943172+502372875+516766826+531176560+544753823+556691521
2028+566303608+573276637+577736564+579966497+580252731+579043497+576827846
2018+573786404+569957297+565678795+561423585+557222188+552583840+547117680
2008+541092534+535117464+529424277+523820271+518165024+512569628+507316611
1998+502772377+499197755+496578341+494665044+493074113+491459677+489804450
1988+488423231+487630661+487520396+487933720+488552097+489185338+489934788
1978+490931675+492117189+493368377+494614141+495927050+497637807+499959648
1968+502382927+504062854+505004792+506133764+508059044+510471106+512829875
1958+515080065+517413704+519758192+521910712+523925754+526031509+528349396
1948+530961731+534088675+537844477+541707479+544608132+546076938+546944836
1938+548282415+550292983+552670324+555331815+558273043+561154144+563536327
1928+565433136+567392586+569836306+572403285+574516824+576557241+579264517
1918+581978719+583114893+582662802+582287693+583051517+584601351+586110855
1908+587133454+587764396+588377257+589137893+589834847+590330271+590902495
1898+591833217+592890079+593584335+593957053+594652842+595895358+596891233
1888+596879894+596221984+595569774+594886979+594051137+593498465+593560432
1878+593807439+593587829+592910796+592562656+593450535+595710807+598091641
1868+598546736+596348491+592797405+589321034+586288909+583632444+581512163
1858+580056964+578987967+577840761+576385255+574761808+573324016+572501659
1848+572862792+574748998+577102190+577311809+574289797+570282513+567676614
1838+566618037+565741007+564267359+563252789+564185840+566496862+567469753
1828+565760682+562994320+560489859+557656873+554137475+550999437+549191317
1818+548418177+547939976+547780248+548509441+549977144+550926009+550381550
1808+549029812+548354924+549082401+551102714+553936743+556531487+557591719
1798+557183820+557099052+559050351+562989968+566577094+567070251+565009178
1788+563376477+563727252+565329859+567138837+569292277+572021925+574616423
1778+576625520+578987844+583048268+588740291+593682219+595313266+594067257
1768+591692184+589181472+587826485+588971178+591991045+594584808+596034001
1758+597458983+598960274+600117655+602237752+606996662+613325326+617593653
1748+618211785+617299941+617097370+618128060+620073107+622311804+624014011
1738+625575552+629122654+635519721+640840619+640179031+635902490+632545946
1728+631166320+631076159+631689081+632752868+634803583+639444995+647845949
1718+657911353+663552626+661811253+657018449+653669075+652882268+654293827
1708+657743597+662722975+667529386+671383930+676099016+682892949+688868509
1698+690802033+689589673+686375020+682260046+679947798+681034080+684628499
1688+689597764+696959141+707408479+715886600+716314113+711951212+708548208
1678+708476557+711925285+717288843+722081463+725951759+730081689+733439398
1668+733687570+732177698+732379472+735073570+737716551+737891418+736850063
1658+737880140+743566585+755042568+768719799+773058060+766994730+762494841
1648+763590745+765543086+762100732+755063591+750352795+750471396+754915938
1638+761880938+768016287+768750813+764059018+759192969+757142438+757245042
1628+757731579+758060412+758960549+759984680+759378378+757750580+758324213
1618+762528490+767065768+766900095+762580098+758077328+755235393+753696346
1608+752417852+750755546+748786106+747119693+746609620+747761484+750159602
1598+752841442+755143700+756873917+758154557+759248193+760059824+760114620
1588+759490604+759290117+760513816+762762810+764630874+765424424+766052424
1578+767709765+769448502+768292041+764581166+762456840+764010658+767008276
1568+767784725+766389163+765086643+765009108+767503149+775231911+788008514
1558+795965099+792425965+784737166+778313866+774253381+772798120+773440708
1548+775478551+779568089+787071479+798101868+811364641+823600035+827353998
1538+820424057+811870363+808375421+809831785+812348197+813615474+815380567
1528+819191409+824056784+828943366+835010006+843169284+851537508+858065004
1518+862840708+865268124+864489775+862627105+863107329+867663669+876776654
1508+889412530+898737525+896923031+889880128+886347369+888053744+893658302
1498+900963841+906060287+905902338+903617426+904778913+910519908+916446434
1488+918331169+917581136+917137871+917686804+919168727+921896659+926026588
1478+931190640+936859984+943010349+949552433+954167613+953843990+950237373
1468+947999289+949379896+951879024+950625843+945424894+941362631+942490898
1458+948339583+953219790+952397065+948527628+945287600+943507368+942694143
1448+942092805+940944067+939240757+938290911+939428924+942434877+946016548
1438+949325346+952192901+954711520+957381040+960272990+962079761+961455132
1428+959455904+959198476+962667676+968820187+974614138+977753279+978224126
1418+977275690+975561041+973163229+970914235+970307993+971710849+973261787
1408+973218576+972656465+973658960+976580514+980161388+983157289+984463487
1398+983157412+980211525+977520491+975175391+972359443+969912597+969400379
1388+970330304+970195032+968231536+967047555+969062536+973593929+978214932
1378+982067330+986484598+991952168+996173913+997354585+997938761+1001286847
1368+1006602167+1010435136+1011931401+1013356322+1016492399+1021019563
1360+1025045173+1026144203+1023675231+1020396221+1019933772+1022763816
1351+1026140955+1027684538+1027610006+1027581751+1028966893+1032672129
1342+1039197664+1047449310+1053803594+1054337817+1049565116+1044600326
1334+1043818850+1047270949+1051869580+1055170165+1057105527+1058188928
1325+1058604489+1059434631+1062554158+1067979253+1072588672+1073163225
1317+1070044555+1067019172+1067461089+1070820637+1073741823+1073617032
1308+1071153699+1069453698+1070117003+1071852307+1072957773+1073376154
1300+1073670356+1073452033+1072314083+1071010152+1069637575+1066227767
1291+1059907684+1053483036+1050197407+1049230829+1046253989+1038774257
1283+1028794049+1019530224+1012440739+1007806498+1005549535+1004454428
1274+1002541498+999044043+994984477+991215804+986487172+978751116+968326355
1264+958010879+950100508+944958767+941771266+938796817+933684190+925615379
1254+916336108+907986333+901318662+896131626+891708046+886478841+878843672
1244+869007561+858929347+850264837+843155923+836957259+831357665+826357509
1234+821790566+817674673+814447332+812212496+810492453+809056316+808222619
1224+808194180+808563097+808627454+808300154+808617648+810521506+813027682
1214+814190640+814144242+815115540+818142761+821863872+824962928+828119231
1204+832597484+838127756+843358126+847701720+851555344+855187090+858530886
1194+861492586+863834684+865589173+867649388+870681635+873947712+876417114
1184+878586367+881735376+885798252+889904032+894556784+901328653+910661125
1174+921320757+931521005+939716691+944575078+945657314+944825640+945073199
1164+947603157+951388563+955552388+960359596+965633483+970197545+972679695
1154+972543013+971291488+971824608+975918804+982489817+988292472+990103289
1144+986430967+978483821+969982287+965164965+966137427+971589245+978076473
1134+982936025+985487680+985933152+984971906+984624931+987134234+992240425
1124+997421822+1000986760+1002695158+1001981471+998928139+996454999+998053806
1114+1003277495+1007340309+1005677146+998553767+991405687+990259400+996603142
1104+1006718010+1015438541+1020343816+1021329885+1018605631+1013836976
1095+1009743638+1006627420+1002541498+997780075+995438162+996562138+998713862
1085+1000089994+1001640258+1003766361+1003780765+998531395+988543464+977725330
1075+969857496+966598161+967166462+968400335+966741094+961755096+956379587
1065+953067602+951504835+950181414+948542154+947493812+947758717+948463026
1055+948156442+946703756+945297774+944838818+945486799+947170925+949792392
1045+953028497+955622751+955857623+953957503+952761509+954584461+957456123
1035+956088388+948830901+940735612+937394513+939518165+944224057+948397320
1025+949723622+948271488+947459243+950564429+957672668+965969670+972487728
1015+975856776+975452064+971265194+964681431+957478801+949824570+940519680
1005+929657170+919416654+911628561+906080207+901469196+896680436+890965307
995+884018633+876566912+870143122+865446975+861528688+857387235+853505355
985+850495050+847361916+842948939+838103178+834612036+832929381+832177448
975+831743745+831662533+831509486+830305033+827721873+824258006+820099024
965+815000433+809447544+804956297+802836568+803173062+804967268+807029322
955+809180187+812266495+816638222+821461305+825831867+829706576+833573562
945+838001065+843211453+848542526+852985597+856694204+861190232+867587360
935+875230006+882804312+890432248+898874758+906923343+912430569+915654416
925+918115788+918932446+916207946+910824959+905813096+903261257+903299687
915+904954209+906949024+907837271+906253481+902179572+897660315+895161677
905+895542731+898164872+901978227+905598941+907764456+908708049+909833496
895+911717312+913940932+916684922+920996092+927254332+933875606+938170350
885+938938096+937932046+937966308+939499471+940138749+937956869+933727340
875+929233948+925770877+924725968+926978701+931218466+934335542+934074131
865+931674296+931276142+935702174+943045163+947935913+947176809+943141024
855+940276350+940896872+945186345+952205834+959486734+963548445+962557902
845+957731938+952141170+949160163+950579997+954972563+959145336+961870326
835+964440553+968233498+973035925+976302002+975181091+971084749+969714133
825+974490021+982300363+987810899+990103718+991938990+995120178+999734316
815+1004930423+1008953459+1010927374+1012595502+1015638476+1018073431
807+1016848568+1012507732+1007325109+1001281637+993911005+987894808+986779597
797+990337241+993994117+992704039+985462366+975860637+968547252+966250756
787+968686202+971856050+970566830+963864100+955241452+947228723+939450560
777+931705678+925285075+921116409+919062385+919100570+921719708+926435836
767+931007008+933304669+933526546+933867944+935997419+939967314+945397864
757+952485326+961377537+970602870+976557101+976779653+972828267+967600840
747+962765008+959048617+956155564+953790114+953011274+954891842+959317322
737+965083753+969872206+971003108+969026496+968341066+971566077+977134718
727+981523301+983127072+982574523+980188847+977004043+975703545+977983125
717+981292781+981280155+979069835+980113580+984052278+983169058+974082673
707+963607898+958688096+958385129+958376425+958861124+962890841+968804864
697+970070057+963471707+953088870+944405053+940559887+941475899+944817059
687+947665859+948252916+947602483+946899155+945095265+941334008+936524654
677+931911865+928612751+927096137+925319276+919661823+910066774+903840345
667+906904342+912133363+914910758+920358715+930080944+934868478+927291353
657+914756240+906966431+903863269+902290756+903974453+910317153+915895969
647+913780591+904636041+894529448+889748779+895496087+911950713+931153190
637+941993634+940611128+931940733+921613244+913033378+904122228+892457465
627+883823479+882393470+882461444+875244471+863576337+860204470+869469704
617+882182012+888778033+889303859+885242393+876984557+870664657+871604021
607+876975792+881512027+885269668+889242751+889772070+882035831
##END=
