##TITLE=<SNM>
##JCAMP-DX=4.24
##DATA TYPE=INFRARED SPECTRUM
##DATE=29/4/2025
##SAMPLING PROCEDURE=Instrument type and / or accessory
##ORIGIN=Admin
##XUNITS=1/CM
##YUNITS=ABSORBANCE
##RESOLUTION=4
##FIRSTX=4497.3318
##LASTX=599.83466
##DELTAX=-1.4281778
##MAXY=2.0998518
##MINY=0.37313268
##XFACTOR=1
##YFACTOR=1.9556394e-09
##NPOINTS=2730
##FIRSTY=0.38783687
##XYDATA=(X++(Y..Y))
4497+198317168+199137218+199493388+199064238+198470139+198023311+197567066
4487+197305089+197795684+199031398+200256276+200940546+201239645+201150115
4477+200250333+198818765+198074195+198690528+199931712+200606472+200324883
4467+199616566+199203356+199322877+199618182+199633924+199307943+199070608
4457+199514921+200703089+201882372+202221977+201687173+200843182+200105012
4447+199561218+199259025+199217925+199168184+198725745+198081586+198046612
4437+199002214+200260178+200846474+200520097+199828635+199567146+200133083
4427+201038853+201326340+200701702+199759571+198959530+198052372+196825467
4417+195773080+195531646+196093346+196944927+197601019+197734361+197205577
4407+196333561+195829160+196038424+196436670+196261084+195459275+194570268
4397+193842582+193025305+191985186+191060458+190798299+191515241+192948332
4387+194363457+195244327+195667229+195842464+195805280+195681904+195671084
4377+195786734+196054410+196640646+197406231+197868405+197898594+197858271
4367+197897756+197723023+197187732+196575483+196167576+195940833+195755006
4357+195578933+195527455+195752202+196161892+196299944+195821617+195022444
4347+194530417+194622766+195115693+195694690+196169024+196531198+196806098
4337+196959769+197074810+197331986+197724303+198045576+198040806+197462723
4327+196440540+195774772+196108890+196920224+197182947+196758887+196289170
4317+196114849+196099579+196148116+196232831+196102597+195573310+195104675
4307+195430656+196599805+198008499+199222131+200046143+200083906+199222603
4297+198254962+198125505+198803023+199468411+199647365+199655929+199895169
4287+200204006+200143826+199576122+198760521+198116803+197903912+198018694
4277+198293395+198862136+199789821+200619609+200790714+200191464+199103448
4267+198107599+197955604+198896546+200298611+201361192+201932753+202300687
4257+202515163+202401052+202070637+201838681+201668704+201310614+200910905
4247+200866940+201268477+201984261+202843019+203419776+203383796+203143032
4237+203339465+203853132+203997935+203510586+202761032+202162773+201833744
4227+201756984+201953920+202426045+203064017+203686842+204088928+204086718
4217+203749048+203586279+204159135+205307299+206044220+205576438+204253785
4207+203150210+202952863+203530839+204303526+204771856+204793739+204520973
4197+204207839+204178244+204701954+205567249+206118785+206154978+206273996
4187+206828946+207181397+206584906+205438478+204959511+205679257+206896425
4177+207681684+207812421+207570499+207334383+207557469+208501841+209802001
4167+210740353+210999129+210775556+210311812+209759240+209364789+209335744
4157+209491031+209410248+209065126+209006562+209694702+210843903+211636782
4147+211449615+210306052+208808483+207678941+207299044+207666369+208611030
4137+209792080+210662527+210873239+210645748+210440141+210454268+210676257
4127+211056916+211416515+211531373+211422336+211296065+211258348+211289283
4117+211389283+211585914+211850877+212111528+212320442+212443727+212393239
4107+212117745+211863541+212137328+213124003+214286432+214899260+214886642
4097+214765948+214855264+214945800+214761071+214323448+213825386+213514080
4087+213650745+214251001+215012883+215710852+216359462+216862751+216919821
4077+216439010+215703614+215074343+214829083+215138789+215799864+216178024
4067+215895444+215428760+215483225+215973362+216217768+215964005+215614495
4057+215607226+216071944+216863528+217567166+217798542+217760033+218030132
4047+218697867+219271835+219501002+219622702+219687194+219356047+218552653
4037+217747964+217469864+217852337+218574795+219056185+218925327+218385068
4027+217924799+217773017+217881687+218297275+219157876+220283975+221105519
4017+221229687+220840738+220304776+219788885+219536707+219894203+220690297
4007+221144013+220747901+219882575+219349905+219593915+220420259+221276685
3997+221678923+221374932+220372499+219132198+218448859+218698964+219486890
3987+220310720+221108658+221880324+222368358+222445026+222381449+222521756
3977+222955874+223551268+224087367+224372111+224388280+224318103+224367783
3967+224599937+224960358+225440087+226063171+226660928+226850107+226376458
3957+225412154+224452269+223912559+223883269+224342501+225320185+226529017
3947+227342637+227710266+228292570+229100399+229113809+227948714+226597304
3937+226076841+226704496+228489232+230898362+232425251+231854498+229979455
3927+228831168+229482841+231123216+232219948+232433556+232662951+233376556
3917+233802292+232931770+230912656+228917148+227842573+227660358+228106744
3907+229625983+232987256+237915436+242639564+245262408+245000461+241999320
3897+237435234+233552507+232442501+234553142+237802620+239036384+238137928
3887+238010422+239944623+241902536+242231535+241991396+241539082+239637965
3878+237143298+236751179+239065612+242344167+245596770+248615269+249648271
3868+247939320+246024214+245858884+245992151+244209762+241110008+238926082
3858+239432587+244153484+253741131+263192724+263104398+254657554+245447076
3848+239376842+237464296+239395906+243698930+248492990+252984126+257132258
3838+259698047+259003110+255821324+252294127+249443228+247461389+246738352
3828+247306209+248354725+249925944+253756203+259906184+263914756+262946063
3818+260309656+258178123+254642696+249290273+245103250+244565886+247938269
3808+253018703+256131990+256699131+258053923+261484017+263625913+262151157
3798+259074033+255958964+252625487+249537711+247807440+247642842+248523560
3788+250190786+252438655+254457784+255625882+256657832+258545295+260633610
3778+261244731+260235319+259266931+260086311+263396837+268245210+272421870
3768+274695494+275674763+276205634+277250615+280525025+286883843+294151617
3758+298754852+300502206+302783967+309063876+320102583+331358904+336657046
3748+337603825+339913931+344652155+347219498+345772142+344855963+348676515
3738+358241014+371033201+381349448+384488504+381501718+377338712+375945608
3728+378503990+384017492+390381217+395788623+399393479+401065399+401687005
3718+403078158+406796851+413644268+423786850+435295989+443279334+445008644
3708+443533157+443260864+446407051+452388182+457841458+459464552+458481899
3698+458816247+462099465+467288799+473568556+481154341+488512330+491275222
3688+487640589+481555344+476984812+475022556+475685338+478898883+484536766
3678+492362080+500212843+503480183+501691774+499725068+499680570+498806999
3668+495099888+490592934+487779204+486755467+485951205+485137220+486764001
3658+492723005+500649629+506677818+511866298+520198711+531531655+539098330
3648+537534120+530472959+523491286+519050226+517726369+519172383+522585896
3638+527239024+532088067+535344312+536107917+536402520+539251697+544120185
3628+546500299+545110426+543059600+542929884+546139680+552701362+559284013
3618+561207927+558585571+555693359+555973882+560025124+566066663+571271449
3608+572830538+570088706+566068248+564779928+567160896+570248840+571316496
3598+571775561+574505140+579462869+584163238+587625639+591212574+595263023
3588+597037229+593859435+587952123+583838644+583234746+584707277+585965849
3578+585626138+583612434+581297970+581167583+585083623+592466026+600559854
3568+606310934+607894101+605537516+600979602+597028999+596478317+599553398
3558+603339357+604854191+604148069+603185746+603061699+603385623+603442374
3548+603446519+604530085+607208582+610465742+612450247+611925166+609793633
3538+608103792+607594255+607955667+609509941+612713153+616720324+619066364
3528+618315133+616675521+616503379+616638825+615265836+613448718+613304433
3518+614569589+615393967+615263947+614828777+614210006+613286268+612649210
3508+613221593+615525512+619019366+621559370+620901891+617501240+614351303
3498+613649997+615086685+617211513+619549628+622785270+626815908+629846736
3488+630470444+629526164+628717269+628532083+628075334+626500214+624478281
3478+623872798+625388425+627276680+627868143+628097035+629382672+630915428
3468+631088667+629744024+627507218+624749843+622288899+621619290+623178014
3458+625003788+624463834+621829286+619952247+620318414+622314197+625106744
3448+627792495+628931837+628174572+627151597+626733495+625308450+621519260
3438+616669425+613206232+612372284+613690716+616015969+618165668+619159444
3428+618757557+617803768+617786761+619530732+622554914+625526065+627034865
3418+626545809+625093638+624080660+623208187+621304205+618999067+618420467
3408+620054715+621946993+622453787+622255922+623010992+625213418+627664974
3398+628515259+627218588+625180136+623808367+622947963+621788384+620117744
3388+618446861+617609194+618009497+618670145+618329946+617766645+618983402
3378+622523339+626954158+630194371+631127557+630247648+628621445+626505639
3368+623707057+621261414+621305120+624586662+628967435+631305917+630631126
3358+628809314+628368780+630237651+633411299+636367698+638629313+640608638
3348+642260198+643012830+643266837+644268355+646368922+648589025+649816632
3338+649785849+648856199+647529172+646337225+645939117+646766847+648037611
3328+647701984+644685055+640503000+637791768+637274429+637691312+638175856
3318+638550618+638513800+637668087+636289613+634976728+633511085+631823744
3308+631552669+634446222+639563840+643657752+644385148+642216553+639261190
3298+637443462+637760741+640053017+643155408+645580143+646205132+645011356
3288+643573632+643907308+646529116+649952992+652190285+652415093+650969993
3278+648725264+646807505+646126619+646946121+649016576+651584681+652989915
3268+651662035+648604386+646952460+648285217+650898613+651918540+650153052
3258+646626403+643397528+642073427+642813867+644652748+646596534+648109479
3248+649073570+649866312+651099709+652759011+653452515+651614610+647792322
3238+644754545+644812637+647331733+649327881+648415421+644766676+640433387
3228+637445230+636484857+636944836+637827123+638370308+638238276+637285706
3218+635430368+633172288+632040506+633473780+636804331+639450765+639740005
3208+638617488+638145744+639277709+641104459+641735970+640385597+638187682
3198+636263584+634444881+632789176+632584422+634489928+636687477+636598480
3188+634014283+630865931+628836500+628425104+629270024+630437589+630674527
3178+629480264+627535990+625612136+624124305+623134369+621971681+619771206
3168+616748364+613892665+611634769+610002410+609460261+610334014+611830562
3158+612649454+612211785+610946019+609757547+609281292+609446546+609637584
3148+609272758+608304766+607075270+605582136+603799336+602534363+602384410
3138+602202271+600488840+597917016+596372130+596320805+596932444+597687575
3128+598317258+598172912+597005165+595683868+595285943+595903495+596859784
3118+597660754+598044781+597275021+594545441+590524434+587386201+586770965
3108+588183575+589694631+589987893+589149556+587790100+586296052+584930500
3098+584054675+583899235+584057905+583568240+582141671+580941800+581255178
3088+582848586+584458147+585308492+585230102+584093016+582211284+580648659
3078+580282370+580625922+580145766+578178999+576063741+575773587+577649956
3068+580041896+581109126+580464143+579057690+577863061+576949015+575723542
3058+573973049+572465651+572052974+572328743+572092292+571139051+570252680
3048+569538877+568294629+566369922+564397730+562918311+562094908+561902834
3038+562131543+562547207+563099291+563677831+563839915+563070032+561356418
3028+559397026+557914133+556837699+555698541+554526770+553630037+552974204
3018+552453817+552226570+552354152+552613035+552698253+552233885+550983419
3008+549376175+548303215+548270603+549092117+550311372+551655040+552781885
2998+552845707+551199755+548571912+546543396+545789423+545585705+544933042
2988+543572062+542049547+541060281+540659735+540321486+539833467+539594090
2978+539795308+539970254+539621887+538722166+537400015+535702189+533870136
2968+532399495+531635708+531555855+531812543+531819309+531276795+530765734
2958+531174753+532456429+533540665+533467578+532211200+530485272+529047365
2948+528086932+527188126+526049516+525030564+524601124+524573998+524382046
2938+523796008+522911466+521909582+521225343+521274596+521600836+521078376
2928+519395728+517533319+516512050+516396720+516548503+516262555+515173442
2918+513490976+511964743+511306594+511424179+511546336+511248715+510822902
2908+510523971+510150581+509525653+508855647+508555009+508918768+509745097
2898+510223333+509489963+507301313+504242293+501561876+500478889+501108297
2888+502306065+502839863+502341420+501115795+499657193+498452262+497775460
2878+497457083+497053763+496468396+496217621+496720970+497518406+497661319
2868+496692290+494924242+493040162+491608808+490777359+490323475+489948653
2858+489536006+489295075+489611867+490495922+491326700+491521945+491066507
2848+490066817+488516232+486868298+485970711+485957179+485841178+484690590
2838+482891789+481698714+481677928+482175182+482189660+481237029+479490467
2828+477631868+476440713+476073236+475869457+475144012+473987176+473067949
2818+472805927+472869383+472541649+471645525+470810723+470555650+470470585
2808+469735813+468241978+466749027+466053816+466240618+466576489+466209805
2798+465198899+464502835+464713257+465332760+465561652+465203318+464501981
2788+463629996+462625765+461558078+460588075+459886951+459471988+459176988
2778+458797838+458187326+457324058+456415011+455718489+455167136+454494662
2768+453760500+453284032+453078455+452818871+452264501+451300227+449896151
2758+448464675+447766385+448022708+448568606+448633647+448038405+447021891
2748+445833571+444680971+443812705+443429836+443498656+443720386+443730443
2738+443309659+442438954+441228812+439812118+438361897+437204360+436620822
2728+436398635+435953864+435075265+434157166+433584387+433269698+432870401
2718+432177720+431277237+430520125+430268770+430490195+430685592+430358529
2708+429496845+428495967+427732027+427327488+427196096+427188903+427190214
2698+427046630+426530632+425577361+424417233+423344274+422606302+422428704
2688+422696731+422824496+422394142+421612677+420832127+420089339+419349295
2678+418714340+418221992+417756222+417233123+416724896+416342393+416043157
2668+415694698+415319753+415035086+414791503+414460965+414048868+413557831
2658+412902090+412204715+411818798+411791550+411677561+411131024+410358093
2648+409771293+409496531+409364712+409116893+408583888+407890810+407365242
2638+407030254+406519194+405740929+405147424+405072874+405312404+405551384
2628+405720509+405770767+405497956+404783025+403845481+403106381+402814368
2618+402891753+403119609+403307386+403302723+403087850+402852802+402731315
2608+402572157+402218517+401806236+401481581+401065094+400356991+399604329
2598+399304269+399615057+400206855+400603896+400512156+399972659+399351328
2588+398995828+398801529+398358740+397584072+396870757+396532691+396467071
2578+396503706+396756829+397394832+398208573+398616800+398189158+397150243
2568+396196667+395770306+395731050+395736688+395586521+395168358+394524107
2558+394015149+393985098+394274733+394476896+394568728+394837028+395278781
2548+395521084+395318068+394812432+394289729+393889182+393605277+393443559
2538+393468825+393678882+393930877+394118075+394324962+394646143+394990731
2528+395258513+395523431+395845983+396090542+396052535+395623583+394885398
2518+394193600+393972388+394262329+394697651+394990548+395139130+395173570
2508+395051169+394817888+394622004+394549130+394556262+394551782+394468149
2498+394265590+393971962+393786013+393972388+394475951+394826757+394676438
2488+394248675+394029352+394205852+394583235+394888659+394995089+394918619
2478+394756169+394648032+394702436+394902374+395158362+395452721+395804228
2468+396145128+396414404+396678682+396979473+397184531+397129640+396784015
2458+396246438+395720565+395440408+395454306+395531599+395402097+395041020
2448+394652269+394450868+394578846+395157539+396175729+397266945+397840638
2438+397612508+396868562+396128944+395731933+395742327+396014833+396297154
2428+396439671+396518305+396673440+396911628+397153535+397348657+397422354
2418+397246981+396816109+396368260+396209438+396416386+396809343+397226439
2408+397674897+398134541+398387816+398251944+397902022+397755878+398037071
2398+398580683+399089214+399484427+399928862+400551992+401273262+401887918
2388+402192610+402025315+401324130+400152329+398601256+396712605+394497713
2378+391958837+389169520+386424458+384094724+382241641+380665697+379310325
2368+378164492+376939781+375484928+374242204+373723767+374012184+375150550
2358+377410610+380872005+385216967+389964426+394420450+397599585+398710338
2348+397667887+395237758+392788305+391338968+390752595+390424679+390194964
2338+390158603+390273933+390353756+390212245+389933246+389962688+390629311
2328+391637412+392330429+392428386+392353044+392767244+393814693+395023983
2318+396006818+396877584+397858285+398854104+399607894+400084210+400580215
2308+401434980+402596692+403621679+404228076+404602258+405018288+405514353
2298+406069790+406709653+407381091+408073833+408930609+409887934+410515910
2288+410583236+410409784+410345993+410320544+410160106+409941271+409777968
2278+409599365+409331339+409024544+408680016+408196935+407582522+407025835
2268+406721052+406741746+407046012+407477829+407821716+407975845+408064476
2258+408338629+408973645+409951055+411071804+412045648+412629948+412788619
2248+412700628+412535283+412280209+411862290+411316942+410714933+410037766
2238+409270077+408546826+408069749+407878985+407809738+407709007+407575055
2228+407423486+407200903+406955095+406906665+407184139+407602729+407843569
2218+407813334+407734304+407888037+408367857+409088274+409904423+410665010
2208+411258240+411662261+411916999+412108403+412394595+412884504+413480782
2198+414029331+414580867+415316309+416283448+417311940+418123273+418586422
2188+418923726+419433567+420008084+420327893+420489490+420896589+421574945
2178+422130504+422343335+422352356+422335288+422373264+422542937+422901637
2168+423404499+423900686+424215253+424307877+424398032+424823540+425709027
2158+426858000+427995330+428997945+429855331+430592724+431311983+432110363
2148+432898685+433533793+434155368+435117783+436584400+438423433+440452559
2138+442575406+444732571+446880441+449035321+451281849+453683298+456185539
2128+458734260+461485022+464650258+468124423+471522484+474518414+476918827
2118+478645973+479896926+481045381+482258236+483549115+485237494+487919984
2108+491926087+497190093+503730318+511822775+521376576+531334643+540093143
2098+546566315+550584763+552396700+552259182+550469311+547317972+542909341
2088+537165759+529943246+521201021+511319090+501184889+491755896+483566854
2078+476696883+471067138+466621750+463227438+460584143+458426246+456724031
2068+455487037+454497527+453504543+452551058+451846033+451440824+451226226
2058+451133328+451217966+451563590+452084587+452501927+452683212+452901529
2048+453559983+454826754+456713485+459288661+462639968+466820103+471982646
2038+478492119+486831907+497285064+509493376+522364623+534690613+545830568
2028+555578700+563674905+569833968+573984265+576232652+576801744+575996323
2018+574057535+571116436+567262267+562550437+557119990+551332396+545519933
2008+539708994+533886777+528286809+523085802+518146116+513370892+509009197
1998+505398703+502698108+500934906+499948810+499261614+498423917+497512859
1988+496910363+496761171+496988570+497556961+498435408+499537565+500820155
1978+502255593+503762747+505268164+506686595+507967387+509399229+511455877
1968+513954247+515920954+516827318+517355569+518484182+520436746+522791381
1958+525184723+527597876+530055772+532380659+534443190+536450128+538731553
1948+541401456+544483182+548033726+551657052+554300621+555375897+555710183
1938+556579243+558435922+561005186+563922755+566866170+569475421+571545327
1928+573337332+575522751+578441783+581431587+583592013+585205720+587164684
1918+589189300+590111757+589868357+589724377+590678349+592540515+594223895
1908+594800057+594429319+594038586+594240414+594963726+595908067+596968469
1898+598226493+599611795+600788381+601713094+602877366+604326002+605064919
1888+604352274+602894922+601841225+601521141+601627510+601775087+601638422
1878+601076157+600272626+599643797+599702681+600943455+603408177+605916605
1868+606207978+603294859+598956389+595520992+593587507+592310343+590854392
1858+588999054+586850514+584672714+582820302+581543503+580926987+581017325
1848+581951669+583727703+585373899+584870031+581546856+577376139+574349883
1838+572646875+571274009+569661583+568632512+569408917+571531063+572571655
1828+571157399+568563387+565925548+562865035+559392942+556675493+555417469
1818+555027225+554680442+554521101+555274770+556944495+558423121+558608003
1808+557640377+556694329+556991859+559124489+562599508+565846304+567416426
1798+567579303+568140836+570651702+574750917+577598448+576556271+573175431
1788+571065598+571703327+574229250+577425696+580819886+583849068+585582310
1778+586225525+587633197+591639332+598153772+604111129+605710999+603136676
1768+599550107+597346767+597682150+600653606+604506190+606561466+606746774
1758+607322327+608999002+610863362+613268713+617733424+623897181+628545128
1748+629479593+628267226+627425658+627977194+629882090+632733217+635616224
1738+638222488+642210884+648938490+655219649+655675971+651481603+647027925
1728+644186795+643430079+644782281+647457669+650924337+656294864+664800516
1718+674279584+678841339+676521145+671975178+669052610+668687114+671022303
1708+676002952+682215230+687189417+690998844+696940962+706328657+714392738
1698+716648623+715361584+712819812+709641714+708137851+710226837+714991881
1688+720847197+728852273+739875252+747889044+746400909+740728402+738175292
1678+740836722+747381153+754213056+758260824+760904210+764809766+768302035
1668+767598717+764452986+763948570+767373604+771048255+771447339+770528112
1658+772577902+779975849+792945053+807159298+811679663+806822573+803923961
1648+805758392+807361004+804165654+799200245+796942958+797964897+801490022
1638+807291452+813535550+814581749+808299980+800899717+797105225+796398615
1628+796307119+795993680+796303462+796457804+794159737+790131232+787979278
1618+789052969+789928551+786457251+780530555+776227440+774120777+772311521
1608+769948292+768399139+768623398+769199561+767835899+764158687+760260995
1598+758490874+759280995+761256052+763052567+764462251+765712107+766527891
1588+766428409+765366971+763711021+762038919+761238314+762485426+766657606
1578+773151809+778325081+777693631+773302189+770817656+771443925+771977662
1568+770187547+768047419+767391708+768195422+771750903+781169259+795433305
1558+801835829+793865438+782343589+774356740+770933839+770919332+772232948
1548+773857505+777077724+783528526+792852704+803176937+811444126+812318550
1538+805827516+799770312+798678212+801176339+803198211+803512565+804645140
1528+808038232+812746831+818425312+826825874+837794602+845751522+846601075
1518+844664969+845034427+848127186+852710397+858807528+866978589+877208887
1508+887553297+891558334+885386226+877267162+874417254+877102579+882663779
1498+887323612+887731413+884632802+883075846+886985120+895835603+904648172
1488+908546291+908387925+907564644+907824868+910081850+914908218+921541706
1478+928397322+934838919+940924102+945467935+946210449+943156458+939185069
1468+936643359+936449943+938468219+941177682+943269898+945560102+949491625
1458+953879531+954274408+949815854+944578212+940243460+937336192+937562524
1448+941310568+945486040+947178928+947566552+949004459+951674240+954826310
1438+958385388+962274119+965997963+969454511+972547453+974532874+975447346
1428+977136211+980828784+984698132+985508368+982898690+980451523+981655113
1418+985241926+986272094+983417005+980291695+980361308+983813102+988194851
1408+991070787+991920645+991759658+991573740+991686267+992387329+994128923
1398+996534090+997879222+996895564+994903377+994469061+996121840+997897752
1388+997595407+995112215+992398241+991090049+991312846+992234572+992959225
1378+993464068+994755192+997357310+999639407+999599541+998926396+1001427937
1368+1007556399+1013693091+1017188287+1019288488+1021956257+1024960020
1360+1027034619+1027502523+1026652177+1025849500+1026731665+1029682943
1351+1033839823+1038505935+1043644462+1049026083+1053592592+1056427078
1342+1058256022+1061023090+1065690543+1070692526+1073170293+1072370541
1334+1070508559+1069301251+1067704917+1064701094+1062100072+1061692760
1325+1062211135+1061901963+1061345307+1061589987+1062096781+1062100316
1317+1061964383+1061521837+1059965003+1058233956+1058367573+1060486793
1308+1062701715+1063841239+1064895058+1067582028+1071498251+1073741823
1300+1072499770+1069585309+1067730763+1066480663+1063199243+1057761907
1291+1052722374+1049011575+1045391236+1041720669+1038502887+1034318089
1283+1027436690+1018552314+1010346021+1005115267+1002946672+1001777828
1274+999048614+993571535+986191692+978851959+973077228+969074690+965854897
1264+961961655+956428495+949289675+941565976+934624412+928893082+923511461
1254+917467423+910692027+903960520+898003345+892740345+887246929+880551935
1244+872594771+864078453+855354881+846298303+837440139+829978919+824304218
1234+819737770+815912312+813184195+811513373+810199208+808885469+807623849
1224+806121023+804202472+802639726+802371516+803449413+805484147+808214641
1214+810935991+812722814+814075931+816693228+820948248+825318964+828705595
1204+831694423+835234604+839513885+844129830+848313958+851413239+853780736
1194+856437898+859667566+862800069+865552873+868700005+872610925+875975551
1184+877545307+878665082+881973810+887926596+894662553+900946943+907281927
1174+914619344+923789240+934952237+945771256+952227422+953288434+952049550
1164+951635228+953125497+956297134+960020368+963080820+965440697+967711760
1154+969743568+971183304+972342883+972941843+971734047+968596851+965414120
1144+963950916+964500135+967183692+972512403+979817513+986514397+989748271
1134+988718895+985608459+984148851+985828208+987918412+987333472+985282401
1124+985073869+986971084+988211675+987717255+987706100+989613374+992131006
1114+994395547+997814851+1003302659+1008381997+1009166936+1005922578+1003422256
1104+1004876073+1009144260+1012720040+1013079319+1011156440+1008984310
1095+1006943114+1004723864+1002521012+1000775030+999898594+1000366742
1087+1002100533+1003758493+1003281020+1000346138+997145242+995548604+995182437
1077+993737459+988324627+977742852+965149141+956249405+953036195+952139217
1067+949722956+946267687+944595401+945208991+946210449+946515171+947150218
1057+948847922+950101009+949614818+948432442+947632995+946495543+944086596
1047+941280394+939637368+939688998+941389263+944505003+948169048+950977078
1037+951786888+950594636+948336130+945582290+942400412+939727706+939113750
1027+940779269+943646123+946683595+949130030+950497349+950841876+951298442
1017+953807419+958518212+962270279+961992743+958134063+952185301+944066115
1007+934452088+925587036+917777449+908885210+898335071+888631499+882314558
997+879388516+877609373+874216219+867716591+859290000+852280409+848890730
987+847737003+845793886+842709113+840833293+840741492+839893219+836753462
977+833332207+831989088+832286617+832072720+829989160+826028865+820762696
967+814989671+809636943+805356931+802279533+800370430+799760559+800424194
957+801957742+804156145+807446709+811953785+816960462+822168174+828236229
947+835103426+841097235+844985296+847791315+851273343+855673928+860077927
937+864380249+869761322+877090144+885888875+895216771+904566734+913325660
927+919817973+921495136+917191716+909214681+902088784+898945248+899683738
917+902495426+905643899+907605546+907293204+904800076+901206436+897443945
907+894365084+893001666+893848599+896672904+900598880+904425070+907309236
897+909068019+909627662+909368596+909806509+911845205+914292067+915048601
887+913633370+912187965+913216731+917055051+921936462+925635679+926677368
877+925163509+923340599+923801493+926573985+929665038+932611013+937193980
867+944087815+950869063+954042590+952417424+948173559+944732127+943939447
857+945230997+947075363+948363865+948557220+948023239+948336008+950669003
847+953779623+955374493+955605336+955996556+955646360+952873989+949491625
837+949024148+952353419+957504259+961719718+963334278+963564145+965238747
827+968114805+968419650+965240271+963113554+966941877+978496704+995131965
817+1008813448+1011183810+1002216533+989813251+981225917+978305665+980048722
807+986090382+995871187+1005971526+1011280182+1010183571+1005443580+999523650
797+993702104+989560829+987358464+984103255+977422342+969538936+963639427
787+959483400+955398754+950978785+945154557+936861949+928287051+923026246
777+922171999+923186623+922402232+918661564+914053727+911120979+910467645
767+912085923+917574585+928187387+941013221+949740572+950671259+947210016
757+945789055+948627625+952589748+954210586+953813576+953198096+952387189
747+951197498+950306677+950402135+952089477+954769437+956454524+957177287
737+958770817+960597567+961251815+963193285+970193367+979988801+984178354
727+979703097+973257660+971539839+973726782+975447894+975334210+974304042
717+972669306+971255964+972659797+977796250+982609939+981531798+974443145
707+967440564+966486531+971450233+976240575+975198825+969269630+963567559
697+960360384+958770390+959365449+962972073+965590528+962238033+953969503
687+945878235+940761165+938419941+937008916+933749684+926922109+917704971
677+910474716+909731349+914775576+919109047+917772633+912972660+912996433
667+922759926+932003397+932613208+930137818+932839784+942079963+949363372
657+945889329+932975534+919633823+912450505+911894946+915218548+918481132
647+919742875+920208462+920348419+918693627+916057068+914103894+910997359
637+906019088+903987889+907071566+909514709+905993912+898109044+891491708
627+890813322+895109305+896497593+889670628+879436549+872358138+870294144
617+871845858+875098140+879665503+886496186+893568929+896110579+893070060
607+889005103+887567378+886293810+881215936+873211836+866062349
##END=
