##TITLE=<SNM>
##JCAMP-DX=4.24
##DATA TYPE=INFRARED SPECTRUM
##DATE=29/4/2025
##SAMPLING PROCEDURE=Instrument type and / or accessory
##ORIGIN=Admin
##XUNITS=1/CM
##YUNITS=ABSORBANCE
##RESOLUTION=4
##FIRSTX=4497.3318
##LASTX=599.83466
##DELTAX=-1.4281778
##MAXY=2.1213353
##MINY=0.38510221
##XFACTOR=1
##YFACTOR=1.9756474e-09
##NPOINTS=2730
##FIRSTY=0.39501795
##XYDATA=(X++(Y..Y))
4497+199943546+200861187+201690778+202339245+202479835+201940266+201023816
4487+200135033+199496477+199367863+200035850+201349830+202497877+202539360
4477+201362516+199974681+199407898+199589067+199847516+199968828+199991591
4467+199684238+199024879+198564203+198745372+199385377+200002060+200142802
4457+199495692+198233302+197093386+196683742+196970762+197660244+198594298
4447+199452927+199528653+198419751+196765125+195777807+196123612+197467988
4437+198983894+200041522+200420483+200190696+199617608+199166858+199267353
4427+199820273+200163106+199860911+199309937+198971072+198460510+197291179
4417+196050526+195767972+196524371+197589044+198466846+199018830+199008165
4407+198258358+197135051+196438237+196672700+197558090+198318758+198386278
4397+197822950+197122108+196693231+196621955+196834319+197212798+197550125
4387+197782145+198172284+198781576+199014893+198308349+197032987+196125483
4377+196029332+196408806+196760027+196993691+197296519+197580853+197390528
4367+196513510+195452805+194924564+195013353+195216682+195278062+195430811
4357+195749071+195935550+195948402+196211859+196984172+198037501+198900776
4347+199011258+198021753+196397025+195294534+195521486+196811436+198077823
4337+198283128+197352182+196294161+196164100+197069914+198411153+199569457
4327+200064179+199711632+198941822+198464794+198557189+199019630+199585507
4317+199981228+199928190+199442201+198861752+198473890+198398195+198690856
4307+199214496+199641925+199804509+199858437+200106372+200617431+200918072
4297+200382334+199215899+198534743+199108042+200560712+202056887+203136629
4287+203584619+203177690+202018239+200722829+199943742+199832386+200075387
4277+200327048+200470324+200538281+200562613+200548584+200545310+200667120
4267+200959434+201235743+201224701+200960430+200730884+200597051+200330879
4257+199885665+199572836+199664974+200125665+200787995+201494705+201989382
4247+202005387+201621779+201335575+201630061+202524939+203558597+204185418
4237+204225227+203922670+203543693+202991920+202044321+200931211+200249180
4227+200251835+200686022+201267256+201896022+202592187+203456971+204388520
4217+204872351+204663788+204412580+204796942+205405540+205323116+204490810
4207+203745800+203744186+204332223+204937110+205353678+205883578+206657777
4197+207252482+207272485+206950363+206820950+207071570+207442988+207602284
4187+207485090+207264505+207080108+206990564+207129963+207583232+208077095
4177+208175463+207918116+207917180+208648011+209889915+210964137+211341997
4167+210992089+210301867+209716666+209420234+209386398+209655904+210262541
4157+210887596+211007491+210465221+209551125+208624041+207999151+207920107
4147+208272006+208633816+208850208+209156189+209645360+210085897+210353608
4137+210673301+211272501+211944440+212174831+211870147+211722768+212385310
4127+213429678+213717120+212822891+211570215+211086294+211721124+212912057
4117+213875797+214318718+214458298+214562489+214663603+214589295+214156496
4107+213486714+213079559+213310433+213961675+214526059+214820485+214994866
4097+215057196+214765863+214091525+213518664+213616625+214408880+215390949
4087+216085817+216388690+216476061+216577175+216745793+216781182+216550309
4077+216351581+216578668+217012720+216965398+216289824+215664286+215633694
4067+216034121+216579181+217209169+217618180+217322411+216482005+215863315
4057+215845334+216139322+216492172+217037610+217818446+218392047+218284537
4047+217766780+217685232+218359434+219223101+219780712+220136986+220364661
4037+220224478+219709843+219132245+218701905+218623675+219252305+220567371
4027+221934812+222782157+223121521+223247510+223271675+223101896+222747734
4017+222445690+222298040+222001381+221336562+220710194+220723590+221423315
4007+222332991+222958409+223081833+222825798+222489889+222210683+221960863
3997+221837846+221950772+222110701+222064376+221916197+221929034+222085268
3987+222214258+222331739+222488712+222526892+222331407+222156303+222418703
3977+223222770+224199529+224820768+224905967+224742251+224626535+224529525
3967+224415815+224586772+225363777+226584457+227641467+228032858+227837328
3957+227580991+227631254+227931277+228454751+229435159+230661195+231060687
3947+229915868+228175696+227360074+227596152+227694309+227015566+226302566
3937+226523906+227946844+230272549+232783149+234241445+233703415+231869113
3927+230588410+230860466+231913704+232534023+232832703+233699221+235062981
3917+235663523+234472032+231889885+229410481+228403824+229191856+231213617
3907+234124387+238143199+242884289+246635435+247888699+246643174+243387112
3897+238820901+234838971+233758188+236206487+239802185+240998729+239844739
3887+239613911+241709859+243974560+244639711+245002471+245566735+244372785
3878+241339556+239550901+241135066+245256214+249954990+253501647+254150596
3868+252214442+250382042+249998223+249465065+247046648+243711330+241573507
3858+242038768+246392630+255679656+265801794+266977566+258902532+249054953
3848+242185499+239787613+241403998+245468699+250414550+255425145+259630224
3838+261312304+259886486+257247665+255101002+253301048+251245950+249380574
3828+248441800+248419323+249579936+253214914+259031175+262869905+262158202
3818+259922991+258358452+255780513+251381608+247640900+247190512+250770431
3808+256500000+260666764+262313636+264195108+267058210+267906913+265627896
3798+262482375+259260646+255273934+251356733+249134435+248750994+249414530
3788+251034355+253731690+256389096+257802545+258780586+260664320+262719841
3778+263242530+262477729+262195793+263736257+267462936+272395709+276309229
3768+277949494+278214564+278416671+279553163+282721673+288104909+293686812
3758+297008825+298645138+301571234+308123575+318079720+327527988+332462781
3748+334701462+338131271+342876207+345042149+343397781+342093123+344951700
3738+352977166+363925531+372977610+376319475+374255538+370431410+368821285
3728+371166374+376202749+381246606+385151317+388568304+391662295+393986537
3718+395948109+398913939+404682049+414556826+426684795+435232407+437256189
3708+436571096+437640309+441930860+448195020+453250010+454879595+454500211
3698+454587733+456028064+459085429+464393150+472213854+481096833+487230570
3688+487251236+482680198+477910945+475672747+476102876+477924522+480449271
3678+484563661+490397088+494776458+495580329+495718959+497625894+498576390
3668+495072694+489202671+485706488+486955241+491806103+497479571+502212469
3658+505680534+508008245+510261558+515110127+524773655+537728454+546878555
3648+546037727+538725381+531474461+526772698+524693766+525008255+527144389
3638+529836851+531816525+532758845+533707440+536784445+543193390+549943614
3628+551269993+547930753+545564907+546340208+549651812+555003732+561473861
3618+566701180+569743430+571984856+574034221+574967007+574393603+573161714
3608+572456287+573183014+575525388+578405446+579903129+579116847+577839704
3598+579430792+585473899+593520876+599012180+600873588+602725222+607497220
3588+612969577+613511063+607314090+598583650+592575238+591150746+591873250
3578+591617894+590402056+589928030+590666825+592227562+595073227+599847337
3568+604559539+605152131+601272130+597089708+595530901+596299926+598447343
3558+601985281+606638109+611000584+613431475+613188428+611259801+609892210
3548+610550392+612673311+614483431+614877809+614291975+613467377+612493560
3538+611534949+611139605+611332510+611686823+612543401+614711273+617807949
3528+620230815+620919649+620284638+619611432+619724387+619921516+618804936
3518+616498525+615138898+616691007+620741286+624621831+625848771+624565715
3508+623290624+624407143+628327089+633183683+635979387+635477303+633555374
3498+632606417+632788521+632796365+632377489+632431071+633269667+634802950
3488+637384268+640705648+642725870+641322255+637224007+633669295+632792141
3478+633673398+634707554+636078947+637984524+638868978+637472484+634882719
3468+632770721+631402224+630416883+629931091+630168224+630655102+630226633
3458+628372223+626583403+627145223+629933202+631640866+629610749+625210139
3448+621432172+619088652+617709234+618103250+621041595+624870007+627054472
3438+627153911+626785359+627274047+628516072+629845228+631017078+631819893
3428+631465339+630146924+630329210+633829858+638829697+642231509+643145288
3418+641454097+636725966+630367404+625404191+623189133+622437606+621707380
3408+621560212+623452514+627255402+630718157+631515180+629699749+627243334
3398+625974096+626665645+628598677+629721592+628635243+626292688+624429167
3388+623589545+624224918+627367030+632556697+636775927+636862815+632572385
3378+626743242+623099710+623512673+626235969+627456574+625857641+624348373
3368+625959977+630240631+634696753+637982593+640705768+643615754+645923976
3358+646378573+645602609+645656130+646828885+646504260+642484814+636313667
3348+631713937+630800520+632915837+636100065+638550386+639359296+639042514
3338+638694537+638389039+637618928+637023801+637720177+639630823+641637710
3328+642931989+643740838+644539067+645104628+645064140+644764495+644883907
3318+645219936+644790984+643496343+642665892+643484878+645329754+646155136
3308+644784407+642265722+640758867+641500317+644113554+647169863+649142658
3298+649655060+649742371+649953619+649894426+649260199+648319991+648089978
3288+649780023+652924367+655051932+654180693+650943426+647760947+646441326
3278+646817481+647397644+647379120+647755034+649575231+652016380+653498375
3268+653658878+653126383+652201320+651108876+651077017+653378541+657133761
3258+659654860+659601218+658459537+658134851+658644960+659169128+660359804
3248+663422630+666779610+666883152+662869137+658053152+655566446+655013858
3238+654870552+655006980+655295341+654523480+652700146+652004373+653791685
3228+656447883+657415787+655810579+652277469+648403984+646859055+649816106
3218+656196992+661748153+663034708+660428953+656581113+653322788+650893948
3208+649126668+648052447+647986556+649373034+651770920+653237045+651876152
3198+647748095+642644592+638903311+637907169+638748903+639179605+638261481
3188+636976012+636439052+636978486+638304745+639354891+638757954+636192686
3178+632652456+629599526+628231090+628638622+629445841+629329568+628418323
3168+627491027+626831941+626415659+626119816+625431283+624167294+623002021
3158+622178449+620755164+618505894+617033674+617421958+618441090+618464079
3148+617847049+617993734+619035131+619617345+618498352+615749049+612649175
3138+610805808+610993464+612235187+612608748+611488126+609995270+609030443
3128+608360375+607853162+607991098+608601250+608613438+607752878+607003886
3118+606907645+606649211+605248131+602991077+601409523+601954689+604287891
3108+605882177+604304001+599934467+595431642+592971305+592904510+594420114
3098+596477746+598257696+599396964+599885290+599606160+598192108+595701902
3088+593198905+591930150+591958932+592190514+591836925+591395905+591692895
3078+592285730+591732116+589689931+587724497+587315275+588245286+589478441
3068+590287713+590147303+588797874+586843603+585373977+584794176+584626071
3058+584304040+583788259+583496518+583554565+583330344+582185223+580395981
3048+578717702+577159679+575127631+572978524+572089725+572901048+574232376
3038+575023666+575439766+575775434+575625491+574537874+572682922+570878956
3028+569982856+569917267+569601089+568373183+566913635+566196441+566316999
3018+566647297+566705946+566654899+566750537+566386631+564671484+562235524
3008+560950176+561476093+562555202+562867036+562152075+560493286+558052137
2998+555692325+554582262+554879976+555440770+555115843+554132251+553550640
2988+553378552+552393633+550335337+548785581+548913138+549771888+549753484
2978+548770737+548064344+548348060+548844774+548301659+546766626+545521523
2968+545086839+544567015+543364210+542138597+541482528+540938025+540043796
2958+539389838+539785483+540983280+541902490+541802085+540685867+538932345
2948+537142258+535862158+535150999+534758310+534532279+534310833+533817861
2938+532988134+532047444+531161240+530319083+529508243+528737589+527907138
2928+526785792+525374394+524261012+524190536+525213409+526587698+527441681
2918+527276109+526146195+524667760+523571454+523075163+522739133+521861558
2908+519999183+517375568+514897913+513568034+513802935+515167208+516557728
2898+516959468+516279081+515138667+513942681+512707836+511724244+511551251
2888+512144448+512579193+511865680+509911771+507715056+506596787+507048065
2878+508312114+509201275+509145401+508352783+507370217+506657368+506198306
2868+505518975+504383871+503205474+502471204+502079542+501574622+500831543
2858+500237985+500175020+500422261+500347108+499726246+499001058+498661740
2848+498639474+498318741+497202945+495588143+494301859+493738078+493502242
2838+493078841+492394985+491507423+490278733+488761470+487437413+486672732
2828+486277992+485884791+485435504+485045923+484662497+484132053+483465545
2818+482820034+482306516+481989976+481914009+481828146+481120516+479482061
2808+477432695+475791314+474979177+475106825+476083689+477256927+477588311
2798+476637181+474994744+473575412+472794379+472427486+472053864+471537239
2788+470927661+470038802+468660198+467184660+466375267+466466832+467016796
2778+467525999+467646769+467019601+465595713+463971317+462924882+462657730
2768+462665423+462253818+461117145+459600576+458409236+457899941+457729453
2758+457340807+456711769+456394867+456712222+457105996+456652757+455260095
2748+453839193+453080818+452702129+452186378+451510637+450723360+449526227
2738+447870425+446450428+445992905+446324983+446600613+446330987+445751819
2728+445157658+444413342+443367811+442323639+441770478+441780524+441886088
2718+441605661+440967934+440368946+439954354+439396154+438406287+437255616
2708+436509520+436284544+436094506+435550939+434860988+434411762+434188084
2698+433844904+433173116+432319314+431600280+431167586+430917721+430751184
2688+430720230+430805882+430768170+430368693+429620033+428731445+427873661
2678+427079293+426383852+425911123+425656612+425368763+424865201+424258760
2668+423754173+423450635+423349114+423374035+423419802+423382361+423081751
2658+422363984+421408178+420636529+420255335+420110339+419897884+419351089
2648+418405903+417316507+416423575+415779211+415179980+414571971+414211353
2638+414265628+414428062+414242880+413732168+413336462+413287648+413397284
2628+413390225+413119633+412529454+411703891+410925724+410477493+410384178
2618+410464369+410569933+410592741+410333433+409673502+408856114+408303738
2608+408176301+408305216+408451750+408423240+408080814+407467827+406880423
2598+406664680+406921605+407398798+407604163+407105851+405960188+404849974
2588+404522059+405066260+405928087+406468456+406314440+405491532+404489144
2578+403875734+403725550+403750138+403866442+404139025+404353200+404170824
2568+403616396+403054878+402755052+402674076+402655552+402713478+402947655
2558+403197942+403118626+402700957+402343960+402255985+402173229+401857051
2548+401536016+401591588+401996013+402303110+402124113+401463427+400678895
2538+400236065+400343348+400706591+400795290+400443813+400024123+399935394
2528+400133095+400310312+400410234+400726744+401420255+402123570+402246330
2518+401641217+400798427+400337103+400437930+400833967+401218993+401503613
2508+401737941+402005848+402340581+402553216+402323927+401674132+401083169
2498+400923994+401062140+401184841+401270613+401544523+402089388+402652716
2488+402894526+402749712+402407949+402048749+401833036+401968800+402438934
2478+402857478+402922825+402770106+402627645+402470702+402210308+401894793
2468+401632800+401559940+401813697+402330444+402823688+403112562+403253093
2458+403257920+402987147+402488653+402200171+402538252+403373952+404153627
2448+404526162+404592325+404519223+404247123+403726364+403184245+402906111
2438+402864145+402816205+402729800+402792040+402980298+403022445+402873558
2428+402811469+402945784+403009231+402744583+402264643+401964576+402129031
2418+402606044+402954533+402996017+403011524+403276112+403686993+404009265
2408+404190072+404243292+404115282+403894289+403913235+404403040+405195809
2398+405967157+406616137+407208850+407731087+408121453+408400402+408538156
2388+408320361+407594750+406526533+405306290+403710857+401305248+398058327
2378+394470066+391118064+388257948+385760110+383298989+380699660+378162179
2368+376108016+374850604+374416915+374575759+375035001+375682050+376614656
2358+377968520+379899228+382836035+387404056+393415696+399130135+402360674
2348+402030798+398648747+394127188+390731168+389360952+389369037+389893990
2338+390537780+391038386+391060711+390613838+390301461+390734668+391845455
2328+393079727+394039937+394671268+395125683+395690309+396628857+397906000
2318+399159460+400043431+400594028+401182155+402067123+403134435+404182469
2308+405266134+406559961+407998662+409212328+409838650+409917242+409934349
2298+410369697+411250139+412240066+413077214+413788223+414486108+415081235
2288+415324373+415120878+414628901+414042041+413523032+413309279+413539565
2278+413975305+414175511+413955092+413498956+413084214+412865846+412875590
2268+413011987+413039864+412823276+412523842+412353745+412322188+412491711
2258+413102466+414107056+415039963+415605343+415898954+415994170+415882270
2248+415737154+415728978+415746295+415652438+415556347+415572126+415539271
2238+415177567+414426463+413518748+412710502+412037024+411446453+411064625
2228+411090873+411427476+411656766+411531018+411327856+411502055+412072775
2218+412609705+412803545+412807920+412965104+413372968+413824819+414122352
2208+414357374+414814264+415613338+416568208+417443310+418244164+419132962
2198+420116041+420988820+421612156+422071730+422488705+422831312+423039332
2188+423204692+423480202+423898715+424406924+424991853+425638872+426222867
2178+426599113+426823002+427119208+427552686+427915959+428057424+428131883
2168+428359483+428738294+429153157+429542225+429863653+430117138+430417146
2158+430883086+431545914+432443160+433593651+434810846+435784361+436438531
2148+437030188+437814962+438770043+439746847+440760457+441924373+443172764
2138+444293809+445257097+446348364+447936013+450113781+452565188+454825863
2128+456673876+458205470+459620699+461055177+462549149+464073231+465557428
2118+466913796+468148882+469471551+471055399+472690113+474004153+475005817
2108+476026457+477187326+478259767+479011565+479518355+480155901+481235463
2098+482600248+483706540+484121072+483806221+482944062+481655937+479961186
2088+477887443+475457215+472640966+469541183+466507260+463823818+461462528
2078+459347302+457570881+456147958+454880138+453642879+452557646+451795138
2068+451380304+451192468+451054110+450843676+450549401+450203416+449866058
2058+449738923+450105575+450970992+451907550+452498815+452845646+453342631
2048+454033939+454588216+454960721+455645693+457040528+458895782+460703881
2038+462435983+464584727+467577348+471347140+475407586+479258444+482735620
2028+485927421+488844436+491386201+493565025+495502582+497214198+498571019
2018+499448897+499809243+499697676+499289510+498857450+498517830+498074245
2008+497312672+496335688+495373275+494430261+493357066+492118329+490827791
1998+489685718+489015378+489146374+490034962+491110330+491793884+492111420
1988+492437222+492884729+493409591+494184952+495374482+496817407+498305737
1978+499888408+501693309+503690452+505722953+507692007+509700945+511856870
1968+513874980+515268819+516081832+516973104+518494320+520657606+523101531
1958+525411684+527445904+529470953+531819844+534478034+537178703+539729428
1948+542128460+544648292+547767535+551488120+554801837+556681347+557514815
1938+558547462+560347204+562582476+564821307+566990145+569234829+571644119
1928+574182415+576864499+579606500+581802612+582968126+583951598+585993481
1918+588534492+589675630+589059445+588338510+588892425+590637077+592523708
1908+593581819+593808091+594032976+594761272+595643313+596307951+597047711
1898+598263670+599724425+600804500+601379293+602087315+603353234+604441635
1888+604247282+602941418+601705366+601150667+600839738+600105529+598957573
1878+598084040+597978265+598381633+598994440+600258248+602585778+604909205
1868+604962485+601835579+597137315+593109482+590900519+590228339+589882775
1858+588794857+586871298+584740354+582887513+581372573+580211221+579721145
1848+580524745+582921303+585603267+585720385+582408238+578315118+575684382
1838+574218015+572602972+570597171+569470756+570588482+573426785+575183686
1828+573913422+570900135+567954368+565149493+562103985+559221634+556966270
1818+555280207+554131527+554010908+555452054+558065834+560305631+560739108
1808+559572930+558295908+558303631+560181573+563402970+566335644+567380842
1798+566710050+566315491+568233377+572684309+576959051+577476883+574707367
1788+572425393+572858750+575289521+577945177+580159269+582119936+583790854
1778+585404328+588059803+592950911+599937182+606242705+608233179+606095718
1768+602888501+600634946+600186384+602042000+605505056+608548211+610220456
1758+611186248+611607054+611687668+613184567+617648291+623877183+628463818
1748+629752184+629307906+629146377+630095998+632206729+635072245+637813341
1738+640427000+644720266+651650603+657622691+657905803+654546228+651556534
1728+649906977+649559301+650602931+652637212+655671678+661435534+671817946
1718+684854867+692723963+690442532+682967452+676766980+674604176+676811028
1708+682434776+689290715+694960080+699784633+706768974+716629571+724359404
1698+725855579+723520747+719446876+714537424+711405148+711991707+715822472
1688+721953976+731235496+743620872+752658259+752262614+747510950+744871043
1678+746286303+751120390+756848104+760952085+764096911+767857019+770749024
1668+770540672+769250073+770230950+773191018+774479806+772132243+769178813
1658+769846286+776446808+789515649+805008261+811069469+806599651+803384649
1648+805198028+807814765+805707714+799553281+793802036+791286971+793144880
1638+799197521+806657396+809278658+804316470+797318794+793230019+792310809
1628+792561278+792843002+793576789+794164675+792718884+789912259+788838340
1618+790107578+789834422+784708956+777697764+772732740+770325381+769210430
1608+768283678+767127697+765774587+764593806+763914868+763379537+762401496
1598+761390812+761399320+762412659+763143127+762824173+762027030+761377477
1588+760690212+759714826+758794349+758342347+758503091+759895362+763703439
1578+769768449+774247077+772479013+767299302+765196355+767558882+770427475
1568+769779189+766898347+764897313+765037240+768704183+778346714+791945092
1558+796174459+786431704+775479448+770138148+769599499+770371722+769713057
1548+768506813+770380954+777398058+787726406+797852194+805073970+806084292
1538+800709142+794910590+792963983+794279803+795602743+796083889+798321634
1528+803468280+809567623+814952609+820618896+826825463+830949778+832256125
1518+833506719+835481565+836498645+836669949+838706643+845272953+857672992
1508+874464710+886561725+883559842+873271801+867062278+867064752+871237218
1498+876686948+880586439+881659816+881941722+884873188+891647789+899244574
1488+902881408+902143217+900486539+900230037+901572406+904386936+909639959
1478+918257264+928966594+938839500+945759579+948711682+947834167+946004738
1468+946739490+950430267+953783205+954108796+953615703+955399696+959300092
1458+962859209+963570067+961295816+957727890+954310088+952315329+952739937
1448+955522245+959259484+962011743+963030452+963365034+965100997+969872935
1438+976464889+980620339+980576653+980467620+983405905+987683483+990077266
1428+990053975+989563476+989928590+991055246+993050246+996839497+1001881997
1418+1004253394+1001528589+997233936+995139617+995032092+994961616+994457119
1408+994580392+995999996+997529236+997838838+997602187+997857482+998201718
1398+997113317+994210451+991573380+991841166+995274656+999572508+1001725597
1388+999408506+992967762+986167276+983262841+985852304+992213581+998605992
1378+1002060662+1003037797+1004687415+1008908816+1014225739+1018439236
1370+1021568556+1024403419+1026461715+1027293554+1027876673+1029190140
1361+1030950722+1032773332+1035061280+1037840631+1039950457+1040190970
1352+1038776977+1037416204+1037822409+1040111684+1042991561+1045418772
1344+1047110325+1048189434+1048879837+1049367741+1050454935+1053100937
1335+1056593620+1058309550+1056458218+1052498750+1049286283+1048017829
1327+1048772433+1052245445+1058678345+1066059054+1071316784+1073451832
1318+1073741823+1073016665+1071252945+1069552341+1069789957+1071530989
1310+1071429257+1067106425+1060182484+1054313396+1051483359+1051027073
1301+1051020798+1049840922+1047314755+1043788523+1039016887+1033469649
1293+1028779712+1026328848+1026386170+1027881500+1028045865+1023789647
1284+1015518691+1007614718+1003413892+1001908486+1000040379+996513363+991821858
1274+985843857+977959072+969221692+962268547+958501561+956210174+951982075
1264+944052277+934033953+925061551+919008428+915387826+912072419+907087363
1254+900131442+892612314+886367372+881879029+877554387+871471999+863511126
1244+855106156+847547023+840997548+834954682+829163733+823673636+818420130
1234+813471398+809355108+806504315+804607728+802937535+801165368+799634257
1224+798945000+799269143+799937884+800038591+799593890+799800371+801989000
1214+806362215+811536375+815479733+817362683+818345913+820191573+823445855
1204+827207712+830436230+833160974+835982623+838788946+841121605+843412389
1194+846235004+848917631+850786341+852943050+856665264+861027739+864314726
1184+867108558+871707865+878667467+885805974+891479443+897491776+906693890
1174+918426033+928209999+932552863+932816969+932964498+934922812+937633377
1164+939679243+941038085+942126003+943248859+945410999+949358278+953858146
1154+956934548+958444299+959596177+960352833+959741535+958129448+956948366
1144+956341774+955208963+954141319+955768611+960790535+966102872+968859294
1134+970043816+971776098+974094517+975599803+975468022+974634012+974681076
1124+975355731+975606441+975773943+975962744+975503441+975655074+979115476
1114+985414844+990771892+993504843+995009525+995162727+992566626+988745697
1104+987126430+988859014+992224804+995467441+998268454+1000736454+1002716007
1094+1003254536+1000213433+993405162+987141274+985107355+984844999+981281417
1084+973934859+966662519+962865786+963116617+965088808+965507684+962916893
1074+958242826+952729740+947515756+945032369+947168081+951957155+954403614
1064+951563501+945374976+939775424+937371021+938828518+942306660+943551098
1054+939448867+931943677+926597007+927203659+931835006+934902478+934126514
1044+933345240+936780842+943830289+950446016+953069149+950356895+942675152
1034+932641502+925032227+923515174+927481944+932389223+933723447+930985609
1024+927469393+926543546+929111951+934123798+940448509+947472010+953485732
1014+955855379+954228992+950298245+944468498+936283585+927305150+919689418
1004+912825334+905066055+896682746+888423797+880181321+872681200+867520918
994+864630240+862078248+858786193+855318550+852017083+848625649+845446308
984+843287969+842526185+842475379+841504579+838534495+834447168+830786922
974+827757163+824675692+821194413+817115895+812380040+807758649+804117350
964+800756267+796134092+790726177+787557456+788997153+794072296+799933178
954+805208648+810519718+816217201+821437822+825469456+828563477+831162293
944+833454344+836037592+839877710+844940604+849727747+853386967+857704670
934+865262054+876034137+886872654+894591203+898904260+901950794+905376622
924+908567065+909607376+907283043+902080705+895881802+891118010+889585270
914+890954913+892845224+893187348+892222823+891347480+890739682+889589916
904+888570000+889829101+893710732+897269366+897580174+895698189+895422318
894+899051368+905726409+912811335+917911036+920276822+920717842+920312241
884+919667213+919484868+920490725+921936033+922583716+922748684+923184635
874+923071198+921269766+919486195+920653279+924260667+926678103+925942627
864+923162491+920303431+919200669+921163026+926469329+934109860+942237692
854+949092906+952843118+951762681+947185458+943189545+941473795+940345510
844+938421409+936959265+938257104+943459865+952201167+962693758+971603286
834+975662315+974525220+970730176+966810592+963760800+962406543+964275736
824+969290841+974167950+975640774+973933532+971502942+970377070+971339121
814+974006482+976148167+975335879+972534926+971358671+973775262+978036729
804+980701797+980204118+978625218+979592217+984282636+990699123+994763099
794+992964444+985430472+975380590+965442156+956146033+947868500+941574864
784+937187770+933272591+928764276+923642551+918317965+913755827+911174268
774+910765590+911570336+912520379+913148692+913692893+915016557+917309031
764+919308254+920469606+922301388+925596580+928661518+930351865+932101042
754+934818847+937071798+938075966+939661443+943990912+950500985+955694755
744+956926704+955828286+956750453+960460297+961629312+956485563+949754044
734+948606088+953656733+959662249+962159333+960162281+955178311+950681943
724+950032269+952975442+956369651+958908671+961424158+963294316+963320624
714+962319956+960965700+958007442+953756112+951085915+951722012+954285892
704+956734946+958068325+956812482+952360885+946265585+940018350+934909477
694+933933971+938515297+944314391+945000691+939873173+933915205+931293822
684+931011072+928471087+921484695+913463483+908304951+904902113+899575234
674+891382538+882396258+874776846+871157631+876358521+891474615+908693959
664+921370171+927443930+926829615+921970306+917013247+915054933+916324292
654+918389950+918141774+914126130+907079157+898593392+891275435+888221359
644+889179367+890591368+890738777+891231327+893278883+895858511+897757451
634+899077072+899380097+894337597+883620121+875577368+875891736+880117542
624+877335958+864072825+848012058+835967237+830588949+831335769+836794610
614+847975070+865818684+886632443+900339975+899319335+888204222+873407927
604+858102487+845916593+838047376+832480346
##END=
