##TITLE=<SNM>
##JCAMP-DX=4.24
##DATA TYPE=INFRARED SPECTRUM
##DATE=29/4/2025
##SAMPLING PROCEDURE=Instrument type and / or accessory
##ORIGIN=Admin
##XUNITS=1/CM
##YUNITS=ABSORBANCE
##RESOLUTION=4
##FIRSTX=4497.3318
##LASTX=599.83466
##DELTAX=-1.4281778
##MAXY=2.101336
##MINY=0.37814829
##XFACTOR=1
##YFACTOR=1.9570217e-09
##NPOINTS=2730
##FIRSTY=0.38656339
##XYDATA=(X++(Y..Y))
4497+197526373+196985826+196822760+197177247+197628510+197600140+196892262
4487+195892061+195301473+195616853+196764572+198137916+198888067+198329002
4477+196558334+194802590+194573448+196115568+198016119+198735981+198238179
4467+197605119+197522566+197763586+197867672+197818013+198005703+198676727
4457+199480802+199682533+198959915+197908226+197618185+198665169+200360761
4447+201123414+200048426+198046804+196898872+197291171+198352164+199110051
4437+199553092+199903132+199907700+199489833+199156026+199152798+199053280
4427+198560489+197987307+197715449+197632348+197206942+196101634+194685849
4417+193700114+193544830+194230702+195592076+197027049+197592891+196942318
4407+195757685+194935108+194738128+194867524+195046077+195388503+196041923
4397+196626770+196493172+195510939+194289758+193680926+194121834+195226610
4387+196084167+196219806+195987604+195809127+195605005+195248234+194938641
4377+194819265+194668367+194231464+193607190+193226419+193508175+194330844
4367+194981889+194977275+194626778+194429722+194353580+194153814+194017535
4357+194445392+195639589+197157952+198197855+198275063+197621612+196890983
4347+196549578+196606852+196803268+196912135+196902435+196935861+197144795
4337+197294308+196957790+196266390+195944644+196268020+196713953+196934171
4327+197091465+196970430+196029223+194638580+193965256+194425778+195298229
4317+195880182+196139766+196266527+196399867+196799354+197673967+198734686
4307+199258407+198831828+197896561+197303643+197418054+197949190+198561296
4297+199099803+199264041+198870067+198437200+198621463+199172077+199365721
4287+199209874+199246924+199444330+199224127+198433286+197559023+197136770
4277+197386379+198166743+198999006+199406061+199381178+199280625+199325077
4267+199487381+199800157+200410055+201191775+201654977+201561368+201352709
4257+201559388+202047596+202339296+202441235+202723615+203138498+203229336
4247+202884884+202511271+202445986+202594707+202669067+202578946+202524930
4237+202710032+203014569+203079321+202710824+202094880+201653561+201685617
4227+202060890+202398154+202554687+202648661+202744615+202972554+203667244
4217+204826674+205844769+206302261+206470230+206620412+206493179+205784997
4207+204696882+203829198+203679076+204172827+204751186+205039384+205150582
4197+205232602+205175891+204916415+204653892+204718476+205358922+206400849
4187+207049244+206571316+205403922+204911602+205711048+206899214+207318513
4177+207012087+206873996+207327467+207972756+208310507+208371862+208548100
4167+209007633+209540932+209893774+209883129+209287744+208162761+207130853
4157+206763194+206882372+206996067+207066057+207292366+207540224+207554614
4147+207481975+207737340+208395695+208968374+208961765+208585136+208508537
4137+208869709+209049115+208604446+207912086+207675452+208199065+209245120
4127+210333509+211102894+211436000+211331153+210900722+210539443+210680824
4117+211242965+211711772+211834908+211870665+212127857+212620009+213191150
4107+213687703+213989819+214121545+214310362+214708174+215104097+215145610
4097+214781895+214255997+213772129+213462231+213541586+214196393+215334701
4087+216559735+217372109+217467744+217031831+216680877+216890222+217520404
4077+218045708+218130423+217848972+217464104+217140013+216867729+216625978
4067+216466019+216324806+216055720+215791660+215873451+216276365+216548618
4057+216477060+216392664+216673735+217273277+217837840+218109195+218100012
4047+217959058+217809637+217725820+217724921+217692226+217454267+217099917
4037+217027993+217365607+217585536+217221638+216746877+217016892+218068291
4027+219235016+220102411+220535263+220248101+219315407+218661088+219144285
4017+220376948+221110013+220748293+219884705+219321696+219206265+219291924
4007+219459878+219661152+219821188+220055203+220581374+221278165+221664084
3997+221470394+221048552+221002958+221412861+221712617+221486916+221026348
3987+220901156+221342627+222192586+223096422+223642299+223636452+223372939
3977+223472137+224307324+225553556+226422687+226473108+226019576+225594414
3967+225341714+225203912+225312094+225755622+226174296+226021083+225253221
3957+224449862+224186593+224565476+225506835+227134950+229222764+230490803
3947+229776896+227999116+227324696+228411395+229695058+229523099+228024959
3937+226591372+226604392+228650953+232065893+235019701+235769122+234355530
3927+232527009+231815568+232026299+231897939+231222041+231303833+233039308
3917+235218813+235422432+232992054+229885611+228145416+227979228+228740039
3907+230737595+234929123+240981851+246572336+249380820+248954486+246019956
3897+241717459+237829814+236312030+237853251+240513212+241033354+239333726
3887+238549357+240209040+242413778+243429985+244183212+244805597+243523396
3878+240835171+239735513+241541906+245140699+249446317+253505358+255104097
3868+253661008+251808426+251183300+250293778+247600345+244284740+242435052
3858+243283168+247958563+257211754+266395093+265909550+256715582+246850042
3848+240669760+239247396+241929941+246859773+252180228+257377835+262205271
3838+264782161+263545919+259908492+255995614+252483852+249598297+248134360
3828+248494039+249894170+251979715+256065999+262306296+266673895+266193347
3818+263873512+262104154+259079518+253808175+248743496+246537250+248227223
3808+252663791+256870151+259809416+263462315+267736655+268860511+266026169
3798+262561402+259572431+255872842+251818294+249214952+248812663+250084388
3788+252383831+255041782+257021491+258006829+259173995+261244632+262671443
3778+261795474+259790502+259120391+260995678+265115358+270103454+274122961
3768+276423090+277658327+278522813+279693299+282367438+287169990+292691293
3758+296755602+299665386+304037766+312105228+323466868+333506409+337786779
3748+338819569+341324977+345351490+346049164+342244773+339353812+342405676
3738+352836526+367134417+377831672+380209222+376454019+371641599+369419195
3728+371155386+376216639+382482245+387826989+391250000+392789044+393478921
3718+394915447+398598864+405948185+417442221+430096387+438018387+439309756
3708+437787403+437670053+441451723+449192566+457384414+461579626+461608378
3698+460688491+461296805+464497085+470622224+478729889+485704286+487699482
3688+484523140+479583898+475245355+472628932+473047744+477138490+484386542
3678+494032276+503408162+506711021+503083980+498636798+496813044+495543908
3668+492643049+489668088+488531257+488995328+490068078+492345059+497586190
3658+505501002+512440161+515908461+518854549+525515819+535868517+543906984
3648+543370883+536369410+528863876+524055415+522268514+522750280+524912714
3638+528460445+532869556+537326606+541614378+546753904+553958768+561853661
3628+565296804+561698514+555322502+552144029+555334929+562958757+568545572
3618+568272313+566102935+566923625+571131903+576421338+580955079+583669086
3608+583179340+579158675+573849687+570267600+569847113+571824187+574499087
3598+577050637+579617842+582012235+583670487+585315642+588891150+594443427
3588+598304986+597120277+592938861+589812956+588978196+589996793+592490293
3578+595401050+596714531+595376989+592674313+591606375+595204726+603731476
3568+612164968+613648276+608569176+603311172+600988292+600108943+599530629
3558+600743419+604714318+609196403+610992746+610042372+609401560+611066634
3548+613683362+615121106+616134039+618567721+621091373+621163617+619745486
3538+619584796+620128816+619107172+617733022+619089386+623102436+626533275
3528+627484197+627306634+627155690+625853174+623103289+622120813+625561215
3518+630433696+630701533+625518758+620246135+619074035+621201322+623607471
3508+625037601+626299854+627485903+627389538+626081296+625420322+626411265
3498+627689598+627240177+625099368+623676365+625478982+630637148+636553079
3488+640136993+640301460+638022133+634844878+632056070+630029961+628195973
3478+626380869+625607814+627127853+630646772+634122930+635861222+635958989
3468+635307761+634567234+634326138+634593975+634537386+633751905+632721064
3458+631748639+630960234+630888538+631492680+632075928+632923114+634480128
3448+635504756+634559498+632259278+630167138+629002348+629222855+631358974
3438+634594889+636621668+635893385+633111642+630468112+629695240+630531706
3428+631193776+630798386+630770609+633095195+637455027+640632952+639663999
3418+635240208+630707503+628689983+629158165+630169636+630394468+630206732
3408+630321493+630772437+631587766+632688110+632651561+630082164+626244118
3398+624110618+624907307+626970147+627976440+627441801+626745802+627224035
3388+628965373+631602263+634956594+637955128+638824548+637858885+637252124
3378+637122987+635553243+633085571+632903866+635986339+639395735+640425785
3368+639996892+640482800+642692381+645670631+647800050+647914750+646599929
3358+645925311+646810751+647559197+645779666+641304769+636821160+635743050
3348+639403228+645640783+650248107+650624615+647830507+644660683+642720645
3338+641864321+641445784+641322738+641966900+644141577+648012760+652139597
3328+654076346+652835231+649926362+647221370+645221880+643831222+643285132
3318+643653842+644627120+646310651+648660333+650166605+649523966+648275054
3308+648884739+651093284+652444836+651579558+649477733+647815095+647222223
3298+647086568+646846447+647237269+649170667+651963435+653873808+654063372
3288+653248956+652787353+653752834+656304323+659420055+661791240+663078954
3278+663883197+664879683+666009448+666243052+664262689+659945740+655051695
3268+651749324+650974259+652254481+654419838+656284161+657495794+658756340
3258+660374937+661167119+659934836+657449804+656006151+657149500+660180988
3248+662630203+662287138+659313517+656307673+656002557+658468645+660700338
3238+660053070+657631327+656381257+657018962+657918778+657731895+656307247
3228+654223818+652407557+651443050+650758929+649228352+647370060+647300558
3218+649450931+651283274+650265041+647075787+644650145+645029698+648067400
3208+651976897+654648813+655202700+654265057+652568368+650232514+647696436
3198+646035686+645741413+646212641+646578975+646406833+645835890+644824967
3188+642722411+639110660+634917731+632149999+632281206+634950198+637988143
3178+638915492+637075535+634276006+632864881+633323682+634072615+633547357
3168+632123745+631405817+631607197+630801736+627608096+623135208+619082137
3158+616015075+614544376+615902446+619995110+624594516+627297497+627229944
3148+625132322+622729584+621591230+621800529+621845727+620368876+617747337
3138+615269370+613545210+612568034+612280704+612125496+611075101+609112830
3128+607489482+606844224+606439574+605502540+604223415+603517487+604319293
3118+606427818+607982517+607364121+605417687+604292917+604652795+605183718
3108+604219029+601340373+597910144+595916258+595996237+596764724+596597028
3098+595799669+595879831+596942470+597309718+596109232+594864889+595488279
3088+597645717+599099604+598332580+595940319+593621641+592671206+593083835
3078+593536667+592795348+591065949+589354642+588400856+588722846+590310011
3068+591847776+591761339+590362884+589505342+589962803+590359960+588920693
3058+585867824+583430730+583228985+584441288+585102505+584527054+583562730
3048+582978508+582575930+581809880+580540988+578821457+576574171+574087067
3038+572139659+571046685+570434382+570116412+570065184+569872149+569409022
3028+569278911+569786382+570392473+570638686+570614564+570284960+569340556
3018+567900375+566569412+565553860+564362267+562798371+561570048+561244952
3008+561348505+561175205+560782191+560584343+560628993+560730292+560888851
2998+561177581+561219490+560291044+558225889+555894238+554493407+554424331
2988+554884899+554542625+552860922+550693310+549243749+548685414+548291669
2978+547733456+547517395+547969557+548330471+547432969+545287652+543350964
2968+542970010+544109765+545652281+546326534+545321033+542715818+539617202
2958+537504230+537099094+537825245+538551275+538771721+538810219+539035843
2948+539175274+538734929+537952738+537491926+537276596+536537470+535039178
2938+533430510+532342653+531838045+531685517+531737720+531981070+532257862
2928+532033090+530854594+529050028+527345604+525932103+524579881+523326705
2918+522233062+520811886+518694955+516663242+516016644+516946003+518337757
2908+519164964+519313959+518980701+518231707+517479911+517475890+518234326
2898+518462265+516789394+513536911+510511239+509083333+509186459+509969870
2888+510678051+510871848+510370498+509311972+508179283+507575720+507663040
2878+507861862+507506248+506693721+506051326+505878697+505963458+505916464
2868+505355053+504172659+502824579+501907920+501375748+500674754+499690603
2858+498909813+498542138+498195874+497558231+496690820+495608568+494290153
2848+493083272+492476481+492519821+492727445+492391171+491149081+489571296
2838+488840455+489455804+490536656+490656107+489186871+486751513+484592643
2828+483521934+483315132+483213802+482923214+482661559+482425275+481931662
2818+481186018+480511460+480139552+480122009+480351562+480450729+479964395
2808+478784193+477245515+475823547+474740199+473844342+472962465+472305237
2798+472203755+472475460+472522821+472102699+471500142+470938518+470384631
2788+469982905+470023108+470279615+470006235+468914967+467524614+466206717
2778+464763095+463261452+462333311+462201798+462194732+461693900+460958703
2768+460562552+460495029+460234044+459520563+458712544+458207844+457718616
2758+456563267+454736072+453115982+452392724+452322674+452260268+451946288
2748+451576512+451418381+451472289+451403061+450904452+450142484+449525185
2738+449016038+448118232+446684752+445286967+444471059+444011557+443306787
2728+442285387+441448921+441114018+441058130+440916658+440553308+439956446
2718+439125949+438221473+437500926+436931901+436186715+435230858+434562361
2708+434579844+434951539+434895498+434053733+432903379+432157765+431922974
2698+431747664+431326751+430680427+429756093+428424034+426908259+425794454
2688+425470393+425733144+426014687+425871449+425193328+424133370+423035615
2678+422248001+421789992+421392957+420947922+420602206+420431131+420375943
2668+420395161+420371648+420092908+419553243+418989914+418517163+418048981
2658+417574891+417156749+416710008+416141989+415642010+415511990+415736548
2648+415920598+415651360+414895940+414062550+413572165+413403099+413267414
2638+413093719+412959099+412705851+412094918+411246939+410539092+410157804
2628+410019956+410001316+410026656+410012372+409888839+409649723+409274008
2618+408683846+407897451+407104295+406482641+406060631+405791515+405610906
2608+405428500+405200074+404967140+404789973+404719374+404758359+404768348
2598+404574186+404232674+404000319+403974583+403947629+403710583+403388685
2588+403314188+403537863+403645619+403237406+402479001+401942017+401917377
2578+402141418+402243357+402166027+401986910+401631510+401067328+400572405
2568+400477501+400718384+400873714+400637917+400131847+399725461+399656568
2558+399883837+400208172+400408425+400348577+400098070+399866081+399734172
2548+399579208+399292426+398918630+398564021+398317565+398259301+398418164
2538+398700346+398931391+399035645+399146051+399402650+399666954+399676670
2528+399468162+399330680+399391898+399575309+399815157+400005999+399970304
2518+399695736+399350386+399031472+398789402+398758854+398939493+399079868
2508+399081604+399222924+399681055+400141562+400204273+399956781+399811959
2498+399897147+399915634+399616822+399169107+398958376+399106000+399320508
2488+399292518+399101736+399042894+399171330+399271655+399185949+398977686
2478+398826559+398835422+398913209+398917412+398898650+398957950+398918660
2468+398568224+398209352+398452093+399380355+400367552+400826018+400772628
2458+400534882+400295126+400150121+400288456+400778079+401320393+401505175
2448+401270657+400899876+400618425+400399745+400146192+399886091+399713888
2438+399603543+399384589+398960813+398524397+398414082+398733635+399243239
2428+399656720+399902872+400044466+400119481+400165014+400265308+400457430
2418+400669379+400832993+400991368+401236363+401589906+401966169+402219387
2408+402272626+402229377+402277803+402503367+402881518+403348513+403759071
2398+403950400+403994502+404179679+404624379+405093505+405275546+405116470
2388+404810318+404524907+404229628+403737446+402786524+401155774+398876478
2378+396305009+393870017+391774192+389951839+388179222+386205712+383945116
2368+381651170+379880167+379107021+379212218+379575903+379913091+380668968
2358+382459159+385439053+389245698+393431287+397697951+401407957+403399436
2348+402905884+400523704+397933078+396209466+394989853+393913936+393307845
2338+393218759+393223175+393069734+392825227+392709399+393027856+393942047
2328+395245477+396530298+397539089+398356275+399305949+400541004+401685692
2318+402116717+401720901+401138353+401094008+401728728+402754879+403953598
2308+405221668+406362884+407145564+407529106+407729634+408046720+408602069
2298+409296576+410041063+410862940+411737172+412503130+412998389+413180490
2288+413158043+413137059+413224713+413303810+413197119+412881891+412495273
2278+412221283+412161466+412213791+412153121+411915832+411646563+411433914
2268+411238350+411076290+411039011+411153041+411395112+411771954+412255212
2258+412749526+413194561+413587728+413953819+414397057+415018071+415671035
2248+416026862+415953461+415622609+415235777+414846356+414413930+413881301
2238+413241921+412595476+412074329+411707842+411432848+411230493+411174056
2228+411305112+411518279+411638218+411577457+411379731+411174239+411103579
2218+411203477+411390787+411679974+412269039+413218165+414195555+414780630
2208+414934742+414973483+415132620+415377980+415645695+416043948+416703034
2198+417553144+418386686+419094564+419735619+420403811+421120155+421886296
2188+422766772+423763045+424611420+424922841+424572618+423792893+422949726
2178+422447463+422682437+423740142+425184130+426369265+426934026+426935701
2168+426697041+426613955+426922209+427551142+428278877+428980541+429631860
2158+430172073+430534448+430798417+431184152+431848385+432725937+433625388
2148+434469590+435386370+436561486+438031971+439592609+440914374+441871631
2138+442732584+443902888+445528550+447435604+449375002+451258878+453223769
2128+455456650+457941773+460497009+463036985+465596119+468133811+470505300
2118+472558516+474207722+475553091+476860419+478283331+479810954+481598281
2108+484010796+487236416+491235152+496094628+501975656+508624105+515292198
2098+521260820+526205179+529922920+531931182+531660908+529072505+524774500
2088+519396802+513144079+506137458+498843599+491846116+485388479+479431035
2078+474021418+469337708+465473987+462423311+460173100+458635488+457607632
2068+456909927+456408242+455877228+455094579+454161382+453475099+453247556
2058+453252977+453206013+453175160+453342002+453594794+453769220+454066083
2048+454812488+456078852+457841875+460116420+462700925+465342200+468367689
2038+472597196+478496255+485847981+494169514+503023218+512002923+520725206
2028+528768546+535613289+540938967+544923937+547957618+550170428+551441939
2018+551646365+550680701+548508460+545358860+541675535+537759215+533571342
2008+528946901+523977141+519107706+514768767+510980792+507493365+504225410
1998+501365606+499203843+498064179+498064575+498678919+498967315+498545975
1988+497836058+497314393+497180931+497659895+498940970+500774287+502544468
1978+503856091+504910018+506178758+507709365+509072064+510223575+511858192
1968+514373133+517038592+518879280+519926628+520907155+522255052+524024897
1958+526238011+528771714+531256868+533471078+535551522+537674667+539916410
1948+542517483+545879062+550074123+554385346+557540489+558950457+559520060
1938+560509054+562162494+564041862+565998529+568128192+570296960+572342684
1928+574432387+576951652+580093273+583479766+586430057+588793810+590749807
1918+591752750+591131249+589767697+589461423+590905198+593245073+595143873
1908+595972847+596088826+596063608+596024928+595985151+596214186+596906043
1898+598052011+599684131+601590240+603213832+604448064+605585200+606188610
1888+605499982+603988654+602836411+602390158+602272473+602239702+602176290
1878+601832007+601075338+600214689+600017390+601359621+604393973+607542842
1868+607920506+604418034+599255604+595083081+592492729+590592894+588705729
1858+586857975+585173774+583641613+582336661+581488743+581285048+581729900
1848+582914061+585024779+587145974+586762097+582942142+578295285+575351330
1838+574087433+573085099+571681527+570844087+571906298+574384996+575694882
1828+574447920+572106034+569716454+566515016+562439163+559040183+557454053
1818+557323515+557677910+558147798+559082457+560525257+561551043+561276383
1808+560158435+559401401+559768405+561458332+564117699+566608640+567784273
1798+567923278+568618729+571288391+575744405+579257294+578673193+575111574
1788+572681242+573465505+576401785+579579771+582490711+585306809+587492817
1778+588813851+590680366+595170858+602623031+609640646+611528055+608465074
1768+604260755+601485774+601232434+603731781+607368264+609412403+609602880
1758+609913479+610972584+612457902+615425065+621121221+628161374+632848861
1748+633568007+632397978+631802304+632757003+635193061+638243493+640366151
1738+641477154+644288501+650966157+658194534+659480603+655425096+650857305
1728+648033410+647363299+648586749+650944350+654421239+660556094+670548183
1718+682077915+688894759+687905278+682935579+678475970+676847018+679115015
1708+685158804+692839160+698860655+703060223+709435809+720312364+730610178
1698+733712204+731161629+726692031+722199163+719712425+720418597+723602979
1688+728620191+737068789+749517281+758662914+756628703+749203393+744719663
1678+745801306+751556730+759065736+765429626+770842716+776411927+779769547
1668+777869346+773612336+772229658+774983563+778782320+780087516+779446766
1658+780220186+785417824+796670033+810796330+816198272+811445547+808651805
1648+811885405+815603572+812405790+804151993+797610174+796214460+800495774
1638+809049692+817381276+818264706+810527823+801495976+796317830+795497202
1628+797195900+799154761+800274475+799685014+796602419+792980799+792217186
1618+794609995+795779171+791897511+785886006+781766052+779642298+777577448
1608+774541391+771222634+768515084+766561158+765289342+764730703+764742764
1598+765127555+765846945+766643939+766916101+766453340+765825016+765669078
1588+765953057+766138112+765831291+765059088+764209709+764230724+766557625
1578+771709029+776755175+776511399+771951222+769198961+770645843+773293819
1568+773230956+771006025+769201824+769185865+772690774+782482518+796986236
1558+802754574+793441123+780828226+772232643+768335450+767609359+767992445
1548+768769155+771397273+777611682+787370959+798780873+807531420+807081147
1538+798940467+792559886+791988821+794636310+795671537+794580757+795563659
1528+801125865+809441733+817343570+824809815+832944586+839407583+842134381
1518+843675496+845323514+844993911+842993994+843383050+849235631+860512937
1508+874409224+883269294+879868851+870589756+864705317+864943611+870192478
1498+876901627+881033337+882236808+883916318+888715764+896161846+902914974
1488+905723336+905287743+904959175+907170766+911825724+916400033+918687096
1478+920019155+923867252+931620643+940286886+944287937+942280894+939253913
1468+938950502+941055311+943093542+942724467+941264976+943068629+950758121
1458+961702412+967650262+964881677+958893197+954196818+952385490+953402260
1448+954718543+953728757+951600740+950904436+952094749+954957568+960190292
1438+967798892+974700649+976695388+975152080+975162618+978401152+982051341
1428+983299948+983163258+983657207+984640901+985929163+989425483+995461780
1418+999205776+997121920+993120139+991713582+993013418+994706634+995213375
1408+994390980+992598413+990081523+987122217+984845814+984978545+988421140
1398+994269579+1000043216+1002986502+1001906320+998494853+995944765+995955790
1388+997416194+997635910+995814958+993997721+993872178+995361456+998247543
1378+1003088654+1009661904+1015675602+1018662319+1019418318+1020935068
1370+1023822252+1026177173+1027191994+1027810876+1028394673+1028716175
1361+1029550204+1031914384+1035574440+1039012527+1040538535+1040056099
1352+1039552587+1041232341+1045030672+1049144656+1052542540+1055184608
1344+1056839266+1056982047+1055438131+1052715900+1050561142+1051385181
1335+1055443004+1059811729+1061416194+1060824357+1061330793+1064673246
1327+1069448996+1073052281+1073741823+1071418090+1067853668+1065410544
1318+1065210869+1066897324+1069155270+1069916203+1067668856+1063701795
1310+1060816317+1060435850+1062501675+1065629346+1067273648+1065546016
1301+1061348458+1057962879+1057616524+1058541193+1056742657+1051383110
1293+1046016741+1043254065+1041796645+1039185765+1033838036+1025497864
1284+1016420820+1010010696+1007163654+1005158621+1000571886+993031753+985286159
1274+979740278+976162211+972794906+968660271+964005069+959129116+953633854
1264+947124806+939950886+932914144+926584183+921062240+916232764+911910638
1254+907607273+902564660+896669744+890785061+885272377+878814375+869913311
1244+859193182+848922170+840800617+834948583+830104732+824673673+818530350
1234+813297017+810122930+808185389+806339219+804971281+804911464+805649250
1224+805850021+804911281+803332400+802065275+802004544+803752948+807070060
1214+810675477+813305606+814963066+816515815+818516158+821289616+825325753
1204+830588508+836032237+840243013+842501751+843384207+844251191+846186600
1194+849552443+854294325+859683719+864317297+867676318+870707990+873969305
1184+876736733+878688223+880661886+883505273+887726405+893825564+901647666
1174+909899453+917277311+923836247+930514817+937635803+944670109+950547117
1164+953727113+953511783+952095358+953366504+958393949+963937455+967065918
1154+969288108+972539007+974279675+971330664+966075036+963967424+966397330
1144+969681306+970818868+970929426+971583943+971531191+969148007+965828275
1134+964863220+967737430+973071758+978812197+983840678+987333405+988389708
1124+987471374+987373486+989980346+992765378+992563084+991372039+993414839
1114+998689045+1002794624+1002758807+999713613+996053313+993842574+993948929
1104+994988421+995864054+997524194+1000154993+1001697265+1001398118+1001581285
1094+1002989304+1002343315+997691706+992523733+990364954+989512468+986686624
1084+982527502+979882694+979411466+979414329+977137743+970920167+963165923
1074+958639188+958447919+958482457+955238928+950014914+945222047+941812529
1064+941158316+944110739+948342592+950729736+951532577+952182282+951348984
1054+947621618+942988284+939852511+937801488+936036333+935688273+937691905
1044+941274418+945793722+951216314+955552877+955828024+952698708+950667116
1034+951681511+952193551+949461636+946022818+944925885+945061723+943845460
1024+942326579+942564751+942987918+941505402+940016308+941784630+946705781
1014+951538060+952693591+947830673+937690443+927157380+921035743+918900538
1004+916050511+909517890+901096276+893521484+886654568+879151898+871784882
994+866692259+864227754+862371351+859211456+854768903+849926087+844932205
984+840113084+837012581+836947525+838838528+839757532+837530347+832326922
974+826232026+821682996+819466288+817975976+815156101+810809244+806289940
964+802825842+800668952+799219147+798114843+798097605+799863735+802695853
954+805474002+808296008+811939009+816536708+821634814+826771964+831717237
944+836734266+842437427+848960606+855750526+862470213+869307159+876168105
934+882303995+887246344+891868958+897590453+904487155+910953624+914998959
924+915412928+912205521+906728045+901292966+898239670+898541376+900580642
914+901210489+899048847+895554780+892524388+890624370+890176229+891266156
904+893336672+895642983+897507245+898219691+897912686+898193559+900298368
894+903072740+904551662+905074180+906888309+910654721+914344929+915993069
884+915922409+915942145+917086712+919208761+921798991+924019841+925105200
874+925129748+925380834+927308689+930547832+933239971+934169452+934145330
864+935122507+937966199+941488773+943422354+942278701+938869243+935971643
854+936149450+940168957+946684096+952341206+954273995+953768960+954053610
844+954758868+952994870+949792214+949681839+953543275+956877870+956098907
834+953719011+955362948+963146613+972872022+977560179+974735857+969064311
824+966255158+966849370+966523421+962081721+956373992+955230095+961526433
814+973014865+984741591+993027855+996766307+996772215+995336968+994918309
804+995676318+995890186+995271547+995086431+994860015+992502779+988270196
794+984033470+979675344+974228081+968073978+961563346+954140655+945718615
784+937382768+931648846+931074796+934527381+936766017+934276356+928530799
774+921671255+914695853+910461137+912009988+918220681+925073829+930296686
764+934481208+937851133+939013913+938058787+937220859+937538524+938179579
754+938811375+939679151+940147577+940174927+941211311+943747511+946122716
744+947816481+951421471+958617624+967253045+973400996+974899411+972992570
734+970630218+968944251+965951260+959739836+952917327+950879705+955173507
724+960370901+960275510+955388715+949949493+947138207+947088806+948381515
714+951180984+955846176+960240729+960779997+958318112+957833118+962096645
704+970468919+978846979+979521171+969946402+958704670+953019784+951748760
694+950404274+947490227+943742577+937267641+927630374+920001308+918824335
684+921528534+922169285+918721269+914977152+916079201+922317853+929932727
674+935752049+936163216+927100182+910296549+899005964+905612230+919169410
664+921477306+912209176+903276375+903267481+909726945+913849275+910872243
654+903021268+894704243+890739802+894123067+902071259+909593727+915977293
644+920380191+917262205+906200351+895209948+889361996+888326160+892696530
634+903240253+915429984+921822260+920600454+915090817+910556832+907892470
624+899671080+883188278+868437069+865707529+873883965+881727935+881277174
614+876464388+873735214+871830141+866761639+862384386+865464545+874165813
604+877864001+868221922+850334574+837775219
##END=
