##TITLE=<SNM>
##JCAMP-DX=4.24
##DATA TYPE=INFRARED SPECTRUM
##DATE=29/4/2025
##SAMPLING PROCEDURE=Instrument type and / or accessory
##ORIGIN=Admin
##XUNITS=1/CM
##YUNITS=ABSORBANCE
##RESOLUTION=4
##FIRSTX=4497.3318
##LASTX=599.83466
##DELTAX=-1.4281778
##MAXY=2.1079562
##MINY=0.50321835
##XFACTOR=1
##YFACTOR=1.9631872e-09
##NPOINTS=2730
##FIRSTY=0.5084275
##XYDATA=(X++(Y..Y))
4497+258980656+257786855+257763416+258420553+259401006+260571429+261420054
4487+261464290+261213659+261612483+262552495+262944852+262260451+261078126
4477+260137477+259690682+259736497+260221699+260903610+261317008+261054657
4467+260184749+259353886+259272943+260198199+261975299+264087768+265502051
4457+265172481+263154162+260731159+259229435+259041226+259558975+259810396
4447+259445880+259006129+259003336+259143847+258858209+258374404+258727383
4437+260462129+262638903+263689186+263168948+262018351+261268977+261205188
4427+261634738+262350198+263288328+264402613+265249052+264963171+263139315
4417+260519785+258358677+257350079+257503099+258637089+260350096+261603617
4407+261213264+259289216+257495448+257277364+258386063+259490571+259699244
4397+259129152+258624216+259224577+261133657+263018022+263234983+261842195
4387+260334187+259627865+259485866+259617572+260146190+260885940+261096404
4377+260477431+259797523+259821903+260167049+259972889+259106655+258058496
4367+257342641+257456768+258618599+260079548+260498592+259476302+258057768
4357+257456434+257820799+258439316+258755103+258760386+258621848+258447119
4347+258376924+258468311+258576306+258612618+258678987+258804227+258904753
4337+259035458+259242673+259233412+258718578+258114270+258301628+259543400
4327+261143221+262198848+262216609+261134780+259443117+258090406+257639057
4317+257790407+258070641+258449184+258992831+259365544+259079967+258292065
4307+257966411+258840478+260536696+262090276+262839893+262386753+260637373
4297+258381023+256868156+256626269+257353905+258700028+260342445+261598304
4287+261834089+261179867+260226253+259158937+257840807+256656569+256363584
4277+256943756+257478203+257412320+257228179+257673577+258885291+260301427
4267+261156155+261136784+260556673+259910983+259582657+259846222+260576864
4257+261090878+260895261+260308289+259834594+259438016+258916654+258586902
4247+258992497+260049369+260920248+260877986+260210374+259957557+260654315
4237+261642814+261891957+261252612+260452838+260027023+259821721+259578163
4227+259490541+259915385+260736260+261299186+261092335+260341139+259604547
4217+258973035+258215797+257585409+257703908+258516585+259099338+258793692
4207+257974730+257443592+257540808+258064386+258728324+259428544+260045634
4197+260292683+260028298+259577647+259471505+259840970+260256857+260241039
4187+259801925+259343229+259031480+258469374+257365563+256327242+256371903
4177+257738459+259678811+261248938+261896511+261652802+261209742+261375575
4167+262096986+262452394+261869794+260854668+260158881+259798130+259467467
4157+259370827+259818472+260454508+260676904+260487511+260348730+260521940
4147+260979422+261600885+262218158+262672118+262798086+262423763+261729343
4137+261322564+261412858+261397344+260933425+260790151+261768023+263313862
4127+264100034+263653967+262589718+261548147+260791517+260505909+260667340
4117+260862532+260834083+260839700+261105664+261373814+261222888+260533508
4107+259676291+259419071+260317154+261970502+263188379+263117607+262021569
4097+260813681+260115404+260000093+260348183+260984250+261579905+261902250
4087+262088637+262358274+262725857+263203317+263803557+264220233+264099032
4077+263657884+263417697+263420733+263279128+262855104+262427133+262239076
4067+262185519+261956384+261417564+260773361+260322346+260174032+260234784
4057+260388503+260647757+261159859+262060553+263271720+264448610+265173726
4047+265195070+264531223+263397021+261991056+260489606+259268874+258896464
4037+259754471+261616916+263578429+264581258+264300812+263438646+262924874
4027+262976731+263161327+263221199+263352208+263576637+263444961+262700779
4017+261825709+261492253+261724455+261983557+262001956+262189588+263011313
4007+264132338+264556362+263732208+262219493+261112161+261057997+261883578
3997+262900373+263478298+263521836+263496029+263884955+264660349+265398398
3987+265730580+265489755+264720464+263877304+263648836+264248985+265212952
3977+265944626+266057995+265391567+264288364+263631773+264004517+264914290
3967+265307163+264881196+264434340+264703644+265343050+265549324+265355528
3957+265424630+265715946+265420046+264442811+263990430+265128396+267378007
3947+269331748+270304641+270617209+270608374+270181071+269175357+267736056
3937+266417896+266072598+267182815+269037669+269985545+269128723+267377339
3927+266214962+266174490+266819544+267532181+268039971+268526448+269403187
3917+270538331+270816105+269425898+267264244+265990077+266220700+267429317
3907+269312165+272270435+276259011+280004030+282127794+282233177+280365237
3897+276978389+273494081+271520666+271479284+272127221+271838426+270991107
3887+271619218+274279038+276712941+276993144+276060267+275068489+273804615
3878+272575200+272560414+273922295+275684153+277426337+279067176+279528483
3868+278416475+277389327+277690388+278327001+277751414+276301395+275425506
3858+276072958+278939477+284513300+290142928+290081325+284576998+278498025
3848+274739040+273831879+275022128+277120084+279352358+281786048+284465998
3838+286315053+286287759+285099028+283833514+282352618+280386004+278730835
3828+278023298+277724119+277780227+279705975+283918252+287165257+286867869
3818+285176449+284168792+282850541+280243064+277647761+276885089+278788339
3808+282447527+285387580+286659288+288017222+290226664+291230708+289966924
3798+288161862+286742781+285229338+283731501+283050530+283645912+285676679
3788+289091065+292978812+295786066+297161609+298742575+302151284+306828633
3778+310623536+312595918+313952425+316577238+321619985+328577822+335466982
3768+340787594+344527998+347030851+348894419+351539210+356015144+361314138
3758+365312218+368121688+372419128+380352773+391261083+401393879+407542803
3748+411051187+415066573+420650051+425328312+427360536+429234518+434064007
3738+442518468+451987780+458654879+461149383+460726087+459330233+458854231
3728+460564505+463855595+466238126+466036407+463842205+460609258+456825741
3718+453461602+451864180+452913492+456560840+460980059+462880607+461187638
3708+458152797+455997579+455362272+456082439+457724310+459595286+461146347
3698+462330766+463433332+464868595+467223224+470974376+475604363+479148239
3688+479966715+478721391+476956983+475560643+474959856+475498615+477812591
3678+482707721+489060096+492717887+492283996+491214828+490813483+488348339
3668+482832262+477187181+473705970+471947300+470330234+468717904+468650685
3658+470816104+473540077+475267080+477511408+482599058+489572805+493256221
3648+490296220+484388849+480208451+478928242+479373245+479766483+479099631
3638+477672504+476389077+475999635+477399800+481951121+490240781+498915633
3628+501290483+496935994+492155052+491429602+494930670+499573529+501479603
3618+499742580+497063329+496153830+497622763+500472857+503316362+505357027
3608+506828693+508512280+510660120+512879339+514836116+516301224+516815360
3598+516483694+516553525+517855047+519367094+519900904+520443579+522729046
3588+526050375+527619076+526732287+525622283+526247905+528254171+529710353
3578+529460784+528331956+527552646+526876017+525830318+525810644+528455162
3568+532204644+533008122+529869385+526007323+524224941+524665967+526046975
3558+527685445+529996901+533060586+535750767+537073542+537693699+538896122
3548+540405254+540335606+537703718+534123834+531786388+530974592+530640437
3538+530444850+530992748+532252250+533257447+533561059+533513331+533000167
3528+531327813+528808808+526884579+526145649+525825763+525402225+525258799
3518+525810097+526815052+527571348+527627941+527286135+527236586+527633163
3508+527976427+527944548+527594726+526947791+525947572+524544522+522804099
3498+521401838+521688326+524297565+527982317+530752834+531837638+531654803
3488+530447704+528324305+526309599+525893712+527287107+528762963+528338453
3478+525859343+522750542+520308047+518923396+518591670+519149587+519841578
3468+519777273+519190817+519140903+519810671+520299425+520112036+519702706
3458+519382275+518721191+517500004+516294362+515524646+514813405+513665207
3448+511960003+509692813+507102520+505209259+505269222+507075954+508533745
3438+507891000+505821583+504287615+504121661+504583606+504743215+504317005
3428+503476365+502684819+502452131+502971398+504105874+505434417+506258966
3418+506076586+505186124+504517055+504651889+505431078+506383993+507043771
3408+507001630+506181939+505362735+505593844+506785489+507822535+507941096
3398+507043225+505286619+503267389+501904416+501487588+501569016+501931863
3388+502834044+504317886+505823435+506626579+506575147+506144504+505710765
3378+505288350+505045521+505241928+505603134+505664828+505879269+507436189
3368+510526166+513451768+514453990+514216019+514880321+516685232+517691704
3358+517144110+516873896+518368880+520774152+522548215+523195029+522904412
3348+521983073+521104481+520986133+521463593+521773338+521889196+522321782
3338+522694435+522048410+520298210+518346352+517142167+517123161+518039886
3328+518946045+518950478+518253568+517870167+518163213+518129937+516853676
3318+515204275+514720379+515300034+515679306+515707238+516244388+517245942
3308+517747022+517423190+516837949+516184941+514935154+513149735+512317050
3298+514063485+517965987+521246754+521506949+519383793+517308121+516481934
3288+516473554+517014893+518509877+520819936+522856442+523708012+523582802
3278+523772438+525626230+528877485+531123908+530061085+526393335+523290060
3268+523192783+525760366+528354363+528567923+526555342+524334848+523079232
3258+522169915+520704564+518921635+517873568+518170864+519286151+519999942
3248+519663966+518919874+518791568+519468986+520367677+520930876+521078006
3238+521042666+520967735+520848051+520718530+520453052+519472204+517376373
3228+514946630+513669397+514107508+515498657+516877114+517873082+518528094
3218+518937301+518990919+518112328+515674205+512129722+509233236+508468469
3208+509413733+510155396+509373323+507591517+506304113+506391067+507444751
3198+508257337+507946530+506655057+505133174+503979996+503283329+502596134
3188+501446934+500125798+499527137+499954895+500639479+500702387+499939502
3178+498436048+496362836+494449111+493678575+494141826+494861810+494932400
3168+494216180+492936731+491407742+490170039+489644032+489527142+488951130
3158+487450954+485620389+484514058+484425313+484639723+484501792+484159318
3148+483968286+483860322+483720326+483636317+483328941+482227438+480551562
3138+479366961+479138857+479121764+478536887+477493798+476385464+475207573
3128+473851886+472545050+471663059+471219634+470775997+470141175+469974948
3118+470987675+472681736+473807923+473941087+473497602+472521703+470831315
3108+468992187+467827654+467292235+466821789+466385317+466282727+466338713
3098+466191522+466030790+466332640+467130623+468018565+468579366+468500397
3088+467619650+466139968+464569234+463251499+462126678+461180837+460832109
3078+461467720+462820461+464082757+464503289+463883739+462758008+461991875
3068+461880115+461771878+460948938+459529949+458121646+457113322+456603497
3058+456406210+455949214+454815316+453556663+453307246+454395360+455844680
3048+456401899+455764922+454621095+453771863+453503653+453565802+453552747
3038+453370944+453205111+453034633+452562001+451621382+450338532+449044630
3028+448231224+448200438+448591611+448701033+448292554+447628737+446849579
3018+445932247+445155547+444926503+445150750+445259504+444890160+444217691
3008+443613808+443247196+443005339+442590485+441680621+440231392+438727512
2998+437956582+438277287+439149350+439712671+439751048+439688747+439673900
2988+439151749+437703309+435935712+434956626+435083050+435533670+435444256
2978+434729494+433812678+433094576+432835413+433082097+433534600+433706930
2968+433320068+432479549+431458504+430437397+429503852+428768930+428381187
2958+428377483+428510951+428350765+427736984+427058503+426795970+426945772
2948+427187083+427261437+426945469+426200102+425498273+425349352+425576180
2938+425690885+425627308+425488710+425086212+424291994+423413555+422866355
2928+422754171+422836024+422775545+422518872+422331058+422286639+422051371
2918+421430819+420720671+420206050+419703299+418941568+418113012+417690020
2908+417818873+418196596+418512018+418796836+419168821+419377584+418941537
2898+417741330+416241793+415040796+414355211+414035599+413935194+414083600
2888+414470492+414803463+414744866+414390247+414128504+414025913+413743585
2878+413133143+412521336+412152569+411737502+410992712+410295862+410226184
2868+410704949+411172480+411377175+411447188+411420895+411164981+410590912
2858+409758227+408894998+408195295+407540526+406767349+406099919+405777271
2848+405523665+405031935+404595827+404626826+404982204+405321247+405664996
2838+406061998+406105961+405353126+404003390+402713648+401902458+401558497
2828+401509008+401539855+401401621+400993961+400470353+399991375+399514401
2818+398966018+398428079+397996950+397644032+397373696+397285922+397332314
2808+397295425+397126587+396996520+396987502+397031647+397070176+397041667
2798+396850148+396507310+396131925+395755112+395332940+394864498+394293040
2788+393512728+392688696+392249127+392318593+392468213+392226629+391563906
2778+390784352+390222883+390033369+390052375+389983637+389802199+389712634
2768+389705377+389509639+388990342+388314867+387728441+387319658+387015075
2758+386738940+386485455+386211202+385833995+385409182+385107604+384961871
2748+384774117+384287094+383425414+382429052+381718266+381536858+381721940
2738+381831817+381505526+380737145+379827920+379125484+378858913+379066917
2728+379500414+379765953+379740115+379642868+379640986+379646421+379523337
2718+379246018+378837812+378321399+377731906+377112508+376548519+376209173
2708+376207533+376353510+376249553+375777407+375293602+375160741+375275931
2698+375271620+375006962+374610475+374153661+373583236+373010655+372753465
2688+372874363+372960498+372643042+372049602+371475382+370967865+370492287
2678+370169852+370120120+370237314+370252525+370014706+369679853+369505641
2668+369479560+369380735+369159432+368946084+368767530+368556186+368330117
2658+368140663+367953548+367711691+367389832+366960252+366472044+366153799
2648+366248829+366687457+367017543+366795421+366071550+365324544+364884520
2638+364670261+364528808+364480140+364506038+364421239+364116352+363749225
2628+363589009+363712943+363906648+363953130+363928538+363966823+363913236
2618+363614027+363328207+363342962+363382917+362939705+362101191+361544610
2608+361665386+362111392+362313840+362168076+361951571+361817132+361655671
2598+361343467+360945948+360673305+360629281+360642640+360494387+360221501
2588+359967955+359719388+359468301+359408307+359639599+359884158+359839588
2578+359665982+359778228+360239869+360653024+360633957+360187223+359616797
2568+359219005+359049590+358948761+358822549+358791095+358952556+359174192
2558+359251917+359126677+358888524+358684619+358591865+358515659+358312300
2548+358037774+357956922+358270341+358854246+359305778+359332374+359064831
2538+358852060+358820515+358804454+358648307+358439270+358436811+358779862
2528+359275811+359557198+359440854+359071359+358779011+358833813+359198360
2518+359490131+359340693+358793524+358224040+357940983+357990654+358284792
2508+358758123+359308449+359650104+359444498+358707875+357953613+357743817
2498+358145101+358738904+359110464+359170974+359034652+358826770+358664854
2488+358622318+358638864+358590347+358450959+358296755+358223372+358339746
2478+358716498+359232881+359595818+359630035+359447564+359258384+359154731
2468+359157038+359274263+359369475+359182785+358695488+358278204+358284185
2458+358656990+359054053+359205191+359090821+358913633+358922438+359176682
2448+359486578+359599734+359428224+359126313+358983676+359178382+359579635
2438+359836946+359730895+359445925+359401446+359722454+360036723+359995917
2428+359797993+359877235+360244727+360484489+360351204+360076131+359990513
2418+360058006+360015561+359874746+359937927+360336144+360918259+361565893
2408+362238757+362770867+362978234+362940070+362941982+363155452+363465864
2398+363638528+363660085+363843162+364541712+365882704+367879163+370733476
2388+374983310+381406214+390809734+403855319+420932046+442009767+466631030
2378+494284037+524675379+557059324+589410053+619519400+647055639+672538977
2368+694495016+710858711+722348104+730092811+731767229+725196466+712982778
2358+698067189+679271383+653936996+621932020+588114360+560537134+545176511
2348+544181211+556923427+579275436+602891867+620343827+630516942+635585859
2338+636996014+636029072+635053871+635872287+637486104+637251776+634108789
2328+629007324+622717281+615147211+606106021+595570515+583841998+571745018
2318+560056638+548991088+538535735+528619658+518744994+508272397+497325588
2308+486676745+476711999+467182662+457903623+449156997+441402877+434853762
2298+429292417+424253162+419431901+414840534+410586479+406706505+403217006
2288+400131036+397454639+395302610+393881373+393170709+392743649+392122946
2278+391259231+390464710+389941921+389582050+389175788+388640186+388049419
2268+387537651+387163723+386881243+386641784+386387176+385959539+385272192
2258+384541672+384049973+383763212+383490235+383262982+383265927+383558699
2248+384055044+384566508+384810703+384653341+384336826+384204997+384274312
2238+384316362+384226129+384060873+383851745+383605152+383368760+383133734
2228+382807686+382350477+381770518+381015314+380093276+379243832+378734918
2218+378555210+378487657+378398425+378319031+378327471+378442843+378626711
2208+378853934+379123905+379418469+379759971+380236095+380811804+381255562
2198+381428864+381462200+381516274+381651684+382017658+382789742+383803198
2188+384596231+384936307+385037379+385201390+385516175+385954377+386489159
2178+387007393+387363105+387644583+388130756+388851257+389457691+389674743
2168+389627774+389602878+389714880+389895681+390023805+390009748+389880986
2158+389808423+389961261+390320707+390716435+391051652+391375606+391732835
2148+392103363+392479780+392819158+393015382+393156166+393631136+394726932
2138+396315701+398120915+400040074+402080982+404261005+406693723+409598558
2128+413138123+417282482+421823085+426513399+431211394+435898702+440609206
2118+445358238+450089661+454699822+459126722+463313435+467074242+470157297
2108+472497960+474338181+476092874+478083382+480315565+482549812+484635169
2098+486665116+488785540+491026467+493393605+495940816+498566237+500811961
2088+502037610+501788861+499934068+496533587+491707559+485583591+478325664
2078+470253693+461886400+453799886+446474558+440262391+435382745+431843180
2068+429347826+427417524+425762841+424442585+423505852+422720379+421875944
2058+421073164+420494450+420155043+420033264+420203742+420718941+421474417
2048+422258494+422935882+423573467+424346067+425374643+426744144+428592045
2038+431035785+434098801+437829945+442360985+447683205+453491174+459481249
2028+465736651+472533877+479807380+487127274+494191011+500991699+507450945
2018+513183740+517746294+521018316+523282652+524870358+525698915+525268333
2008+523208874+519739200+515497564+511055787+506723522+502685123+499054414
1998+495779112+492756810+490078895+487900937+486102433+484367657+482601184
1988+481050032+480090346+479982958+480652483+481665210+482569517+483230540
1978+483797838+484524351+485623728+487104837+488816812+490756799+493042509
1968+495447842+497420346+498830075+500265885+502330171+504985497+507732363
1958+510212536+512462844+514635793+516695433+518544246+520351646+522496298
1948+525156725+528196970+531456059+534801920+537903312+540447031+542573770
1938+544576453+546412271+548002103+549678343+551841454+554396407+556925735
1928+559322323+561950143+565031740+568111758+570652745+572936511+575472033
1918+577925215+579698853+581098321+582806440+584876160+586915944+588506444
1908+589251932+589197343+589136863+589858062+591303193+592867461+594237539
1898+595576891+597033377+598413899+599502407+600422411+601298816+601854304
1888+601858312+601666187+601815199+602458127+603374427+604216342+604778449
1878+605101431+605153045+604755313+604261034+604704428+606613781+608964646
1868+609941425+608973693+607036469+605001846+603004810+601082888+599465670
1858+598182607+596971986+595717645+594623247+593910731+593545972+593319903
1848+593226694+593528241+594003151+593487800+591305865+588420158+585977542
1838+584192123+582846577+581961913+581830207+582582799+583633417+583826392
1828+582820224+581423671+579956680+577792233+574783745+571798514+569697522
1818+568660992+568312142+568195859+568290768+568857793+569561565+569348794
1808+567817134+565990545+565223319+566019510+567927405+569872341+570724883
1798+570323751+569820667+570603135+572938515+575336622+575811592+574533691
1788+573425387+573602757+574788178+576499333+578762272+581369324+583577613
1778+585192038+587107038+590402256+595144791+599567562+601311872+600460909
1768+598920566+597936803+598167791+600178793+603476319+606249386+607548662
1758+608115808+608583977+609271658+611088470+614684992+619011337+621923944
1748+622729790+622607130+622741205+623685255+625679862+628350430+630492835
1738+631818161+634244260+639446099+645176708+646908205+644990594+642645073
1728+641179661+640641904+640905560+641629370+642812120+645450687+650591196
1718+657283707+661940381+662415533+660734618+659344623+659069429+660186659
1708+663104064+667516633+671865627+675329532+679218979+684352445+688296056
1698+688643570+686689404+684178839+682033034+681391442+682854303+685857508
1688+689771123+695288778+702811667+708651940+708395692+704664427+702340401
1678+703563531+707713963+712017414+714313386+715876257+718598196+721368045
1668+721771424+720667856+720994603+723711563+726962940+728333625+727987264
1658+728307575+731654893+739176021+748667710+752942561+750919658+749468455
1648+750875573+751957281+749099992+743935437+740079873+738801728+739944887
1638+743166996+747141211+748529931+745853048+742487270+741591494+743361550
1628+746099641+748327482+750070335+751565925+752427757+753161830+755344919
1618+759422058+763145673+763543586+761157563+758605282+757373712+757602878
1608+758712457+760166453+761931409+764104235+766311310+767911647+768855818
1598+769815170+771392979+773480673+775330215+776256230+776383990+776556381
1588+777347592+778465612+779403468+780212957+781287803+783030959+785984675
1578+790269182+793988485+794130150+791775642+790940892+792710705+794327012
1568+793129628+790501080+788818161+788559848+789965509+794096267+800155809
1558+802836517+800407381+797426097+795848045+795101343+794898227+795616025
1548+797657631+801227315+806256459+812284607+818362608+822386130+821588360
1538+817527191+814958454+815550254+817720956+818794101+818438147+819041484
1528+822173116+826970909+831533827+835486547+839960203+845194468+849962810
1518+853371275+855101194+855298663+855459941+857727738+863203738+871593074
1508+881266626+887701492+886877126+883056234+881992743+884700959+889015948
1498+892220022+893549295+894439666+896423343+900073787+905089937+910090117
1488+913234015+913893095+913188170+913198311+915787936+921365342+928314040
1478+933842687+936317789+937258196+940082999+945999660+952100068+955459227
1468+956453495+957135285+958946875+961136522+962031265+961983962+962694292
1458+964756362+966617440+966233675+963670829+960539682+958116193+956225421
1448+953610597+950206989+947935367+947784775+948162165+947585667+947103957
1438+948201209+949686113+949410555+948670593+950026522+953261383+955907540
1428+956547614+956605179+958182198+961536196+965237404+967752401+967927464
1418+965400383+961829788+959247936+957779002+956513488+955144321+953912022
1408+953105691+953373476+955024516+956850436+957163764+955744319+953630514
1398+951925431+951620423+953426062+956247221+957222482+955288233+952997544
1388+953084256+954673662+955355210+956058860+959350982+964944540+970394369
1378+974311930+976838404+978579738+980329877+982434149+984416550+985457027
1368+985258890+984807663+985554365+987601497+989616810+990719649+991370167
1358+992498085+994966569+998895607+1002830838+1005267200+1007020497+1010215584
1348+1014874079+1017864289+1016330443+1011952242+1009807591+1013090361
1340+1020259299+1026925760+1030132871+1030172705+1029062822+1028495190
1331+1028917696+1030625693+1034867755+1042197790+1050139784+1054538388
1322+1054021033+1051456851+1050401619+1051614729+1053371669+1054444025
1314+1055821572+1059144905+1064200038+1068948160+1071968853+1073420359
1305+1073741823+1073132171+1072388322+1072303190+1072366948+1071166589
1297+1067931547+1063024940+1057920135+1054432367+1053085788+1052551432
1288+1050887276+1047622358+1043940885+1041323995+1040504122+1040768629
1280+1040081131+1036402937+1029896297+1023667886+1021016142+1021770071
1271+1021830186+1017867325+1011664965+1006950787+1004136854+1001083250
1263+996936826+992584492+988700814+985365397+982362071+978917172+974446491
1253+969884180+966549674+964104629+961000018+955972756+948351375+938254164
1243+926969770+916292720+907554474+901028828+895926635+891175659+886290973
1233+881501075+877164165+873357786+869917380+866618215+863301076+859978047
1223+856808948+854072133+852145474+851254313+851149810+850934428+849842640
1213+848491933+848529034+850670832+853820256+856713250+859557119+863063105
1203+866950852+870655825+874409436+878172884+880592972+880778904+880342553
1193+881997055+886810574+893812283+901083539+906495598+908972705+909681881
1183+910775065+913312347+917066869+921090877+924077869+925567630+927338111
1173+932139547+940689736+950932864+960363891+968521692+976168637+982593241
1163+986082528+986992088+987548365+988777385+990000454+990490969+990003490
1153+989136436+990041441+994431483+1000205994+1003078646+1002538400+1001899904
1143+1002640535+1003269982+1002954590+1003048649+1004854045+1008109794
1134+1011552143+1013380310+1011623006+1007033370+1004950351+1010019147
1125+1020108951+1027950268+1029929330+1029951068+1031839775+1033800742
1117+1032521201+1028278411+1025166513+1027147761+1032549376+1035788791
1108+1035719689+1036129322+1038291401+1039669433+1038367790+1034756390
1100+1029722874+1024718504+1022188812+1023220606+1026301171+1028502233
1091+1027700942+1024212201+1020117330+1017632998+1017779946+1019573501
1083+1020778718+1020094499+1018440180+1018047610+1020380744+1023374962
1074+1022685763+1018334219+1015009976+1014329096+1012771326+1008378248
1065+1004586321+1005304544+1009185247+1010254810+1005232285+998089761+994537444
1055+995194459+995993383+994139045+991668557+991674265+994012560+995569420
1045+993101179+986708089+980659235+979932389+985969584+995336428+1002893929
1035+1006403618+1006462033+1003709915+998983107+993608574+988940667+985881173
1025+984269542+984338886+986596239+989844155+991329362+989390620+985385314
1015+981870949+980467899+982056638+985783896+987743709+983783095+973940067
1005+962307855+953127551+947915571+945035694+941773265+937425304+933247729
995+929485799+924677441+918017234+910622712+904235027+899644116+896514609
985+894238311+892535779+891276458+890246972+889458432+888706750+886829398
975+883138149+879310274+877551452+877197501+875817040+872947242+869739039
965+866238518+861868697+857531666+854978960+854755502+855597538+855397762
955+853129540+850388048+849960988+852685113+857119847+862024996+867427826
945+873380010+879329584+884612547+888483960+890580641+892542276+897294284
935+905567518+914721773+921638896+925628778+927963551+929849951+931762279
925+934110411+937492402+941935394+946497826+950119488+952010503+951003787
915+946736101+941445183+937700255+935282595+933155310+932451113+933924723
905+935448549+935211064+934671911+935826181+938172614+940196610+942366947
895+946500134+952024226+955112746+953660146+951192330+952379452+956968298
885+960539378+960194658+957134799+953796650+951403947+949805857+948286099
875+946730818+946190754+947970221+951634389+955217188+958445551+963048789
865+969507155+976064012+980700830+982584315+982649895+982373791+981482690
855+978676408+974768502+972585170+973198222+974737897+975318585+975147105
845+975439483+977444656+981928635+987733082+993555260+1000477423+1008151571
835+1011297473+1006451043+999861092+999524386+1004171587+1008532300+1013262569
825+1020440980+1026830791+1028203358+1024934797+1019363888+1013425002
817+1010097600+1012544467+1020557324+1029149291+1032535289+1029078731
808+1022189176+1018458822+1022865137+1033782161+1043059925+1043803409
800+1036941422+1026521471+1015000199+1006364270+1004944643+1010309764
791+1016780214+1018441941+1014795019+1009174742+1004446052+1001824487
783+1000549379+998142953+992849667+985516110+978552292+973699424+970715590
773+968177761+965470456+963442148+962759447+963088441+964331002+966154007
763+966477961+964235182+963479432+969403259+980994726+991139848+995016604
753+993844298+989184042+982104669+974935609+969919763+968290097+969777794
743+972257937+974123691+976239196+979229892+981747379+983573299+987475195
733+994820653+1001543221+1002638956+998583008+993341093+989813672+988627583
723+988661587+988542025+988114358+988999507+992841773+998959851+1006131097
713+1013592170+1017989742+1015357793+1007304556+1000246557+997619952+996660964
703+993777140+990418163+990968307+996444125+1003942178+1010444628+1014351928
693+1013941263+1007668282+996730066+985215778+977418667+976019199+981026059
683+989096784+995593587+997199571+993330891+987215607+981920559+976303623
673+965967893+949648708+935161576+937498171+961721824+988432421+996369619
663+983145875+961997443+945550983+938436816+940182705+947955102+957052095
653+963200413+966786430+971590295+977851738+980078669+973633298+962622579
643+954598367+952832622+953427337+949235492+939312736+929105374+925864198
633+933237164+946028868+953676723+953616183+947708569+934240418+916934252
623+904368070+902871690+913324067+930847862+946749156+951724379+939961129
613+916187428+891923940+876556213+870815767+869881372+872258530+882926471
603+905240286+929978682+939506440
##END=
