##TITLE=<SNM>
##JCAMP-DX=4.24
##DATA TYPE=INFRARED SPECTRUM
##DATE=29/4/2025
##SAMPLING PROCEDURE=Instrument type and / or accessory
##ORIGIN=Admin
##XUNITS=1/CM
##YUNITS=ABSORBANCE
##RESOLUTION=4
##FIRSTX=4497.3318
##LASTX=599.83466
##DELTAX=-1.4281778
##MAXY=2.2414215
##MINY=0.67021781
##XFACTOR=1
##YFACTOR=2.0874864e-09
##NPOINTS=2730
##FIRSTY=0.67678881
##XYDATA=(X++(Y..Y))
4497+324212318+324874127+325796798+326390821+327015625+327806237+328248271
4487+327883017+326838623+325793086+325553238+326161681+326626186+326242744
4477+325763048+326471827+328453826+330431000+331270667+331199113+331330858
4467+332187400+332940408+332166299+329381609+325839942+323622235+323850890
4457+325805193+327804838+328911736+329352799+329429750+329046736+328460965
4447+328300152+328336387+327382021+325144840+323104821+322922593+324759771
4437+327290022+329016412+329529972+329477548+329343633+328930895+328425616
4427+328848576+330668250+332843155+333798806+332824538+330361159+327562449
4417+325771871+325820983+327357922+328983033+329444826+328749838+327858404
4407+327433046+327269150+326863892+326118280+325419323+325376693+326357242
4397+327912541+328839125+328300752+327017109+326638892+327695679+328792383
4387+328234480+326087014+323909510+322888644+323124951+324263999+325757909
4377+326916916+327701875+328829931+330295429+330881828+329955388+328423588
4367+327386247+327156107+327647766+328572551+329201552+328679740+326806415
4357+324391119+322810322+322905462+324359682+326294140+327904946+328550622
4347+328016275+326817636+325820612+325537620+325859416+326310472+326567024
4337+326656110+326600517+326276751+325885228+325815072+325725758+324790951
4327+323050969+321541927+321064515+321590353+322758212+324322734+325973058
4317+327039324+327022877+326374946+325859615+325351624+324249123+322789678
4307+321842536+321859896+322791562+324219570+325316018+325406446+324710944
4297+323894263+323214380+322824713+323305122+324955418+326909606+327833192
4287+327483756+326943613+327185060+328077808+328770254+328591824+327617129
4277+326458635+325652233+325534622+326276123+327465967+328121837+327666954
4267+326513829+325372810+324717369+324877439+325668936+326311557+326516599
4257+326966713+328052995+329076174+329204835+328432297+327355352+326437192
4247+325659914+324871557+324391319+324876125+326326719+327752214+328209467
4237+327775657+327210101+327062652+327324514+327639457+327893211+328465191
4227+329652865+331093180+331939300+331671442+330571768+329380810+328694074
4217+328538515+328538201+328403059+328112043+327790162+327644511+327873452
4207+328254581+328050939+326885907+325537391+325149295+325837858+326725209
4197+327096973+326860009+326123962+325082194+324347975+324549475+325439082
4187+326232750+326751535+327467595+328382443+328744042+328144280+327135891
4177+326502208+326395647+326378800+326107601+325821897+326036560+326700111
4167+327094774+326865520+326430796+326081275+325694777+325343771+325084365
4157+324579342+323937892+324058701+325225475+326466716+327031329+327385647
4147+328145822+328952881+329019210+328310089+327535124+327206589+327482072
4137+328615410+330362158+331298364+330205543+327843014+326161966+326152715
4127+327084067+327430561+326498125+325157404+324697382+325412299+326678867
4117+327814946+328449086+328571580+328417763+328017303+327249077+326446386
4107+326090469+326022169+325834374+325660827+325868838+326478337+327353239
4097+328339270+328895689+328323737+326732975+325334520+325512636+327575898
4087+330308221+331900610+331638634+330471860+329751546+329814135+329992564
4077+329619430+328682139+327645311+326945698+326730577+326746053+326379914
4067+325352966+324571461+325489736+328220089+331085842+332474389+332213869
4057+330971686+329430007+327980984+326709676+325774898+325554638+325965263
4047+326140352+325541160+324812337+324712543+324947708+324847972+324512585
4037+324500878+324825329+325048587+325210741+325851392+327079556+328241133
4027+328643706+328368309+328114499+328276910+328492573+328286618+327872395
4017+327804324+327917767+327322430+325765190+324370189+324468441+326117909
4007+328165638+329490026+329859477+329828069+330100638+330734036+331091467
3997+330862926+330609458+330909668+331568935+331960572+331562025+330201774
3987+328411853+327303356+327545374+328585029+329135508+328464248+327102769
3977+326252595+326719041+328444061+330591013+331939500+331643488+329961841
3967+328225828+327752072+328778592+330429230+331566223+331696883+331011032
3957+329856479+328723284+328333446+329105327+330696974+332215354+332751271
3947+332002060+330656771+329861876+330117599+330815927+330977368+330394709
3937+329816790+330034452+330992958+331910262+332040636+331155598+329646384
3927+328431041+328356745+329359223+330559147+331375544+331991696+332676118
3917+333158270+332783793+331385709+329769934+328957564+329092136+329611663
3907+330534363+332680830+336188432+339496305+341028047+341098802+340510889
3897+339027145+336630952+334571972+334081112+334698663+334849339+334525916
3887+335148264+336792506+337914566+338117066+338395632+338130943+335599635
3878+331763812+329520692+330164569+332927587+336614391+339918437+341100772
3868+340187980+339527085+340477710+341951861+342134745+340445845+337712237
3858+335743343+336861434+342472759+349388570+350498294+345217046+338413563
3848+333733990+332701274+334858419+338304004+341467083+344235155+346658017
3838+347598021+346234657+343711687+341627010+340489560+340014433+340044814
3828+340618421+341468139+342595824+344850164+348189874+350159852+349311705
3818+347472358+345871716+343513270+340246286+337836215+337700387+339791917
3808+342597280+344154063+344656916+346214984+349096613+350630982+349305623
3798+346643398+344057068+341916169+340768383+341169614+342763174+344635129
3788+346477760+348636447+351113019+353597728+356191939+358791460+360339821
3778+360363548+360391988+362267569+366397377+371959304+377741606+382828607
3768+386948193+389851978+391158949+391600069+392678385+394626492+396168542
3758+396657717+397310988+399926214+405546762+413254014+419420215+421828715
3748+423527294+428097623+435113057+439956583+440796222+441387275+445025909
3738+451960194+459691060+464816008+465775827+463533679+460749988+460583751
3728+464433108+470281825+474236858+474860348+473921829+472843371+471592393
3718+470313348+469938471+471463218+474979330+478617849+479118988+475627261
3708+470678545+467072490+466218803+467990822+471029836+473822350+475806205
3698+476989454+477626050+478336314+479438100+480758577+482503869+485116383
3688+487650831+488311840+486937341+484977271+483801046+483857067+485479581
3678+489579265+495452452+498634033+496722103+493275034+491132793+489163814
3668+485882810+482421293+480495829+480575778+481701578+482298856+482157460
3658+482802537+484848952+486695952+487691720+490117266+496145783+503106966
3648+504320596+498405264+490346606+484129809+480538659+478781774+478148918
3638+478682523+480698557+483762556+486753629+489527697+493169501+496963493
3628+497269299+493421969+489190654+487671732+489470705+493194228+496236697
3618+496976171+496770987+497918373+500537739+502665189+502982302+502188977
3608+501409072+500728533+499807631+498830309+498383792+498885188+500313881
3598+502347162+504432296+506018490+507355070+509547850+513132261+517016425
3588+519200182+518795296+516726381+514295523+512337851+511157229+510646753
3578+510796087+511631899+512338822+511616081+509691245+508965248+511859069
3568+517672809+521818749+520965119+517423824+515090276+514671342+514410593
3558+513494203+512817375+512934672+513262750+513478670+514500650+517104084
3548+520118628+521161623+519339694+516279578+514387522+515043106+517668583
3538+519759484+519394345+517435987+515776526+514891659+514042541+512575643
3528+510670623+509573777+510483257+512682033+513986005+513455656+512123644
3518+511041017+510327812+509946740+510009671+510329640+510444938+510073631
3508+509395490+508922761+508968789+509262660+509050851+507840705+506310876
3498+505786580+506487735+506981764+505979372+504197189+503544917+504789955
3488+506678471+507526733+507224011+506702856+506348737+506232525+506654029
3478+507298421+507038928+505259086+502493755+499688107+497677326+497013233
3468+497720441+499506622+501717448+502926395+502043698+499950226+498547973
3458+498572872+499362428+500143818+500830639+501584161+501861756+500680963
3448+498183005+495795777+494344812+493397699+492666620+492422318+492405814
3438+491884145+491011099+490842292+491771245+492862838+493068194+492389367
3428+491430433+490657952+490124462+489323713+487706282+485710006+484660615
3418+485309117+487133160+489081181+490144849+489400978+486757170+483577359
3408+481590791+481307028+482020005+482956724+483761756+484306040+484659758
3398+485043971+485482208+485670659+485499511+485228426+484844669+483837822
3388+481969465+479869484+478426571+478047554+478886479+481113152+484279542
3378+486863845+487591440+487044530+486737582+486967665+486884461+486553642
3368+487510578+490627114+494454571+496589845+496317617+495003308+494296271
3358+495027522+497281063+500255176+502297822+502115652+500014129+497592523
3348+496365701+496729070+497945213+498971419+499292073+499044573+498738081
3338+498955086+499902771+501102238+501854789+501744402+500573088+498477789
3328+496353309+495660549+497035904+499220918+500093050+498794217+496320187
3318+494240136+493267953+493038270+492989215+493094634+493421398+493408835
3308+492414037+490836124+489969531+490701867+492703968+494941690+496638328
3298+497465575+497194547+495838607+494154190+493253162+493483930+494320485
3288+495554730+497612910+500132397+501627562+501728926+502259504+504519670
3278+506965489+507221212+505219854+502582670+500161521+498017853+496830092
3268+497555061+499902028+502322207+503621554+503809377+503344587+502489187
3258+501406674+500168716+498739909+497298309+496274673+495875783+495937801
3248+496311964+496957840+497698113+498165587+497939902+496830035+495175428
3238+493713670+493132553+493790250+495452338+497076107+497306304+495691557
3228+493254475+491411987+490665947+490629284+490725223+490527806+489952970
3218+489298814+488839049+488554429+488368833+488308071+488369176+488473909
3208+488483332+488075762+487015349+485672544+484668838+484022106+483278520
3198+482304738+481405537+480903342+480894890+481145588+481268139+481265855
3188+481448596+481536026+480769769+479324801+478389623+478477110+478894645
3178+479039153+479004575+478802589+478142722+477086821+476052734+475210554
3168+474515167+474038955+473632613+472550871+470177548+467082170+464674126
3158+463843539+464382254+465490094+466278337+465999028+464574247+462897682
3148+462060899+462276276+462830154+462948279+462354084+461067015+459197373
3138+457165377+455726833+455477391+456369082+457660120+458364387+458024346
3128+457070351+456201817+455599713+455062540+454594979+454375947+454338228
3118+454162968+453615515+452748694+451818884+451057253+450493753+450008890
3108+449518886+449050555+448657918+448286126+447818680+447183683+446316747
3098+445241801+444328123+444145696+444846052+445957004+446936411+447600361
3088+447857997+447446744+446295732+444947330+444219849+444404389+444991417
3078+445251023+444914323+444207571+443408535+442652415+442155359+442280594
3068+443077974+443913615+443973862+443115892+441888871+440785743+439811161
3058+438788867+437863483+437528324+438082915+439125510+439745174+439338061
3048+438237959+437472302+437781792+438778845+439248147+438507503+437104250
3038+435845877+434864700+434120401+433936460+434378551+434795886+434516578
3028+433532802+432286822+431287798+430883712+430921003+430916634+430770555
3018+430744001+430700685+430199489+429378810+428890919+428882496+428841751
3008+428611154+428743984+429453762+429903505+429222709+427818800+426862007
2998+426735858+426798961+426512400+426012146+425575937+425245604+425028827
2988+424849941+424296321+423052224+421592237+420857303+421206339+422043293
2978+422512910+422315092+421717814+421038874+420479486+420279584+420484682
2968+420621339+420156062+419265627+418640310+418585402+418767201+418698216
2958+418133603+417210360+416426258+416253339+416616566+416929567+416700627
2948+416002584+415271476+414754861+414300321+413627034+412683290+411757478
2938+411322297+411669105+412538668+413250987+413374337+413085149+412734515
2928+412348531+411741659+410916526+410128597+409620976+409450113+409492115
2918+409506192+409284304+408838187+408393412+408203647+408370827+408731426
2908+408920021+408718092+408306296+407995208+407828400+407668587+407498580
2898+407378742+407248425+406997641+406655230+406337974+406081936+405865217
2888+405713770+405662831+405677022+405688529+405662745+405578941+405402339
2878+405075661+404485035+403568074+402563312+401963093+402097950+402846789
2868+403672580+403930787+403439271+402713103+402287002+402058575+401775127
2858+401704885+402130016+402628528+402566110+401953442+401219479+400539625
2848+399990116+399928070+400507988+401123140+400989482+400077518+398961426
2838+398054859+397463748+397249256+397379801+397626102+397749081+397625074
2828+397170506+396449535+395864791+395896343+396517606+397101235+397038133
2818+396256885+395100020+394026986+393442586+393419343+393584010+393616904
2808+393705562+394127380+394695448+394996942+394849007+394246476+393233775
2798+392081449+391282414+391157122+391546846+391902763+391714968+390978407
2788+390176801+389697020+389428219+389086950+388673098+388369633+388262187
2778+388372774+388687403+388982159+388902381+388349589+387587644+386954446
2768+386623085+386571574+386644414+386646955+386468783+386169401+385925128
2758+385852631+385900372+385903027+385678256+385154217+384544118+384200679
2748+384112221+383863265+383292627+382767160+382587131+382559863+382370355
2738+381981373+381491027+380939406+380429986+380193936+380333933+380591626
2728+380523784+379916969+378971312+378118082+377692152+377699176+377869154
2718+378001042+378172190+378472742+378707451+378601803+378177815+377705001
2708+377378351+377199893+377074772+376918357+376740327+376633481+376651127
2698+376739214+376758830+376541082+376024810+375398436+374978617+374899439
2688+375006428+375072272+375030413+374954489+374879451+374730546+374410206
2678+373897674+373309904+372905161+372905104+373240720+373597950+373740060
2668+373653686+373433626+373192893+373034051+372969349+372925605+372870783
2658+372812591+372649666+372221566+371619920+371232822+371274539+371454939
2648+371335215+370839501+370196737+369587010+369097178+368863098+369012403
2638+369530074+370276401+371020386+371416877+371186109+370452061+369696626
2628+369222755+368871949+368409071+367921809+367631251+367557012+367598157
2618+367741238+367986597+368203031+368241521+368150036+368114344+368184757
2608+368228015+368154462+367991479+367760683+367510699+367373757+367392973
2598+367464414+367565749+367773675+367986340+367933288+367550188+367136964
2588+367051190+367305772+367571232+367628595+367620144+367695182+367729046
2578+367628738+367552329+367593760+367613291+367553414+367587736+367818618
2568+368057009+368020204+367670654+367273820+367087225+367093192+367138820
2558+367171971+367190416+367161349+367134452+367224223+367398256+367510499
2548+367573602+367721965+367847999+367597615+366900429+366218433+366051396
2538+366396549+366827475+366938119+366640479+366167408+365834991+365765720
2528+365836989+365836361+365631377+365319575+365211586+365486241+365949432
2518+366312830+366507078+366546254+366405372+366217348+366271685+366661923
2508+367138706+367376869+367283015+367039541+366895432+366957307+367169972
2498+367377412+367396343+367192358+366978179+366977180+367146244+367278817
2488+367271079+367171457+367089309+367095334+367119461+367044280+366982719
2478+367228820+367808167+368349195+368536305+368425832+368211226+367961070
2468+367705033+367540080+367535226+367649382+367744693+367630337+367215829
2458+366674544+366296155+366163868+366162925+366260178+366531320+366936092
2448+367299404+367535083+367743465+368060293+368455356+368701029+368594068
2438+368216280+367862932+367679363+367518265+367238072+366979464+366997853
2428+367329385+367750318+368034195+368173621+368332092+368617539+368944903
2418+369144148+369148602+369034075+368958066+369102746+369533644+370042149
2408+370287108+370184402+370017222+370069875+370289906+370459370+370597283
2398+370939951+371527321+372150497+372819787+373955380+376034061+379386391
2388+384410260+391629736+401414127+413804150+428582344+445379313+463804021
2378+483650855+504933578+527350667+549482623+569122160+585318796+599463363
2368+612994148+624739152+632000487+633930062+632046058+627912795+621747850
2358+612602511+599559759+582709766+562860476+542004625+524043109+512887217
2348+510483371+516582129+528468643+541297702+551012623+556623405+559408895
2338+561483007+564242799+567450649+570023188+571174629+570837700+569640231
2328+568271671+566723225+564510343+561368280+557384180+552685904+547293041
2318+541306154+535078849+529010757+523196389+517338506+510995046+503922963
2308+496248347+488338395+480504052+472888656+465591059+458757624+452522295
2298+446885900+441695822+436800614+432157646+427730941+423478383+419517296
2288+416055522+413113560+410580168+408498660+406964605+405807025+404710521
2278+403607364+402662249+401875006+400978289+399852204+398809094+398235516
2268+398063739+397853244+397354732+396718250+396175851+395806543+395598189
2258+395510588+395470670+395387294+395128573+394550968+393693141+392845679
2248+392303908+392157030+392331576+392650802+392854216+392754508+392407842
2238+392039476+391829466+391822756+392006183+392394365+392967516+393532272
2228+393775089+393545206+393005063+392420748+391902877+391438400+391043765
2218+390753321+390538143+390326906+390062473+389732283+389417740+389224063
2208+389092118+388863691+388569135+388412920+388499465+388776233+389127010
2198+389396496+389516049+389607505+389765433+389918822+390108045+390550107
2188+391222423+391761053+391934457+391882490+391837975+391948105+392345510
2178+393057059+393842874+394382332+394606961+394684084+394782792+395013817
2168+395442574+395985144+396404620+396534338+396459100+396429976+396619484
2158+396969719+397302508+397538843+397693688+397721013+397565312+397313758
2148+397106289+396993190+397022228+397294227+397798507+398351785+398792505
2138+399103993+399307350+399380903+399373565+399482696+399862512+400385323
2128+400763112+400909847+401022633+401327925+401920063+402768639+403664442
2118+404246758+404330191+404146165+404102221+404425359+405144131+406200176
2108+407391791+408353409+408789675+408741306+408576239+408692565+409183111
2098+409781503+410159263+410265824+410363277+410739666+411375463+411892678
2088+411915178+411483908+411025656+410962668+411418122+412182008+412891615
2078+413352694+413672948+413982095+414203811+414289185+414431352+414815508
2068+415371299+415935455+416435852+416787686+416839624+416600776+416402930
2058+416656055+417422283+418354577+419127087+419771649+420452674+421103261
2048+421529705+421778147+422147856+422823855+423665492+424417786+425008355
2038+425537190+426114453+426850528+427853521+429059898+430183128+430983848
2028+431515682+432052542+432879760+434131223+435696258+437316230+438844175
2018+440305333+441690112+442913821+444034053+445267213+446735538+448383635
2008+450142034+451999769+453912698+455750075+457350459+458641212+459720927
1998+460779198+461971327+463425519+465180491+466983347+468436282+469501606
1988+470521330+471678424+472806052+473760589+474697109+475896776+477453074
1978+479197510+480901571+482469034+483946553+485531433+487532849+490031035
1968+492599177+494706697+496382091+498096888+500079459+502160824+504228426
1958+506391682+508605020+510572229+512225808+513905428+515921349+518300525
1948+520960437+523804346+526684633+529420611+531793105+533691843+535420974
1938+537469560+539895335+542365311+544731066+547082945+549386569+551528296
1928+553621425+556040404+559133984+562817132+566499881+569590777+571863677
1918+573265530+573926996+574424509+575457568+577267505+579504143+581537824
1908+582987018+584020020+585097908+586533911+588302274+590015473+591152351
1898+591664483+592165366+593202764+594721686+596474174+598306383+599774822
1888+600343262+600250920+600375070+601172164+602245654+602968453+603299157
1878+603778168+604689646+605530199+605762680+605822014+606591068+607957344
1868+608697446+608289134+607649540+607529730+607612763+607340593+606705339
1858+605922521+604967984+603801067+602622444+601707196+601213624+601184728
1848+601639753+602495896+603101854+602231149+599619835+596746230+595086483
1838+594754294+594818882+594556648+594279624+594661324+595475322+595521693
1828+594168038+592099464+590110555+588342135+586687813+585178371+583867945
1818+582656257+581372272+580130203+579473705+579722690+580190507+579739651
1808+578252594+576754459+576243184+577057410+578863692+580655812+581259315
1798+580513388+579586776+579827424+581445197+582981422+582725299+581149442
1788+580080920+580317570+581422583+582827748+584337647+585740414+586797572
1778+587697458+589035009+591478030+595311198+599479524+601821010+601679385
1768+600412132+599399860+599417392+600822957+603085464+604821448+605549786
1758+606201715+607339051+608753867+610749344+613970785+617694936+619852710
1748+619872412+619449423+619975089+621408865+623245585+625213023+627113702
1738+629190213+632440379+637072411+640572190+640465686+638783668+638088109
1728+638187875+638004562+637450971+637296498+638546276+642113441+648196666
1718+655142430+659283859+658766644+655871796+653339289+652119720+652183451
1708+653618654+656363084+659484646+662475776+666564724+672537734+677948929
1698+680002311+679074843+675707951+670872619+667495962+667601324+670542429
1688+674467481+678864119+683855809+686991248+685861964+683024222+681815732
1678+683284857+686746946+690121262+691551040+691865241+692881681+694144651
1668+693887786+692835482+693207931+695236815+696947444+697013117+696644722
1658+697639748+700882261+706747968+714131682+718210979+717371969+716715985
1648+718990370+722148652+722185200+719379152+717292648+717800725+721006348
1638+726658476+733458275+737196646+735028079+730743655+729040050+731326085
1628+736488980+742634109+748692322+754114938+758199032+761266343+765244504
1618+772033110+780976806+787904239+790043681+789189937+788285825+788869284
1608+790731645+792872914+794628657+795613118+795497592+794621748+794101678
1598+794605358+795485656+795812478+795887973+796800993+798731425+800679446
1588+801983133+803288876+805455387+808070071+809857850+810464208+811007064
1578+812593543+814821272+816223011+816838849+818336870+821386649+824437855
1568+825418604+825095724+825931422+828768650+832973068+838655861+846407685
1558+853329064+855396838+854312840+852974033+852280473+851837953+850721405
1548+848980909+848709996+852508385+860961592+871375384+877738489+873859008
1538+863169962+855167098+853209769+854884991+855881330+854789166+853789858
1528+854663760+857474662+861548077+866259031+870682852+873213475+873187491
1518+871991336+871186589+871481945+872960721+875441204+879179860+885054304
1508+893125125+899484918+898912766+894326762+891668906+892799674+896452213
1498+900101669+902094861+903130604+905185472+909620543+916237886+922539430
1488+925152915+923563466+919854334+916071535+913783273+914159605+917082036
1478+921091321+925365466+931048088+938771930+944519825+943103238+936907341
1468+931935639+930748450+932730392+935450437+936348153+935188204+934412753
1458+936746929+940738110+940912171+936471047+931022561+927107617+925191519
1448+924231842+923552445+924292261+927265117+930608424+931843469+931580950
1438+932301693+933893425+933932144+932947226+933514866+935370602+935710501
1428+933448222+930296679+928004248+927300809+928391717+930855525+933138133
1418+933208089+930568450+926676291+923382324+921880077+922212952+923862134
1408+926709584+930066026+931529840+929113659+924073143+919715108+918669886
1398+921657419+927186767+932636223+936389898+938460299+938948218+937626371
1388+935182664+933263882+932951966+934590869+938837945+945698563+952859618
1378+957135419+957816359+957440768+958980934+962702801+966395886+968353957
1368+968835024+968862092+969193767+970582829+973237830+975624886+976473719
1358+976783123+977547438+978130839+978314722+979552451+982312642+984393950
1348+984324508+984234737+987085956+992739397+998266290+1001689946+1003564185
1338+1004903792+1006334884+1008801090+1011977932+1013773135+1014025318
1330+1015661879+1020078277+1024872035+1027341439+1027495856+1027707264
1321+1030564194+1036338815+1042093335+1044352245+1043918348+1045369884
1312+1051561841+1061318392+1070477494+1073741823+1069976213+1064841185
1304+1063438647+1065279079+1067426973+1068637748+1069141656+1067783547
1295+1063005436+1055641766+1048833515+1045622524+1045763920+1045681801
1287+1042605010+1037456963+1032572291+1029198775+1027989371+1029202430
1278+1031218750+1031603192+1030202252+1027754434+1023695981+1018481919
1270+1014858618+1014264709+1014510267+1013172374+1011458832+1012217094
1261+1015320725+1016772261+1013227196+1006500607+1001041443+998747813+998305122
1251+997617787+995537736+992029904+987361210+981725815+975402970+968419744
1241+960306607+951300322+943078054+936617754+930396387+922474614+913586369
1231+906153886+900959753+896589555+891673018+886318530+881228160+876463812
1221+871829267+867726100+864532983+861827843+859376941+858016490+858256566
1211+859017797+858968800+858291687+858192549+859322689+861239016+863045070
1201+864299931+865293757+866696696+869244964+873215530+877558489+880578572
1191+882255508+884289303+887339996+890279959+892472510+894563926+897284314
1181+901283205+907261754+914927689+922548682+928283956+931473190+932483691
1171+932173431+932043228+934207683+939947812+948330949+957151752+965337357
1161+973057373+979387756+982860409+983778798+983913455+984962161+986622936
1151+986266705+981871665+975405483+971894111+974425305+981849850+991034193
1141+999013473+1002225149+998098168+990056414+985740753+988437441+993715692
1131+997104056+1000067433+1003962561+1006854097+1007606648+1009155380
1123+1014445166+1021816488+1027727937+1031122012+1032682850+1032636136
1114+1031036123+1028124371+1024507466+1022274940+1023108925+1025321578
1105+1026117530+1026286566+1029158115+1035011658+1040314578+1042971406
1097+1045312549+1050114531+1056179254+1059628379+1057018721+1047470152
1088+1034554119+1024997441+1022808773+1025400842+1027807658+1028932430
1080+1030085526+1031677887+1033252431+1033485769+1030755844+1026641655
1071+1025399243+1028148242+1031415768+1032475667+1033363561+1036665008
1063+1039836482+1036647191+1025566680+1012131891+1002228918+998897432
1054+1001664933+1005925544+1005849478+1000086164+992218014+986186298+983334394
1044+983028531+985006361+989360170+993755666+994465502+992540323+992257531
1034+994491542+997105998+998712978+999412077+999257204+998658955+997968307
1024+995805680+991580818+988043977+987941299+990512924+993493547+996191035
1014+998025985+996896074+993304867+991184727+991781719+992020196+989241160
1004+983377338+974729454+964540263+956221713+952034885+950648165+949023538
994+945622097+941231055+936867367+932011534+926071418+920129188+915857042
984+913190392+910348595+906172902+901230610+896928426+893780138+890809166
974+887009863+883044093+880610552+880312969+880894657+880877126+879880672
964+877852359+874529839+870497712+867448733+866179652+865590483+864876879
954+865252355+867897134+871575714+873823602+873814065+872862041+872652573
944+874107250+877604974+883259271+890652294+898601707+905493276+910187840
934+912958196+915331205+918908535+924376779+930791508+935549803+936999511
924+937013046+938257742+940407863+941373422+940417228+938193440+935649397
914+934423432+935898496+939338199+942723479+945024533+946440206+946891863
904+945754299+943420808+941481867+940131809+937431523+932527949+927832871
894+926502516+929161571+934175646+939950839+945846355+951739758+957862044
884+964600796+971328070+974852005+972653515+967888196+965425758+964981812
874+963928651+963299679+965636139+969766090+971996217+971406306+970455938
864+971073260+972072512+971680646+970930151+972100380+975475267+978520534
854+978379138+975433579+972379517+971155380+971967778+973721751+975497881
844+977689519+980203809+981062921+978868542+974865482+971963667+972400418
834+976585305+982585384+987118164+988551083+987899954+987173215+986772212
824+985212745+982298480+980917642+985186933+995895908+1008239732+1016353555
814+1018820218+1018428924+1018750320+1021722833+1025806185+1026322657
805+1022152960+1018508759+1021668011+1032735845+1045026902+1048954467
797+1042908703+1034510490+1027476554+1018238873+1006124275+996917888+994566466
787+995355109+993367684+989639764+989686020+994168890+998611556+1000554324
777+1001504121+1002448093+1001179298+995784779+986566857+974863427+965081634
767+962810504+969226661+980332071+991317557+1000298486+1006949694+1009629136
757+1006398615+997481302+986291375+977327577+972599492+971902791+974701358
747+979505966+984335701+987145690+986116171+981838543+977953351+978520763
737+986091045+1000786291+1017062134+1025038215+1022472872+1017182857+1014960268
727+1015526537+1017368911+1020254622+1021725917+1019116944+1012683427
718+1004311025+998276683+998756721+1005216736+1012576295+1015367666+1013726650
708+1011466599+1008808514+1003885581+998644564+997907774+1002695593+1006546293
698+1002135035+989813254+975878211+966284528+963146405+964394756+967529566
688+972350050+978950776+986100182+991646262+993013280+992145374+993607303
678+995379208+991092556+980702236+969087435+956835895+940950090+924064977
668+918942970+932290214+949990924+958904068+959646797+957054956+952316420
658+945545860+938947647+934482309+932908622+934192664+936327823+937130400
648+937856510+940081099+939852158+932190734+920317355+912277428+912105480
638+920006010+933738666+946044229+949088297+944787312+938568287+928750860
628+912527270+896316928+889788442+894718057+904377127+910358646+907840016
618+898789416+890508500+888992547+898607246+918765597+947093449+985530486
608+1020678125+1020829686+993003230+949601001+906772179+884825020+883565020
##END=
