##TITLE=<SNM>
##JCAMP-DX=4.24
##DATA TYPE=INFRARED SPECTRUM
##DATE=29/4/2025
##SAMPLING PROCEDURE=Instrument type and / or accessory
##ORIGIN=Admin
##XUNITS=1/CM
##YUNITS=ABSORBANCE
##RESOLUTION=4
##FIRSTX=4497.3318
##LASTX=599.83466
##DELTAX=-1.4281778
##MAXY=2.0702267
##MINY=0.42622027
##XFACTOR=1
##YFACTOR=1.9280488e-09
##NPOINTS=2730
##FIRSTY=0.44745559
##XYDATA=(X++(Y..Y))
4497+232076894+229808173+227893623+227137934+227041759+226527511+225485029
4487+224830368+225211312+226409851+227817743+228872932+229166233+228722502
4477+228156983+228098493+228574808+229317637+230186489+230785565+230526084
4467+229693603+229420458+230108275+230989755+231539755+232076446+232719019
4457+232912636+232235764+231034643+230122944+230003614+230357214+230477502
4447+230162762+229727192+229319739+228741190+227835704+226776620+226064675
4437+226187777+227038806+227895168+228148683+227743100+227029903+226626932
4427+227031031+227960259+228578997+228573139+228333752+228101538+227817403
4417+227797741+228544110+229703063+230074655+228956494+226810704+224521826
4407+222795669+222195990+222908661+224383994+225646340+225905960+224911209
4397+223171033+221724667+221248383+221578395+222250229+223009752+223704648
4387+224181627+224328378+224074138+223551126+223159270+223154679+223352810
4377+223497691+223568918+223558870+223370385+223106931+223145219+223659420
4367+224287772+224468174+223950959+222900284+221743371+221063005+221320538
4357+222453260+223925949+225211435+226002753+226204857+226135083+226362428
4347+226907837+227029717+226206186+224910266+223989324+223642649+223491848
4337+223364727+223494398+224066950+224927841+225668552+225795008+225073557
4327+223979014+223400805+223604732+223930957+223757681+223230280+222772189
4317+222500915+222449875+222833106+223737092+224840013+225707876+226144481
4307+226075758+225519900+224896324+224823273+225361046+225930166+226128034
4297+226147572+226292314+226599249+226968043+227294794+227583473+227956858
4287+228318187+228207884+227271515+225648752+223824488+222400458+221915843
4277+222503388+223693287+224748599+225262738+225402750+225537830+225722328
4267+225732437+225569487+225539052+225628441+225271919+224220502+223215055
4257+223194682+224181720+225468412+226612820+227658951+228665264+229489908
4247+229804726+229347732+228482157+228024128+228108432+228027112+227575126
4237+227488056+228175161+229054864+229422391+229136370+228412414+227706080
4227+227629598+228304785+229042189+229158195+228779601+228508667+228616465
4217+228743833+228346798+227438855+226703322+226649670+227046349+227478982
4207+227940025+228530198+229046300+229149137+228745858+228180262+228044810
4197+228557882+229201785+229302813+228802030+228240081+228219523+228875266
4187+229631110+229665904+228813561+227691627+226941178+226845127+227557783
4177+229009528+230556643+231363604+231320664+231125748+231316954+231637506
4167+231629469+231442807+231555954+231974598+232237603+232167953+232175218
4157+232638008+233233560+233150431+231956915+230131801+228650935+228114414
4147+228429247+229131037+229751460+230049058+230176611+230500688+231073379
4137+231549972+231759619+231923589+232156174+232250247+232052240+231674326
4127+231342350+231173836+231044134+230740291+230325712+230058750+229895722
4117+229562387+229171504+229245591+230019334+230991610+231285591+230488446
4107+229142243+228297876+228600142+229845023+231255094+232081330+232139542
4097+231855655+231704359+231710125+231572972+231095606+230450205+230118956
4087+230495123+231480384+232505044+232957478+232695849+232209100+232090373
4077+232392562+232797480+233167295+233471153+233549861+233393527+233189136
4067+232940614+232575545+232271300+232099384+231735845+231072467+230621873
4057+230870379+231638248+232350364+232693252+232844872+233083624+233318915
4047+233283919+233023388+232715201+232240695+231499612+230845385+230694661
4037+231015090+231449005+231659981+231597596+231648265+232230245+233118975
4027+233656130+233691852+233770421+234282133+234951663+235335281+235402520
4017+235370416+235258428+234960319+234555525+234196422+233844600+233438260
4007+233171112+233360015+234070430+234906374+235275354+235003507+234542773
3997+234423644+234697253+235025657+235191251+235394204+235918777+236580084
3987+236894423+236809562+236688099+236554070+236079007+235407498+235282572
3977+236086101+237219504+237786367+237672649+237414389+237078781+236157112
3967+234790027+234054850+234574136+235642077+236135163+235788735+235184697
3957+234884981+235025008+235570262+236600333+238191656+240014668+241231061
3947+241190316+240248737+239392530+239073199+238910078+238559663+238228012
3937+238115900+238084692+238069761+238273410+238697665+238913216+238638603
3927+238191347+238057225+238306581+238734175+239380628+240453268+241796997
3917+242758561+242675587+241500357+239918555+238836857+238617581+238944022
3907+239662197+241299985+244127718+247044608+248571505+248594212+247760912
3897+246248730+244399286+243381102+244095597+245601025+245721066+244295181
3887+243551441+244746069+246536497+247344447+247500859+247318216+246038140
3878+244023628+243153834+244315971+246459273+248338024+249592379+249872557
3868+249317194+249308800+250601181+251694719+250741811+248324437+246314763
3858+245847552+247736876+252985522+259728081+261688863+257531560+251784773
3848+247680101+245988801+246291345+247930014+250323862+253035264+255643195
3838+257415631+257755226+256967633+255709970+254155419+252332608+250870291
3828+250529892+251197537+252370046+254375933+257353523+259316485+258715167
3818+257395567+257052323+256402037+253961771+250859734+249223368+250312331
3808+253686493+257084861+258991682+260451232+262172644+262492269+260642346
3798+258558369+257459096+256667500+255719584+255365459+256209069+257923679
3788+259964144+262019803+263672955+264662188+265592127+267373574+269844353
3778+271860534+273052998+274441028+277377194+282391245+288461182+293682763
3768+297525805+301093398+304929856+308740623+312991551+318731382+325703619
3758+332189201+337575463+343563291+352452752+364561278+376247387+383333823
3748+387534144+393675029+403025023+410618735+412414619+411711253+413269343
3738+418819947+426555216+432794749+435245557+434162220+431300930+428846536
3728+428399203+430161360+432914017+435084245+435853552+435280799+434059182
3718+433237259+433809610+436533176+441676729+448018774+452478993+453055858
3708+451102402+449133953+448833835+450693620+453968515+457263938+459885363
3698+461970854+463627902+464982637+466685221+469553808+473455216+476564626
3688+476679906+474088530+471289934+470316035+471428648+473750419+476971090
3678+481281188+485035073+485201795+482619909+481010995+480707508+479111517
3668+475806201+473138404+472476463+473261104+474471654+475657317+476811571
3658+477912003+478603870+478769293+479517609+482597558+488455575+493923885
3648+494681259+491975901+489721709+489336422+490188333+491224895+492138202
3638+493462641+495206372+496234681+496190010+497202706+501763088+508509526
3628+512366851+511824209+509996791+509292529+510578819+514065540+518552624
3618+521929630+523969862+525838952+527608312+528669174+529434060+530777728
3608+532296495+532648240+531615201+530682758+531543479+534601850+538940080
3598+543286101+546487853+547794855+547780264+548472316+551714194+557228474
3588+561989119+563084976+561345171+559365592+558482798+558927905+560434553
3578+561702604+560949836+558321239+556217570+556769208+560205292+564929149
3568+568233661+568190875+565488887+562004577+558830030+556720363+556481518
3558+558124437+560733929+563531505+566203877+568251777+569147060+569111076
3548+568791976+568332463+567566773+566941250+567203157+568034324+567959140
3538+566497998+565446781+566547523+568765514+569610345+568820418+568621452
3528+570086923+571375933+570654389+569208704+569544064+571394853+571891339
3518+569394685+565234584+561778530+560524329+561888338+565232358+568718585
3508+570253799+569495096+568389222+568720193+569808445+569956031+569199862
3498+568656509+568305630+567614382+567358224+568555481+570440028+571465029
3488+571887197+573401698+576150738+578162900+578091178+576664969+575025265
3478+573663234+573160317+573929594+575157084+575203332+573483868+571225256
3468+569780684+568998609+567879690+566133145+564707492+564849266+566610526
3458+568570134+569254024+568672523+567959882+567756341+567773406+567715039
3448+567916107+568772562+569753170+569535655+567385985+564238952+562054473
3438+561977248+563514997+565568523+567458758+568585900+568173934+566036135
3428+562874634+559881122+558474142+559585827+562623547+565671159+567039743
3418+566254082+563843618+560878918+558560208+557746353+558351535+559246262
3408+559522391+559934542+562054040+565638080+568087250+567409851+564663594
3398+562377529+561850993+562664354+563790507+564394143+563925603+562527650
3388+561290885+561149111+561656974+561647947+560949774+560784815+562351252
3378+565185430+567281494+567617473+567956605+570560533+574629745+576748809
3368+575247478+572406993+571448335+573244899+576378825+578799986+579058307
3358+577065807+574395784+573219364+574277814+576199088+577367532+577832115
3348+578482680+579406837+580317145+581560526+583383739+584878269+584639918
3338+582252640+578777480+576211392+576115248+578157830+580542265+581841106
3328+581792508+580937475+580234356+580300451+580587462+580313312+579997489
3318+580500963+581347402+581280132+579905364+577872984+575889078+574703816
3308+575257062+577595001+580367783+582170098+582607538+581955304+580959054
3298+580651207+581294538+581993700+582049346+581837273+581797764+582064309
3288+582972205+584648884+586616838+588401222+589876647+590932192+591318685
3278+590948453+590236492+589859644+589921226+589744210+588863703+587578031
3268+586608491+586582770+587578588+588936538+589627477+589366867+589180329
3258+590325711+592752004+594607182+593620392+589532260+584667556+581670211
3248+581279266+582631960+584922229+587546128+589153619+588608659+586734746
3238+585407154+585328013+585969365+587054958+588648724+590216892+590893301
3228+590720427+590357368+589739201+588306253+585909082+582931955+580195961
3218+578938421+579922615+582219005+583719470+583386769+582218881+581590328
3208+581535300+581142068+579950809+578303808+576862389+576171327+576256527
3198+576570371+576577729+576341913+576206508+576111167+575653200+574523770
3188+572561813+569962955+567755352+567353834+569295264+572710759+575905833
3178+577360422+576721110+574817520+572444647+569669948+566663390+564452386
3168+563904581+564689624+565727238+566018452+564974779+562699658+560220007
3158+558789408+558715708+559180724+559107951+557930789+555773267+553375477
3148+551803599+551821653+553229808+554687426+554565499+552533861+550007344
3138+548499273+548142458+548258325+548524808+548920699+549269786+549361416
3128+549087823+548488577+547836837+547356488+546988482+546787661+546935494
3118+547010493+546154718+544333360+542534013+541484528+540857644+539887671
3108+538379971+536805558+535515373+534368507+533245075+532312323+531587316
3098+530786260+529854806+529193916+529084912+529319367+529684838+530392657
3088+531591397+532868474+533763573+534296415+534398865+533519472+531522581
3078+529245049+527525338+526418537+525757091+525682834+526070873+526013557
3068+524638976+522358785+520632396+520360967+521071753+521882640+522620136
3058+523395348+523844597+523743012+523594437+523642725+523155946+521651956
3048+519935336+518953306+518474194+517600921+516187263+515237045+515776132
3038+517465176+518771838+518659124+517566761+516591161+516228596+515966039
3028+514821090+512483584+509826793+507950932+507230470+507498221+508395174
3018+509208472+509112513+508066862+506987080+506644239+506707892+506294967
3008+505335227+504750757+505096876+505751397+505846521+505342213+504674924
2998+503917148+502967053+502203434+502122222+502452420+502396341+501684256
2988+500646581+499464009+498144887+496968931+496228529+495771984+495311420
2978+494809585+494343982+494031776+493892847+493519060+492381128+490542242
2968+488527235+486743005+485559382+485391486+486107960+486955048+487518495
2958+488114743+488966314+489595053+489252396+487683888+485367867+483102948
2948+481552710+481079007+481554843+482298027+482663746+482682975+482658645
2938+482450405+481690434+480324663+478640318+477237666+476862086+477540875
2928+478179816+477826494+476955045+476646148+476932478+476893062+476145240
2918+475232305+474545230+473904435+473329240+473208117+473487027+473545332
2908+473075401+472449506+472094144+472022886+471985850+471594380+470445567
2898+468648229+467102258+466756819+467499138+468148218+467754770+466552072
2888+465315060+464319459+463487426+463040588+463252600+463784360+463925918
2878+463427638+462626242+461885963+461292096+460727999+459996377+459047055
2868+458217032+457965357+458257653+458548682+458502063+458367492+458486359
2858+458799862+458972984+458721649+458016582+457146246+456433173+455841408
2848+455122769+454341993+453830977+453590338+453151043+452093706+450576083
2838+449361298+449193649+449970159+450764012+450810755+450136201+449175935
2828+448214618+447293026+446357090+445417135+444658617+444281027+444142067
2818+443793351+443037863+442242835+441896067+442064737+442471509+442837908
2808+442883167+442238074+440802065+439176581+438334440+438570936+439011807
2798+438602221+437450718+436554785+436326698+436199763+435732707+435298420
2788+435328593+435480507+435056051+433915708+432454628+430970516+429653837
2778+428918165+429056352+429672323+429969535+429546934+428579156+427419276
2768+426397799+425873551+426074464+426753872+427229862+426953085+425944654
2758+424622844+423410037+422551789+422029582+421580147+421046285+420682885
2748+420820547+421285903+421511331+421224630+420667026+420122652+419590707
2738+418952724+418223421+417582131+417183519+416923528+416535428+415992477
2728+415533273+415221995+414865520+414384088+413903955+413538732+413318095
2718+413198827+413006848+412484238+411475591+410138045+409015076+408620515
2708+408781796+408778364+408290626+407760535+407704920+408091815+408442478
2698+408254178+407373053+406172891+405244003+404772681+404455467+404101404
2688+403901974+403920770+403788580+403190756+402314886+401609109+401299376
2678+401219926+401023464+400542033+399913016+399392849+399174685+399270798
2668+399414273+399315995+399104911+399101232+399175149+398846590+397970937
2658+396879161+395938433+395328552+395078577+395054557+395051527+394969078
2648+394740249+394212137+393406814+392749449+392653397+392963161+393116867
2638+392748181+391913521+390961664+390374134+390435685+390867467+391058210
2628+390769685+390350855+390190904+390222869+390101839+389714821+389322052
2618+389182968+389206803+389101261+388803029+388560906+388524396+388450542
2608+388007692+387259561+386615396+386310270+386173968+385993396+385852952
2598+385911998+386102648+386302448+386512111+386616169+386335249+385650493
2588+384933153+384508975+384375085+384374064+384425537+384560324+384769523
2578+384873797+384682807+384238474+383740936+383334936+383083044+382978430
2568+382885037+382600902+382059960+381420154+380909725+380621571+380542306
2558+380679041+380934086+381008280+380742601+380376945+380200825+380191829
2548+380187253+380160420+380199526+380319722+380359787+380178072+379946059
2538+379992832+380360096+380797134+381146344+381445999+381684288+381703176
2528+381416197+380999872+380748537+380797258+381097252+381509899+381763119
2518+381546904+380879089+380208584+380015523+380352491+380780101+380830769
2508+380560082+380421894+380608432+380869691+380970008+380933405+380833892
2498+380672858+380505116+380482549+380644231+380716293+380336910+379559998
2488+378926561+378939143+379587512+380389651+380842208+380855779+380693231
2478+380547005+380429005+380379511+380404149+380297556+379921574+379507289
2468+379321060+379251565+379083544+378958279+379175917+379659852+379968502
2458+379856901+379572735+379497489+379673764+379815754+379727184+379556783
2448+379567325+379773123+379955147+379940154+379686624+379202410+378615066
2438+378256613+378412143+378974663+379521170+379735222+379636326+379444626
2428+379371544+379491925+379701679+379855170+379979632+380244167+380709739
2418+381221869+381533270+381492309+381214418+381047789+381205608+381513083
2408+381701321+381778175+381887890+382027438+382131837+382249683+382462220
2398+382768582+383113062+383419920+383611713+383676819+383712123+383855041
2388+384140969+384427979+384532285+384390016+383931647+382936510+381368341
2378+379788024+378977848+379096250+379597436+380058618+380565276+381043863
2368+380917237+380033918+379294876+379477735+380020006+379933445+379427406
2358+379612244+380948399+382953760+385173235+387489348+389521080+390582621
2348+390399700+389562196+389240840+390159526+391818923+393147813+393575762
2338+393283744+392748521+392242977+391877908+391867706+392345644+393060263
2328+393622381+393856002+393724244+393279385+392819006+392702119+392855300
2318+392799314+392300107+391685496+391376598+391418549+391678509+392151346
2308+392779189+393318492+393648411+393903147+394173525+394392616+394545828
2298+394721082+394992666+395443585+396174558+397114698+397951306+398417002
2288+398574264+398720861+399062806+399496938+399664525+399254507+398330565
2278+397334191+396753308+396808799+397351936+397974678+398329452+398390756
2268+398306977+398132341+397946885+398034961+398592967+399383234+399963870
2258+400162341+400151769+400211959+400543826+401168484+401893738+402478146
2248+402874933+403214869+403549487+403762519+403746351+403509948+403114737
2238+402633646+402158212+401775367+401531513+401382382+401178192+400786196
2228+400235485+399688237+399333308+399322642+399679673+400268254+400960213
2218+401803035+402941678+404399543+405958994+407302785+408358298+409389636
2208+410618982+411962618+413315004+414859739+416855455+419266043+421800753
2198+424209888+426392605+428325936+430061290+431752776+433549217+435437010
2188+437246404+438836151+440236546+441569425+442874418+444093098+445168211
2178+446070049+446802011+447406668+447846921+447962417+447714514+447307988
2168+446891416+446349454+445532044+444480395+443335044+442169506+440950887
2158+439567588+437895980+435920976+433774460+431535478+429094408+426421047
2148+423731795+421194581+418992697+417825737+418472591+420666407+423306288
2138+425844646+428571242+431697934+435027764+438275238+441208776+443814589
2128+446440404+449423405+452692612+455942714+458973911+461810377+464701191
2118+467987061+471823055+475966276+479852815+483057813+485771610+488648173
2108+492179782+496432039+501341971+507037533+513768977+521570836+530110098
2098+538857724+547225967+554618982+560656148+565240767+568296912+569752799
2088+569676811+568097575+564896009+560050039+553864606+547043819+540524324
2078+534958232+530406939+526564639+523004465+519376835+515741415+512485037
2068+509787129+507462020+505178737+502564114+499422861+496009036+492764406
2058+489854240+487140288+484426768+481736775+479412191+477704536+476354284
2048+474920501+473369119+472078779+471440395+471560189+472276261+473492530
2038+475383662+478186215+482093868+487421208+494437776+502983809+512576729
2028+522798822+533280936+543372290+552125295+559004573+564612276+569989233
2018+575119678+578967233+580965175+581527757+581223682+580267682+578600278
2008+576030728+572426655+567816439+562357744+556390073+550362242+544500298
1998+538755335+533176506+528045814+523572240+519714854+516384683+513589086
1988+511267995+509263191+507609482+506579875+506290979+506513007+506910722
1978+507284663+507682409+508391495+509612184+511135558+512631510+514137416
1968+515906900+517896000+519714112+521057347+522036285+523129421+524877388
1958+527497453+530677750+533814149+536525720+538829097+540857644+542757834
1948+544835659+547373244+550296765+553298933+556163469+558810059+561211744
1938+563397893+565496554+567730064+570231293+572830336+575270973+577641991
1928+580272196+583221191+586105451+588428613+590148324+591900928+594294761
1918+597003674+599058622+600136610+600884864+601993520+603520139+604986475
1908+606000099+606738152+607598131+608547082+609278210+609890935+610847862
1898+612225412+613472997+614115029+614452430+615140895+616168740+616831918
1888+616781713+616399486+615991600+615530171+615172861+615135083+615142379
1878+614784575+614194355+613779236+613692613+614020987+614872496+615753868
1868+615557252+613985559+612059524+610640797+609547970+608166834+606314561
1858+604331706+602520673+600770975+598897248+597123746+595823544+595054639
1848+594883249+595630267+596897019+596923234+594602360+591189709+588351636
1838+586463564+585090528+584004131+583499545+583822045+584408245+584118762
1828+582667141+580821175+578862928+576390078+573633309+571488400+570255159
1818+569400497+568472135+567670399+567478791+568017939+568719698+568720935
1808+567856195+566916333+566742840+567503893+568825240+570156109+570991913
1798+571220742+571441163+572658637+575283772+578063788+578880054+577649658
1788+576376104+576511634+578043694+580346576+583008313+585644825+587644312
1778+588815909+589955170+592297375+596354160+600866130+603527806+603713293
1768+602620465+601394149+600887275+601837587+604105597+606329586+607474473
1758+607980543+608653304+609815998+611610337+614098273+616959409+619568097
1748+621496976+622751424+623735680+625082871+627081617+629189119+630633815
1738+631895868+634621166+639372908+643626495+644288869+642650957+641374189
1728+641135158+641769585+643196103+645125662+647402081+650664055+655618967
1718+661418773+665260454+665439511+663537714+661925770+661918474+663932986
1708+667866113+672789493+676909405+679649542+682838866+688073802+693669942
1698+696807825+697493756+696463252+694444103+693256430+694107877+696419230
1688+699280860+703435397+710194170+717591760+721194472+721007440+720138743
1678+720864986+724327656+730031997+735683352+739669466+742232401+743477389
1668+743086815+742397608+743613969+747108543+750554272+751480965+750736358
1658+750933407+753611220+759234999+766623067+770861382+770156469+769317821
1648+770727831+772150516+770321862+766127322+762333929+760006006+759393590
1638+760617371+762520714+762239640+758955532+755630060+754499826+755305334
1628+756546675+757313230+757803411+757713820+756099589+753746193+753046845
1618+755174504+758304534+758907305+756357231+752980812+750729743+750265283
1608+751033756+751702807+751271674+749916197+748634173+748226844+748901212
1598+750647448+753332866+756339795+758718541+759929771+760206765+760253878
1588+760711784+761756013+763223586+765052673+767219655+769463305+771724638
1578+774343033+776694018+776514405+773367867+769726696+767221077+765383891
1568+763264455+761129315+759772911+759785338+762326200+769077987+778666672
1558+782212687+775911944+767586177+762136323+759756835+759021689+758538372
1548+757966948+758079786+759814831+763481042+768758578+774348165+777142588
1538+775872311+773648261+772841640+773135019+773317971+773695127+775773818
1528+780019181+785348653+790786017+796976582+804490039+811264022+814618368
1518+815136247+814993237+815612516+817931845+822379203+828440298+835365823
1508+842606182+848302857+850293132+850646052+852691911+857273685+863270354
1498+868725587+872199077+873877054+875204460+877446626+880970260+885324565
1488+889785093+893903893+897406566+900220217+902630806+905017590+907919347
1478+912178498+917954932+924011452+928864223+932080999+933881273+934663101
1468+935408635+936810112+937906773+937091619+935218634+935079519+938208745
1458+943143934+945245749+941635060+934985415+928741430+924835199+923803892
1448+924523025+925290199+925517420+925538751+925680463+926634670+929568022
1438+934595893+939101061+939418182+935979749+932733851+932487277+934815447
1428+936989416+937268265+936203570+935270756+935697191+938141537+942181381
1418+945880300+947673216+948129020+948040419+947113355+945325199+943643636
1408+943047976+943535621+944222170+944631663+945229240+946168423+946831724
1398+947180068+947956455+948897121+948896008+948328913+948502961+948997717
1388+947924675+945098163+943420434+945709652+952025420+960428906+968316119
1378+973154484+973828358+971992903+970957206+972373089+975269715+978320852
1368+981399378+984698449+987261013+987522116+985421539+983302103+983249054
1358+984695048+986466696+989021284+993348076+998968577+1004120539+1007664947
1348+1010299912+1013107690+1015384665+1015695974+1014469844+1013794981
1340+1015013815+1017667082+1020727678+1024064156+1028294185+1033168102
1331+1036952530+1038539618+1039202548+1040768305+1043152183+1045134915
1322+1046432582+1047314263+1047577902+1048065361+1051225564+1057266255
1314+1061681833+1060455518+1056071472+1053892495+1055434263+1058337009
1305+1060612068+1062113400+1063228176+1064771551+1067864731+1071996515
1297+1073741823+1070037773+1062813304+1056250158+1051348975+1046425533
1288+1040679766+1035214579+1031488394+1030019214+1029541152+1027002021
1280+1020597899+1012535586+1006390280+1003109326+1001197388+999544452+998127517
1270+996796463+994963605+992015476+987191393+979868060+970992757+963028443
1260+957825040+954959823+952079644+947216053+940988885+935808545+932664232
1250+929676223+924516780+917156535+908839053+899761817+889621308+879414395
1240+870902585+864574204+859146423+853256657+846910283+841018476+836499334
1230+833909751+833080068+832953690+832287915+830635845+828472943+826555936
1220+825329125+824792512+824714051+824898919+825615208+827597878+831033096
1210+834884609+838170571+841616300+846615606+852775998+857965304+860746434
1200+861677393+862425770+864445105+868183409+872837770+876970667+879967394
1190+882786980+886682515+891538192+896307185+900512236+904000379+906086427
1180+906640229+907138818+909320701+913986563+921443694+931322357+941951315
1170+951374794+958505715+963018550+965075353+965210511+964179513+963281324
1160+964264033+967619863+972030866+976616721+982217808+989398255+996847967
1150+1001847396+1001851477+997187593+991609321+988966998+990338179+994397004
1140+999130260+1002651729+1003168558+1000029810+995271946+992167142+991714307
1130+992502379+993881845+996297689+999484787+1003548991+1009040394+1014601663
1120+1018102111+1020120827+1022836727+1026202140+1028692487+1030231534
1111+1031503171+1031906481+1030358964+1026827849+1022645242+1020932147
1103+1024250879+1031490001+1038087153+1040053191+1038008260+1035093827
1094+1032237699+1028094849+1021997893+1014799331+1007779330+1002727470
1085+1001720276+1004315176+1007388386+1008914943+1009702891+1010541292
1077+1009533047+1004290012+996356859+990251619+987856982+986139930+981382808
1067+974562824+970070887+970437657+974110113+977571299+979393894+980972511
1057+982318095+981256244+977530492+973289580+969684827+966885087+966080754
1047+967591483+969027709+968188257+966756050+968656549+974420309+980266486
1037+982459312+980326831+975367714+969677779+965557248+964082936+964468502
1027+965846299+967786492+969174120+969486604+970239680+972772566+975947979
1017+977429587+976262812+973521872+971396872+971171938+971209468+967948670
1007+959609362+948446017+938230015+930804725+925763809+922243699+919655106
997+916345091+909945483+900497397+890933752+883618147+878436446+874407114
987+871494165+870257338+870432685+870628559+869397792+866461781+862775166
977+859198112+855707186+852024158+848119163+843967780+839370857+834274233
967+829239375+825198048+822522770+820685893+819287012+818868245+819835002
957+821410776+822725816+824137496+826552103+830395268+835731171+842138199
947+848423053+853748630+858861021+864995939+871899268+878053168+882550361
937+886039185+889957040+895359903+902331430+909782749+916346513+921889729
927+927302917+932366031+935118780+934544204+932157111+929919953+928498381
917+927450874+925862117+923121114+919450514+915927622+913828776+913803858
907+915476332+917620499+918856770+918861407+918948710+920808216+924984393
897+930320790+934673612+936719842+936911635+936577264+936923012+938934927
887+942872567+947278438+949864497+950073603+949638079+950571326+953300828
877+956497572+958454768+958374700+955483824+949554548+944392571+945587972
867+952982471+959286059+959493928+957594418+958951255+962884629+965987763
857+967426153+967820560+967697087+969247573+974286634+979813279+980914701
847+977803529+974951234+975829515+980797968+988049518+994181592+996519098
837+995642178+993223552+990156340+988084946+989106979+993021186+996992337
827+998064823+995644589+992035075+989962197+990369279+992482965+995175122
817+998108721+1002030410+1008175530+1015765841+1021867867+1024738524+1025087363
807+1023666719+1020280284+1014422421+1006058877+998737584+997284232+1001498433
797+1006468618+1007938540+1005415732+1000769470+995927581+991992413+989464474
787+988834251+989228163+987255324+979852232+968055015+955737013+946460503
777+942520575+944372043+949394288+953045969+953017342+951303257+950851226
767+952314161+955132202+958163059+958920711+957921740+960013291+966848114
757+974085010+977377032+977874817+979487997+983934490+988908013+990254834
747+986880703+981973522+979686654+981579053+986609644+992895240+998007136
737+999420423+996738777+992761133+991135402+993179468+996773401+998119974
727+995474251+991969166+992229342+995933331+998263047+996413804+993775314
717+994689826+998285367+1001437470+1003842865+1006655156+1008392921+1006039277
707+999999823+994910741+994670907+997583546+997851266+991572904+980569201
697+970232508+964268671+961874096+960979616+963177265+970639652+979224049
687+981171477+976032623+970364266+967909594+967710319+967479388+965328667
677+961670679+960527646+965433281+972367463+969748882+951206804+929587684
667+924558576+933949471+944216173+951704218+958873288+967176611+975775043
657+980525797+977787329+968238462+955099309+943276619+939228429+945035407
647+952487962+949749062+937787876+929630964+933941124+948089202+959726343
637+960538776+951753991+938396891+926965579+920164391+917850070+919401421
627+923256829+924631844+919639339+909303389+896429606+886210636+882899262
617+883037264+878760121+870189202+865103274+867161066+874314556+885150022
607+898261104+909345185+912819788+909460744+908295638+910258647
##END=
