##TITLE=<SNM>
##JCAMP-DX=4.24
##DATA TYPE=INFRARED SPECTRUM
##DATE=29/4/2025
##SAMPLING PROCEDURE=Instrument type and / or accessory
##ORIGIN=Admin
##XUNITS=1/CM
##YUNITS=ABSORBANCE
##RESOLUTION=4
##FIRSTX=4497.3318
##LASTX=599.83466
##DELTAX=-1.4281778
##MAXY=2.115169
##MINY=0.45669106
##XFACTOR=1
##YFACTOR=1.9699047e-09
##NPOINTS=2730
##FIRSTY=0.47139558
##XYDATA=(X++(Y..Y))
4497+239298675+239741829+239997884+239459359+238263910+237516380+237978187
4487+239122667+239663734+238894797+237423262+236487863+236627638+237348223
4477+238040548+238588393+239075177+239518618+239876929+239875704+239074421
4467+237607244+236424972+236239009+236761074+237487771+238430569+239477453
4457+240014571+239875567+239804401+240260217+240488844+239558483+237823964
4447+236604279+236735673+237945781+239298660+239893465+239449525+238579134
4437+238167449+238212230+237827897+236667260+235601526+235663796+236967355
4427+238773811+240053845+240083331+239022302+237810061+237237193+237306619
4417+237511539+237506410+237443686+237665172+238156329+238520253+238523883
4407+238280037+237800151+236945040+236010745+235770485+236572614+237694174
4397+238035798+237380947+236550314+236327043+236682510+237164635+237537651
4387+237708516+237436197+236519542+235079567+233517547+232457365+232475066
4377+233391993+234155332+233966389+233216574+232826009+233154274+233857976
4367+234344609+234316757+234004801+233798882+233832105+234123910+234831606
4357+235965737+237040821+237464851+237212155+236810303+236750302+237102274
4347+237603371+237859290+237533173+236668032+235853844+235705068+236081004
4337+236198055+235623765+234786007+234317226+234298254+234407757+234518439
4327+234822316+235445397+236151186+236454867+236085406+235360811+234843678
4317+234594961+234150990+233258179+232300086+231955905+232635023+234092366
4307+235474383+236050171+235921561+235781332+236113167+236749924+236993377
4297+236220733+234643600+233273943+232872152+233244018+233666324+233700545
4287+233493840+233424036+233526518+233451434+233065150+232608305+232207785
4277+231867841+231834088+232390934+233396834+234457894+235468846+236505805
4267+237220506+236994164+235970563+235209236+235332324+235768563+235757398
4257+235289055+234764978+234578289+235032879+235936705+236592085+236668682
4247+236522326+236412657+236063424+235211112+234158615+233569787+233899882
4237+234905601+235660907+235457182+234605430+233921199+233651906+233488197
4227+233451585+233932364+234875298+235703040+236080232+236264047+236679227
4217+237281944+237459950+236839683+236009187+235870108+236511751+237288510
4207+237739818+237971228+238280794+238700058+238936265+238696609+237919003
4197+236722753+235360827+234197133+233567336+233644432+234294457+234971244
4187+235229100+235456622+236389420+237892830+239007854+239149868+238585185
4177+237838034+237328178+237388315+237999337+238681299+239019216+239141865
4167+239419978+239899456+240261897+240098551+239173545+237769697+236712132
4157+236560299+236902710+237000714+236876809+237089263+237640512+237834539
4147+237278101+236485790+236251838+236743842+237439783+237795144+237761603
4137+237660089+237716958+237801483+237608953+237135497+236893224+237419616
4127+238521115+239308207+239213939+238637425+238272912+238258010+238337285
4117+238410508+238530510+238666473+238755052+238827443+238998822+239289114
4107+239404728+238881937+237644703+236256891+235408165+235271688+235512962
4097+235810576+236149265+236610467+237143909+237596154+237793600+237697381
4087+237618136+237980003+238733690+239341974+239371959+238805295+237931605
4077+237251369+237217934+237765022+238267828+238109883+237222215+236111518
4067+235479179+235719077+236585913+237390221+237720150+237907460+238468300
4057+239135723+239125738+238517908+238391582+239191397+239944146+239616123
4047+238383549+237079747+236218055+235894783+236026510+236395214+236723539
4037+236824161+236588515+235988370+235246997+234828837+235083394+235911455
4027+236819698+237377180+237634491+237978701+238649861+239588256+240588664
4017+241348917+241486756+240794386+239518664+238266406+237589452+237646216
4007+238157433+238672736+239050548+239655201+240776397+241902254+242123134
3997+241321549+240285755+239617228+239305151+239379297+240107689+241398388
3987+242607892+243097929+242766744+242075146+241626122+241630464+241795535
3977+241784219+241609435+241398646+241026310+240371641+239756715+239600268
3967+239759197+239821134+239949305+240768954+242394091+244023873+244634669
3957+243965415+242741101+241944539+242060032+243070395+244686424+246260154
3947+247018864+246795956+246109970+245475755+245043616+244719284+244269141
3937+243590206+243152499+243740722+245456526+247236220+247794942+247043887
3927+246000075+245444212+245144071+244589086+244189276+244913175+246819739
3917+248623850+248968862+247837045+246365647+245580129+245520854+245675410
3907+246253694+248286008+252045019+256028466+258340422+258378274+256441967
3897+253208183+250012055+248404452+249014007+250643925+251152223+250423331
3887+250500927+252390350+254571864+255457444+255550850+255419017+254533407
3878+253247942+253037893+254294250+255962686+257556416+259328273+260423447
3868+260012519+259191054+258967118+258525992+256963094+255053808+253862686
3858+253748191+255491938+260452071+266919276+268784750+264888172+259323643
3848+254977921+252938028+253372921+255600109+258306654+260734072+263020762
3838+264792195+264970050+263598320+261792091+260174760+258803242+258089434
3828+258504448+259599926+260733286+262471011+265283882+267225120+266484625
3818+264786113+263969067+263038977+260705933+258208952+257596810+259618625
3808+263031443+265278496+265647094+266178116+268147312+270028006+270271640
3798+269608635+268783903+267635626+266582388+266707775+268365651+270927777
3788+273811873+276859603+279607904+281485964+283115973+285964063+290237681
3778+294422129+297607834+300752237+305436390+312492863+321130175+329170717
3768+335369567+340347128+344580987+348095744+351753921+356397923+361173484
3758+364656743+367332092+371122526+377656963+387273140+397783551+405691292
3748+411004561+416779109+423930106+429039651+430094705+430211802+433058318
3738+439791095+448661209+456150457+459580824+459070923+456954916+455379704
3728+454640147+453795082+452590949+451830272+451587576+450786566+448858338
3718+446359118+444256031+443778021+446057238+450258691+452828411+451532083
3708+448063198+445247544+444944513+447233685+450150853+451866158+452717971
3698+453464063+454114693+455351050+458809890+465367082+473570681+479257996
3688+478838897+474118314+469779854+468433541+469856224+472626976+476220554
3678+481253850+486735291+488763612+486264150+482925826+480822194+478732996
3668+475334277+470798719+465637615+460646044+457257795+456400082+457766698
3658+460508191+463673199+466567099+469735587+474610817+481303260+486158127
3648+484382216+476947856+469002233+464229758+463095793+463668963+463966728
3638+463949421+464497598+465349048+465807451+466872610+470657598+476764677
3628+480517197+479039506+475063835+472578019+474009810+479461539+486156977
3618+490145417+490426541+489113602+488074585+487971527+489290548+492344935
3608+495970858+497964079+497652728+496531350+496490442+498300786+501338319
3598+504487079+506981427+508292036+508145226+507368906+507853240+510734493
3588+514511976+516008518+514381203+511922105+510954829+512056812+514164134
3578+515483851+514948775+513116676+511482461+511308722+513247328+517249989
3568+521929331+524796363+524658690+522787982+520978395+519950906+519410807
3558+519021452+519185388+520233270+521255796+521299912+521523395+524122586
3548+529064141+533193944+533214035+529448231+525243147+522951434+522138048
3538+521313346+520109880+519139094+518335149+516889258+514905688+513773327
3528+514278024+515326451+515515198+514755974+513505668+512126646+511408512
3518+512037023+513358676+513969033+513535260+512986568+513031228+513352262
3508+513451023+513567696+514127462+514774128+514585260+513301671+511859169
3498+511537712+512656336+514202622+515110230+515556409+516222198+516843690
3488+516482535+514905083+512990502+511734749+511321430+511236951+511067508
3478+510776732+510215030+509079340+507453719+505734873+504149586+503037043
3468+503249179+505408636+508885268+511878292+512466197+509907249+505512329
3458+501888554+500535856+500329499+499233447+497382679+496752836+497983565
3448+499448185+499537173+498337519+496680520+495090936+493968226+493663653
3438+494055005+494575527+494699432+494160211+493042645+492073766+492232316
3428+493546374+494851023+495065307+494408626+493942356+493998756+493937000
3418+493486767+493072600+492639856+491695122+490615651+490345783+490720735
3408+490506148+489257809+487837123+487048700+486902737+487286192+488223997
3398+489278233+489724110+489531580+489307704+489382320+489853007+491106732
3388+493176505+495045882+495606798+494864730+493599265+492405692+491356993
3378+490178398+488849725+488130501+489040650+491777120+495290364+497959359
3368+498994412+499307306+500480878+502884423+505474537+507203670+507745463
3358+507196801+506035725+505162066+505316168+506508652+508077994+509079098
3348+508959641+508192489+507827884+508284472+509073773+509697443+510169583
3338+510442204+509852785+507975239+505676264+504267378+503882108+503615750
3328+502917283+502064744+501600774+501681652+501765284+500929115+498906665
3318+496619733+495228093+495061283+495881416+497654997+500279635+502762909
3308+503712605+502912381+501546249+500664421+500358637+500463662+501001067
3298+501752970+502249921+502475945+502962427+503952003+504922849+505228452
3288+505041157+505245245+506225168+507209297+507306031+506927357+507422916
3278+509336167+511798290+513462400+513439888+511728274+509305183+507626369
3268+507427546+507943105+507750546+506448318+504896193+503838900+503271630
3258+503220374+504061657+505619683+506844542+507083547+506814163+506689925
3248+506906358+507666006+509025784+510028340+509222338+506499968+503429514
3238+501607551+501609216+503317380+506096210+508584507+509319525+507937417
3228+505455384+503377562+502450166+502086015+501429606+500935106+501798719
3218+503934363+505725009+505887977+504621907+502826964+500987209+499080918
3208+497259409+496018120+495515057+495208123+494641731+494140634+494246445
3198+494822944+495099952+494616314+493818421+493314329+492774230+491319685
3188+489000650+487022830+486337343+486618769+486811480+486387238+485819696
3178+485796125+486157431+485893827+484396014+482564247+482005842+482960077
3168+483852284+483354849+481995313+480872543+479850259+478231929+476433053
3158+475642966+476134259+476864587+476703768+475513645+474002064+472886496
3148+472249784+471601605+470603467+469567143+468968224+468715058+468284946
3138+467413768+466405100+465854865+466094929+466760415+466949616+466086033
3128+464665649+463829328+464091390+464811552+465021055+464314207+462841417
3118+461122511+459941586+459719435+460024976+460199442+460144585+459963009
3108+459339036+458068034+456790890+456286011+456324922+456098504+455585668
3098+455540402+456045281+456012361+454642779+452765263+451938746+452576395
3088+453636592+453977868+453383820+452350583+451606729+451662252+452104527
3078+451751633+450185105+448471797+447737051+447816083+447816900+447323399
3068+446621633+446134213+445978961+446043501+446261568+446560937+446617730
3058+446036844+444810472+443338015+442114154+441555780+441768733+442298847
3048+442455007+441979266+441156319+440399091+440027770+440204474+440787418
3038+441401073+441737568+441734966+441535689+441272599+440807297+439799325
3028+438210829+436581456+435588068+435328639+435130905+434281453+432916561
3018+431790070+431348944+431615151+432576587+433885380+434580973+433953097
3008+432367083+430777831+429835185+429596543+429645107+429415542+428677014
2998+427688194+426823583+426186054+425653429+425211789+425068791+425323591
2988+425686229+425732946+425382351+425001801+425042498+425500689+425783598
2978+425357964+424455984+423751435+423442232+423067976+422236163+421177630
2968+420416500+420129990+420057856+419928141+419740907+419597910+419414760
2958+418992606+418362945+417772679+417287800+416829185+416550694+416608698
2948+416721801+416534385+416163911+415869565+415529469+414881865+414028418
2938+413445535+413501270+413897796+413788657+412809126+411652287+411203324
2928+411515098+411951323+411970930+411498184+410708370+409757705+408845347
2918+408288425+408233235+408437656+408574904+408589488+408472270+407935258
2908+406782291+405490684+404936818+405391348+406104792+406138499+405379941
2898+404436447+403810114+403558915+403558583+403722549+403922098+403894715
2888+403421848+402603591+401830327+401422697+401359791+401375162+401276280
2878+401109228+400958696+400765955+400500777+400218292+399826002+399252196
2868+398838665+398938636+399240637+399176037+398730917+398205463+397649268
2858+397099608+396806411+396786078+396697302+396462412+396505741+397046929
2848+397501036+397029561+395604487+394040803+393025539+392608589+392539571
2838+392572673+392429101+391895084+391078158+390387316+390180051+390397361
2828+390552674+390193274+389394291+388678335+388427499+388477666+388350402
2818+387862256+387391326+387423036+387932424+388368466+388209493+387428604
2808+386404383+385475171+384717278+384148798+383891729+383956420+384039810
2798+383742680+382973682+382032519+381292569+380906814+380844635+381021551
2788+381237923+381191932+380788658+380295398+380033125+380013215+379943804
2778+379501983+378589564+377447490+376535676+376156154+376150980+376127016
2768+375990161+375980630+376141419+376145141+375767798+375165247+374590988
2758+374147139+373831400+373605951+373401076+373105611+372596072+371930525
2748+371481623+371555331+371886652+371877574+371330638+370606512+370090740
2738+369806167+369549976+369213299+368867818+368585272+368301335+367924718
2728+367482049+367102164+366897623+366852055+366814263+366626121+366247386
2718+365762145+365338810+365132998+365059260+364759528+364053557+363301594
2708+363004888+363138415+363197447+362858471+362283425+361741360+361246920
2698+360706065+360190293+359909744+359975434+360220278+360284485+359980214
2688+359526895+359260658+359201322+359087342+358718199+358117313+357473249
2678+356984558+356681981+356463854+356310206+356254320+356178827+355936676
2668+355635068+355482024+355434369+355317030+355176150+355167224+355175817
2658+354913816+354376683+353853347+353461087+353033849+352524129+352145788
2648+352019947+352022760+352084940+352305730+352641317+352783014+352502435
2638+351897373+351214367+350654632+350396050+350532391+350878871+351057209
2628+350916209+350697204+350633149+350584464+350289815+349791502+349348289
2618+349076484+348909099+348760504+348563769+348282887+347960371+347644935
2608+347345324+347147530+347205564+347514555+347838826+347906755+347600608
2598+347036152+346527491+346334326+346385038+346391090+346238107+346084398
2588+346080828+346178439+346226307+346120465+345868480+345621063+345571895
2578+345704151+345751958+345534163+345189862+344989435+345045896+345245536
2568+345347988+345196367+344910342+344758963+344795423+344786891+344560079
2558+344220891+343950933+343790083+343707298+343700944+343750264+343804546
2548+343862883+343965850+344119831+344293752+344424586+344399109+344147396
2538+343765847+343463119+343412529+343663818+344080042+344352754+344205914
2528+343636617+342961660+342641655+342946289+343652411+344173084+344140104
2518+343764455+343524391+343662396+344075352+344510729+344755604+344748948
2508+344587644+344406068+344276838+344228789+344265219+344341922+344398020
2498+344407006+344375084+344340409+344370606+344481228+344578869+344573060
2488+344531456+344649824+345015759+345404358+345428927+345012098+344567825
2478+344524799+344837451+345183598+345431983+345620791+345667025+345462513
2468+345170315+345073098+345144445+345066834+344694423+344245158+343986183
2458+343946909+344018559+344165096+344415085+344727555+344991372+345145686
2448+345204658+345181964+345119119+345164234+345441091+345811595+345909146
2438+345487930+344744439+344248093+344423618+345083990+345670625+345962127
2428+346227547+346665375+347113248+347405295+347629565+347891626+348096984
2418+348098739+347915560+347717735+347669898+347810838+348049238+348312358
2408+348705011+349373977+350150449+350552694+350318348+349745178+349352041
2398+349397155+349816404+350422344+351047164+351584812+351985967+352241432
2388+352352145+352257197+351823938+350935574+349480393+347280966+344277413
2378+340794275+337377191+334340928+331635200+329066751+326461055+323711514
2368+320927207+318574283+317229271+316978405+317287820+317820717+319116167
2358+321947222+326270735+331409569+336972949+342695725+347547536+350088481
2348+349689383+347133551+344319955+342877513+342733336+342748706+342323042
2338+341764577+341600490+341908271+342389427+342946107+343831627+345204325
2328+346872579+348485644+349746025+350599532+351395974+352602708+354231840
2318+355825872+357031155+357898338+358626972+359299418+359943391+360650965
2308+361490554+362367571+363074844+363487588+363678362+363855914+364195223
2298+364701645+365260231+365844415+366582157+367514213+368390595+368903280
2288+369115719+369425920+370026564+370637223+370877227+370698435+370320154
2278+369916578+369527979+369171453+368909180+368813505+368867667+368904551
2268+368735471+368365329+367975218+367669253+367363651+366986066+366665698
2258+366597225+366781403+367062587+367373454+367744564+368125265+368436798
2248+368771508+369299171+369973008+370508265+370676226+370528024+370332801
2238+370315615+370399277+370234706+369599992+368708693+367982843+367598299
2228+367400414+367169699+366806335+366340973+365869680+365423289+364935657
2218+364409689+363990651+363798848+363829741+364035039+364342487+364619132
2208+364768242+364853084+365025311+365344771+365719814+366020817+366224269
2198+366432654+366780284+367335662+368065537+368875624+369672792+370367477
2188+370886153+371267732+371666316+372165446+372671898+373038620+373213812
2178+373281589+373426432+373788495+374296642+374708539+374840553+374730748
2168+374597281+374633772+374825938+375004277+375064036+375050208+375077137
2158+375262798+375664801+376170255+376534677+376635768+376611259+376680217
2148+376919433+377278380+377704679+378149920+378514646+378698794+378720791
2138+378733772+378911505+379327729+379907223+380466626+380869537+381182431
2128+381581741+382107406+382663844+383225426+383806524+384280993+384491496
2118+384509711+384620030+385066935+385863044+386803330+387687730+388502780
2108+389282398+389906643+390239295+390360719+390497484+390829501+391421370
2098+392183499+392879576+393323940+393575139+393825884+394135480+394374212
2088+394422443+394337722+394289975+394364348+394470401+394490583+394485167
2078+394614034+394880453+395155162+395411535+395689390+395922465+396069971
2068+396279505+396697696+397276312+397875534+398386646+398729979+398951526
2058+399288475+399908302+400659418+401285811+401797831+402413967+403189288
2048+403925698+404474481+404969980+405688568+406711518+407782427+408566946
2038+409031098+409451740+410109874+411094457+412308817+413562783+414745645
2028+415926086+417208253+418577169+419961122+421336301+422755868+424351928
2018+426188233+428035522+429520506+430636316+431876274+433705953+436041963
2008+438385779+440359999+441913819+443130780+444157785+445229056+446418484
1998+447484067+448307377+449328814+451100700+453439706+455451142+456572762
1988+457179186+457967246+459207264+460727710+462243254+463577585+464838299
1978+466425645+468668915+471412707+474076528+476251749+478216105+480594203
1968+483483050+486313167+488667059+490699706+492653623+494570988+496548355
1958+498776587+501260738+503812122+506353733+509040126+512013967+515145208
1948+518113784+520762779+523271620+525855198+528374206+530533875+532459228
1938+534600258+537077208+539612313+542065783+544545154+547045644+549432003
1928+551715788+554096882+556744727+559575147+562352011+565101340+567945678
1918+570342264+571409390+571397105+571653327+572995918+575048233+577028171
1908+578653853+580152755+581681310+583099546+584294722+585332801+586188184
1898+586748676+587136216+587645331+588521894+589946423+591728235+593070402
1888+593414432+593238332+593280390+593724209+594458562+595287621+595873893
1878+596106877+596261554+596484310+596744223+597326683+598505036+599620877
1868+599371796+597496246+595143716+593332494+592133021+591196608+590362042
1858+589563604+588582228+587228199+585556889+583784155+582172754+581021089
1848+580633246+581137157+582020498+581920103+579876442+576668952+573821225
1838+572103621+571178161+570383414+569857899+570257966+571304093+571590209
1828+570480541+568793134+567050476+564982669+562735859+560966453+559784590
1818+558666510+557383163+556395373+556160695+556439065+556487598+555860055
1808+554844730+554114553+554263057+555566435+557692396+559586524+560231011
1798+559843108+559787737+561202765+563909068+566229707+566461299+565094562
1788+564013336+564226531+565466005+567149539+569049839+570867899+572075179
1778+572851589+574411915+577853115+582829405+587087683+588395599+587321271
1768+585859828+585143569+585693714+587681942+590184006+591650109+592051749
1758+592665495+593904242+595539062+598138434+602410448+607399084+610681855
1748+611260018+610566876+610296555+611159684+613070029+615212088+616346144
1738+616577675+618037001+622319787+627417471+629244548+627818203+625798688
1728+624513828+624336518+625247757+626715554+628493856+631442946+636590676
1718+643050135+647228048+646802384+643798951+640939061+639286449+639177643
1708+640989772+644499476+648396840+651929963+656056014+661265833+665565442
1698+667340960+667528254+666471537+664106480+661899065+661234002+662130172
1688+664500253+669428857+677331121+684034396+684391073+680749265+677827407
1678+677523862+679568189+682354553+684419394+686308378+689208451+692182957
1668+692904299+691550996+690472554+690893559+692043469+692551919+692473491
1658+693265212+696429555+702563563+709601366+712042552+709907634+709032825
1648+711088952+713222781+711955047+708026336+704247279+702086279+702345950
1638+705485300+710046395+711875469+709163720+705481851+703741674+703752688
1628+704222347+704916457+706530277+708425676+708563409+706951403+706335902
1618+708664288+712398200+713658430+711736768+709379154+708528491+709121722
1608+710223282+711521636+713380302+715700639+717630773+718495778+718507578
1598+718490210+719299663+721387620+724455986+727597757+730104359+732027776
1588+733846260+735869648+738137033+740551229+742855711+744994078+747744920
1578+752090642+756831286+758164195+755490389+752498151+751134924+750106528
1568+747942139+745526067+744220995+744443086+746773408+752053122+758477059
1558+759717561+754669439+748797825+744475704+741949797+741234325+741885046
1548+743553331+746530923+750970807+756698939+764135901+772243554+774839356
1538+769454829+763366752+761502095+762823567+763832296+763343514+763404695
1528+765855624+770787980+777278605+784683796+792442457+799008847+803501439
1518+807365944+811679290+815538892+818331611+821338917+826134267+833108347
1508+841591497+849001833+851464683+850044571+849337450+852016400+857812794
1498+863827466+866972201+867448699+867856874+869942774+873869125+878499329
1488+882247947+884903235+887654864+891409291+895739824+899461572+902439226
1478+905899065+910365998+914805579+918494892+921963687+925247789+927827797
1468+930255245+933720712+938392430+942518178+944396330+944894552+945605243
1458+945326389+940234030+930547050+921314903+915577814+913459054+913596303
1448+914086900+913966111+913476422+912635078+910925401+908791875+908161548
1438+910761405+915668043+919148094+919433907+918356251+917811311+918186748
1428+919167277+920615225+922122176+923184461+924493225+927233477+930252159
1418+930140145+926485932+922452469+919793368+918317098+918007865+919363286
1408+922480487+926631410+930038964+930698822+928847600+927021492+927135805
1398+929158951+932315306+935783556+938051184+937984436+936579816+935503552
1388+934799276+933555869+932415701+933355079+936799910+940874947+943925884
1378+947025839+952614060+960657990+967337361+969285408+968012772+967000170
1368+967737912+970229567+974040273+977702052+979527313+979836909+980099424
1358+980721037+981661383+983319744+985532181+987155624+987400711+987056803
1348+987753394+989983139+992695009+995430238+999431568+1005464999+1011703578
1338+1015448202+1016391876+1016253296+1016483254+1017507052+1019023443
1330+1020678293+1022870519+1026933755+1033434667+1040060846+1042943430
1321+1040790902+1036385149+1033596969+1034377374+1038395345+1043755787
1312+1047921778+1049369666+1048767418+1048177031+1048919554+1050859431
1304+1053532269+1056819215+1060702116+1065025326+1069216613+1072437961
1295+1073741823+1071965700+1066655849+1058939549+1050697855+1043627494
1287+1039046005+1036874960+1035035659+1031564867+1026778594+1022347062
1278+1019112279+1016600533+1013835651+1010007819+1005787546+1003594775
1270+1004450098+1005607573+1003429629+998351673+994390465+993664403+993824708
1260+991562587+987125669+982920222+979357204+974976565+969336967+963276122
1250+956734120+948796273+939848850+931793483+925782442+920641126+914401579
1240+906668153+898451815+890691822+883647120+876827474+869514326+862007651
1230+855887017+852408842+851098323+850461219+849624837+848585548+847198720
1220+844843708+841283898+837436520+834937300+834855423+836893335+839779549
1210+842186544+843783057+845694371+849081108+853333575+857041345+860523151
1200+865193416+870583934+874652132+877109112+879488633+882042619+883664791
1190+884461353+885764186+888275993+891679855+895442875+899391072+903774979
1180+908796111+913896761+918210470+921881084+925973912+931353113+938439631
1170+947350685+957444569+967123319+974581522+978777347+980052404+980057003
1160+980618040+982273677+984034308+984980585+985806800+987586069+989508276
1150+990027376+989953668+991259890+993088419+992688292+990400150+989687461
1140+991909824+995044696+997972787+1002068520+1007021452+1009118608+1005968002
1130+1000519208+998408860+1002402685+1009857015+1015673197+1017624209
1121+1016611063+1013587357+1010104886+1008935852+1011643063+1017527990
1113+1024937357+1032070896+1037312122+1040959861+1045059648+1048520274
1104+1046881037+1040117972+1034106266+1033524109+1037056385+1038729995
1095+1034638800+1027621693+1022774542+1022319830+1024909278+1027207284
1087+1026452175+1022629305+1018112204+1015261149+1015220725+1015970327
1078+1013622577+1008524469+1004986142+1005746153+1009047866+1010463439
1070+1007806819+1002490856+996828141+992520423+989981989+988541484+987684770
1060+987729067+988795285+989755481+990808023+993708942+997053742+996235515
1050+989898781+982935290+980989664+985147244+991648943+995374080+995080581
1040+993752271+993348756+992514432+989652000+985724559+983245068+983574997
1030+984998618+983777844+978684335+973047521+971291731+975071453+982284448
1020+988557460+990902124+990399847+989562800+988453676+985556872+981230817
1010+977934491+977128972+977258717+974866549+968210960+958743832+948779268
1000+939598438+931758686+925718235+921937605+919944837+917547828+912492262
990+904663706+896128029+889448294+886238565+886379021+888066307+889072555
980+887957017+884691674+880702811+877553536+875132623+872051187+868135365
970+864866876+862672350+859794366+854971905+849377148+844643403+841259269
960+839806418+841240267+845041593+849029064+851754793+853369703+854123965
950+854369052+855580809+859027153+863951280+868781789+873136951+877182759
940+880469888+882959485+885910028+890732186+897799279+906686671+916543335
930+925921385+933495474+939193531+943824279+947194374+947114070+942585350
920+936913316+934009552+933597927+932833801+930954862+929174382+927457080
910+924974805+922536464+921690945+922685634+925179952+929495355+935368119
900+940790770+944087339+946170395+948349186+949283058+947459975+944676455
890+943952813+946142195+949913808+953264236+954622985+954659475+956327760
880+960555659+963689502+962132323+957859885+956112084+958490333+961825692
870+964072926+966416380+969235362+970964646+971281625+972684792+977169215
860+983374570+988271768+989924923+988314975+985348336+983528279+983007666
850+982284327+981306522+981127578+981898361+982742186+983260862+984283752
840+986484934+988496884+987946317+985526130+985543377+991181523+1000988565
830+1009717709+1013640853+1014177502+1013576888+1012166701+1010906531
821+1012726528+1018343372+1022564433+1021159026+1017738220+1015653953
813+1012381893+1008170455+1009271651+1016890401+1023786115+1025735553
804+1027574733+1033719815+1040460368+1042319033+1040081179+1037099108
795+1034741918+1032746972+1029766232+1025293187+1020494448+1016259106
787+1011601005+1004674307+996419360+990663754+988991657+988266624+985685103
777+982560277+979796787+974951573+967498392+961930747+961963546+966421947
767+972052468+977284133+981629310+983841506+982505390+978326085+975373969
757+978163844+987235202+998094544+1003898138+1001107356+992842122+986218122
747+985931461+989681107+992759034+993392690+990354098+983239924+975800723
737+971621539+969764628+970275014+978294980+995114349+1010419323+1012917756
727+1007486875+1005759890+1007521671+1004959273+997122911+990618186+991280949
717+1000649982+1013900463+1022985498+1023033063+1016661290+1009857318
708+1004213786+998230158+993499318+994236454+1000410402+1005925884+1006390822
698+1004563685+1004388796+1005371806+1002748591+991760533+975365437+963620393
688+962881926+970259280+978770267+983981659+984155157+980942402+978490142
678+978040695+975539115+968033589+959127680+952788646+947889997+943409568
668+943522429+951360063+960409877+964025724+962906434+957794408+948920269
658+941831391+944984175+958898569+971792979+970923617+957987149+944989561
648+942104314+953052856+974099094+995324397+1004984690+996799880+977654971
638+958145154+941855294+928995983+923009754+925954729+931446549+932862485
628+932277242+937229024+953837920+976912206+987683801+976951057+959501241
618+951803579+954755029+957305263+952270878+940865446+927189361+915289278
608+908153197+905355880+907472885+918540157+936631375+945804217+937710544
##END=
