##TITLE=<SNM>
##JCAMP-DX=4.24
##DATA TYPE=INFRARED SPECTRUM
##DATE=29/4/2025
##SAMPLING PROCEDURE=Instrument type and / or accessory
##ORIGIN=Admin
##XUNITS=1/CM
##YUNITS=ABSORBANCE
##RESOLUTION=4
##FIRSTX=4497.3318
##LASTX=599.83466
##DELTAX=-1.4281778
##MAXY=2.1550295
##MINY=0.55863035
##XFACTOR=1
##YFACTOR=2.0070277e-09
##NPOINTS=2730
##FIRSTY=0.57439464
##XYDATA=(X++(Y..Y))
4497+286191693+287048925+286911958+286059864+285706013+286162173+286610375
4487+286632352+286803739+287578648+288470567+288688877+288179645+287653071
4477+287697053+288090195+288218787+288165628+288498483+288991677+288891743
4467+288376246+288396233+289104321+289649339+289345944+288274946+287223490
4457+287311307+288786969+290089849+289529864+287796660+286929391+287360694
4447+287894337+287943962+287833931+287412191+286216253+284688263+283952823
4437+284491366+285630788+286327146+286153323+285483634+284931490+284788434
4427+284904999+284998102+285023642+285103916+285155858+284913314+284260048
4417+283321236+282441760+282140088+282719377+283790583+284428644+284160263
4407+283704637+284141731+285328700+285823616+284695331+282737790+281495078
4397+281876786+283754707+286001181+287190970+287013317+286395688+285945735
4387+285279164+284046460+282601417+281364734+280291419+279233815+278420180
4377+278337145+279201207+280786722+282621849+284094482+284809876+284975205
4367+285189357+285855750+286840653+287511055+287153848+285712665+284126882
4357+283627392+284638697+286563096+288436711+289480565+289306921+288265977
4347+287366337+287231627+287426178+287285172+286989084+287089641+287411745
4337+287247901+286354794+285126100+283988312+283049559+282322167+282009803
4327+282397154+283493454+284808332+285464538+284795918+283182012+281842930
4317+281491306+281844475+282536259+283471448+284184081+284171429+283916175
4307+284245674+284918304+285036739+284470904+283913146+283896218+284346885
4297+284798472+284803966+284289687+283579965+283179725+283581034+284871024
4287+286212660+286366584+285163460+283794681+283484307+284345935+285497919
4277+286036284+285841435+285545079+285821864+286688600+287381661+286970107
4267+285384502+283735790+283173251+283673691+284453471+285092987+285717030
4257+286493632+287313148+287807352+287726068+287296012+286821290+286232350
4247+285615077+285553365+286194544+286711853+286427139+285778446+285593814
4237+286054132+286711942+287071614+286976254+286621304+286303951+286197781
4227+286252930+286189406+285770962+285260751+285194049+285576381+285849869
4217+285665683+285175161+284710655+284710626+285630817+287318493+288735027
4207+288860947+287698776+286014396+284480318+283450541+283210017+283860046
4197+284947823+285711180+285923105+286062151+286469399+286831863+286574025
4187+285475913+284092611+283495474+284059735+284773288+284554058+283812619
4177+283654417+284158243+284577757+284590141+284435771+284413082+284745729
4167+285470508+286312475+286920036+287103480+286755361+285893585+284900455
4157+284282233+284117498+284181853+284501611+285169875+285722376+285518351
4147+284842782+284728177+285505432+286366377+286510620+286028295+285603852
4137+285910097+287139296+288707081+289650556+289596060+289017871+288394688
4127+287651200+286619463+285457827+284405004+283643518+283532567+284431376
4117+286070496+287567719+288249317+288125684+287482694+286434771+285133911
4107+284076633+283782238+284293310+285338530+286761449+288306961+289222044
4097+288730038+286980412+285129605+284382552+285029582+286264067+286869817
4087+286245179+284923887+284088097+284505621+285965157+287637093+288851800
4077+289432811+289423901+288877280+288045203+287452520+287403370+287448719
4067+286839257+285632421+284745818+284836011+285644508+286426871+286621957
4057+286292221+286095204+286395985+286702231+286560601+286379741+286625135
4047+286994489+287052518+286903375+286824408+286892209+287060567+287201870
4037+287147790+286859006+286490425+286289607+286397500+286614295+286540347
4027+286140494+285876538+286045668+286330145+286234607+285635836+284759716
4017+284004883+283884517+284641519+285714239+286120863+285650982+285101926
4007+285119715+285498424+285782128+285891209+286014456+286339173+286895476
3997+287457807+287759182+287853324+287986430+288137445+288066853+287849434
3987+287966503+288675572+289552048+289863936+289246515+287963266+286712299
3977+286104589+286170994+286499364+286868035+287365416+287918808+288304793
3967+288627461+289177378+289820250+290046608+289697063+289273273+289340806
3957+289856185+290302278+290329452+290099738+290022523+290204126+290286776
3947+290084028+290076039+290712110+291635271+292057992+291698706+291023077
3937+290783355+291492781+292940052+294228439+294585171+294081879+293434671
3927+293280450+293705339+294294932+294661019+294829941+295021374+295254355
3917+295108182+293969710+291922867+289948605+288834931+288507095+288853314
3907+290585032+294515826+299913580+304171289+305213955+303470387+300500293
3897+297418387+295275738+295289696+297560016+299782256+299165607+296588002
3887+295304485+296328976+297688430+297945882+297939942+297854115+296651615
3878+295044658+295022236+296760606+299010109+301566005+304476940+305983667
3868+305126554+303879269+303769357+303741262+302375393+300296743+299174041
3858+300285696+304698992+312538662+319059564+317173505+309169398+301381135
3848+296769397+295759577+297639132+301103578+304753963+307847125+310176872
3838+311105408+309970025+307441956+304888138+302901047+301449975+300855926
3828+301406675+302539683+303983984+306808112+310991309+313284289+311929497
3818+309912055+309189563+307813151+304339379+300601118+299039242+300637439
3808+304186910+307020304+308492789+310422949+313006821+313920330+312584842
3798+310689993+308529644+305654138+303125713+302432087+303546414+305470872
3788+307817309+310659820+313283814+314803310+315945405+318294663+321823168
3778+324844847+326617311+328285357+331590147+337461257+344849488+350989691
3768+354205981+355225691+355331416+355732516+357709005+361278850+364643332
3758+366544092+368252527+371946687+379009784+389328878+399626381+405511806
3748+408196681+412467100+419775533+425693863+426908777+426788589+429509874
3738+436367907+445590314+453153050+455842172+454504337+452832936+453447030
3728+456242916+459297055+460477579+459143279+456700918+455139815+454821452
3718+454268209+452941096+452970229+456572445+461975990+463990225+460983424
3708+456409284+453431053+453183045+455294422+457955152+459469274+460235689
3698+461502990+463598271+466544666+470974504+477043195+482497880+483332482
3688+478869145+473315655+469997679+469099226+469767133+471912990+476494288
3678+483949220+491285361+492905623+489043550+485347608+483853860+481880311
3668+477297202+471799751+467703303+465501822+464608982+464963457+467245598
3658+471107165+474356836+475894686+477800048+482387552+489138079+493943596
3648+492677008+486570482+479869907+475259654+473136724+472691700+473224036
3638+474518957+476269355+478017110+480150404+484117548+490316227+495283569
3628+494306090+489195218+485172539+484359676+486511175+490734939+495475061
3618+498819201+500077801+500191663+500496067+501617165+503377423+504819082
3608+504375632+501522785+498033185+496305624+497208591+500035511+503827942
3598+508103736+512138740+514399468+513898939+512245415+512723137+516552452
3588+520440570+520094054+516133533+512310097+510659365+510762299+511202779
3578+510961097+510303109+510245851+511052032+512371275+514804192+519357544
3568+524669679+526716820+523486512+517561114+512517627+510088214+510159430
3558+511480989+512880714+514136166+515243960+515630093+515344339+515895771
3548+518209064+520852956+521534465+520054199+518385233+518033252+518769940
3538+519464279+519379105+518520893+517156628+515493244+513687608+511914045
3528+510328174+509038866+508313463+508339004+508790472+508908967+508155173
3518+506725810+505333154+504728978+505010040+505361070+505116477+504642854
3508+504330075+503561195+501986608+500575420+500334688+501053082+501680600
3498+501561274+501174725+501500987+502742897+504160084+505073831+505432939
3488+505545316+505804757+506371632+506775287+506261750+504839336+503224123
3478+501747599+500370385+499275005+498863154+499270788+500252128+501481980
3468+502511253+502758043+501992073+500444333+498519846+496852809+495881923
3458+495047500+493577866+492131664+492079574+493123309+493468340+492567600
3448+491849236+492156016+492310060+491001330+488685957+486813381+486226728
3438+486945597+488460698+489760964+489925521+489008150+487883488+487290568
3428+487111697+486336402+484137476+481252823+479463312+479484220+480308457
3418+480721972+480575234+480384068+480341927+480148712+479671644+479338789
3408+479551456+479998856+479912791+478874075+477335601+476373833+476579610
3398+477318376+477747334+477931847+478209702+478349015+477998995+477458432
3388+477567839+478886013+480886023+482196090+482158848+481587103+481470360
3378+481947280+482780278+483617880+483782644+482968979+482044838+482294390
3368+483992401+486196406+487858809+488840505+489775219+491141355+492704775
3358+493589448+492896119+490849514+489185031+489597239+491668376+493097175
3348+492560681+491361150+491325661+492426000+493489663+493925510+493749966
3338+493140979+492738334+493179230+494043471+494294894+493657961+492818548
3328+492545594+493045738+493624017+492966504+490724574+488423546+487776635
3318+488704667+489886497+490626482+491129922+491615394+491894882+491669237
3308+491060815+490460025+489901733+489222005+488729227+488770715+488832487
3298+488398124+488292697+489594121+491844395+493678097+494417635+494041273
3288+492723040+491292399+490993994+492203355+494181952+496254633+498425525
3278+500599060+502036560+502101183+500980797+499301080+497682660+496733305
3268+496582320+496582112+496192178+495666049+495456084+495721970+496538872
3258+497575955+497767032+496422189+494295280+492675374+491940825+491648003
3248+491601258+492048747+492804145+493070120+492511026+491674879+491155907
3238+491086949+491299557+491334541+490729623+489791256+489332036+489542803
3228+489922521+489995044+489457392+488261959+486881004+485750075+484562513
3218+482932837+481422309+481083336+482155522+483660497+484330097+483763489
3208+482537498+481462669+480989521+481053639+481208246+480937638+480001261
3198+478650657+477486170+476889092+476480151+475512591+473989888+472865077
3188+472774320+473087723+472775805+471901853+471409490+471430517+470818560
3178+468796455+466251013+464693681+464601558+465281612+465800079+465661983
3168+464845972+463560495+462127628+460932047+460184787+459681109+459059323
3158+458367301+458079112+458436170+458981069+459065025+458713371+458399167
3148+458050245+457154792+455857436+454994235+454899796+454920644+454289502
3138+452997730+451644037+450800377+450623496+450773679+450708076+450295927
3128+449936166+449831184+449635296+449163544+448732775+448394842+447718262
3118+446644592+445645582+444900786+444213338+443738972+443921823+444668251
3108+445259033+445087557+444084835+442589750+441211022+440604946+440888591
3098+441339020+441127600+440380132+439980011+440200608+440244383+439503181
3088+438500310+437983179+437870624+437705325+437481877+437397179+437256470
3078+436670796+435610965+434477631+433693515+433389319+433443904+433587226
3068+433510190+433166347+432827820+432521188+431821237+430615559+429415790
3058+428567082+427913845+427362295+427045447+426990535+427130799+427351663
3048+427388191+427138075+426879406+426775017+426581179+426144618+425725253
3038+425584782+425642307+425635952+425393082+424997030+424704148+424516873
3028+424006127+422869823+421518180+420633032+420236178+419798311+419220567
3018+419012829+419470564+420268638+420837057+420722155+419795698+418485987
3008+417529238+417254442+417366107+417458527+417398626+417168556+416742598
2998+416240524+415888811+415703496+415371146+414572062+413415148+412448153
2988+412133711+412367077+412657375+412744806+412743529+412714484+412504134
2978+412088392+411718385+411518874+411170903+410236634+408688568+406994032
2968+405798035+405556234+406236674+407278568+407971748+407889544+406971669
2958+405529328+404270906+403832505+404098658+404363891+404221340+403884239
2948+403638755+403449936+403191979+402956385+402997517+403416585+403920589
2938+403957652+403229666+402014425+400839187+400016732+399675264+399903404
2928+400479812+400752885+400294942+399439581+398737878+398272867+397919016
2918+397807203+398007308+398135246+397790245+397103034+396514064+396258216
2908+396308673+396542663+396681976+396315117+395364545+394402746+394131158
2898+394601723+395209700+395356051+394901613+394140335+393525379+393278173
2888+393190000+392907691+392330066+391603624+390944715+390555968+390478368
2878+390505482+390451550+390431504+390678146+391182120+391667177+391862946
2868+391707478+391299932+390739561+390059240+389302417+388609148+388154086
2858+387962415+387859096+387729494+387750104+388136326+388740858+389187664
2848+389338678+389358071+389343341+389095363+388346647+387185219+386083098
2838+385397758+385078772+384995380+385186457+385608614+386009180+386182794
2828+386040481+385481298+384557216+383626660+383020822+382699282+382404054
2818+382006398+381612841+381403648+381406737+381475904+381499543+381493604
2808+381434505+381160392+380560939+379802482+379209770+378918285+378825449
2798+378840922+378908247+378866848+378651805+378500613+378616494+378857404
2788+379008507+379024336+378824172+378232499+377306041+376419824+375838308
2778+375365071+374643351+373747007+373162165+373166323+373522788+373792564
2768+373733109+373433694+373180073+373143871+373240954+373304597+373200149
2758+372792693+372077655+371312397+370772577+370408154+369893013+369007687
2748+367932590+367121479+366881995+367161780+367654855+367931818+367645619
2738+366901804+366230837+365952656+365844110+365631948+365463026+365591351
2728+365893142+366036524+365922840+365651311+365256863+364790753+364450177
2718+364339374+364268099+363963338+363372348+362685553+362128301+361777360
2708+361601934+361615684+361827520+362097593+362232630+362136943+361781458
2698+361218088+360660478+360344938+360303360+360376002+360381139+360229709
2688+359930681+359495130+358899656+358246331+357814730+357774786+357959240
2678+358069152+358027249+358007826+358103810+358083734+357657271+356932374
2668+356361163+356221375+356362173+356477727+356466294+356439001+356434784
2658+356281127+355858970+355353154+355001293+354767035+354534411+354381081
2648+354363084+354324387+354173224+354013331+353892757+353815661+353926137
2638+354220355+354299560+353890559+353290601+352919762+352821729+352820393
2628+352769075+352570722+352265754+352062412+352105385+352290908+352347037
2618+352059293+351502783+351026843+350897925+351048167+351244678+351367063
2608+351508248+351889035+352563832+353197973+353373191+353067985+352575711
2598+352084685+351604202+351142873+350721103+350343701+350091714+350078350
2588+350246054+350363331+350287037+350129846+350118620+350336395+350637949
2578+350838944+350956637+351127906+351306331+351300688+351143259+351086655
2568+351168473+351111958+350737942+350193459+349744426+349578266+349770204
2558+350213802+350606558+350693989+350529284+350364638+350317804+350258468
2548+349989375+349464463+348882264+348577058+348705858+349044474+349222514
2538+349110641+348851022+348643908+348640107+348871513+349192489+349434141
2528+349603331+349807534+350080547+350373904+350608310+350725558+350768798
2518+350801436+350715549+350374498+349963389+349849705+350087408+350400691
2508+350613477+350765056+350859674+350833985+350742634+350689890+350623248
2498+350470987+350400840+350622357+350991711+351127371+350902914+350585205
2488+350493587+350666666+350865197+350880046+350758463+350587314+350253687
2478+349767026+349560269+349983108+350730101+351217445+351298520+351251241
2468+351286018+351325308+351166127+350789824+350456642+350357986+350329565
2458+350188499+350148407+350503328+351064708+351313488+351065480+350671715
2448+350522661+350590343+350592332+350455484+350376399+350446308+350478144
2438+350282939+349932473+349657203+349605736+349784399+350125510+350508762
2428+350774797+350810108+350616833+350312667+350115472+350254637+350777054
2418+351488469+352150110+352650372+352985454+353238570+353542321+353887797
2408+354075815+354020636+353946540+354120332+354533877+354961230+355206298
2398+355248736+355235937+355370854+355821373+356774202+358515394+361363340
2388+365597053+371600171+380044461+391721020+407094381+426128938+448572198
2378+474104937+501958573+530724145+559105246+586653854+613013831+636871100
2368+656542381+670849021+679287759+682579125+682211048+678358450+669727982
2358+655860635+637988100+616689370+590756391+561986603+537397991+523382866
2348+522194353+532887701+551430638+570873185+585799325+595627392+601613434
2338+604635499+605623016+605713060+605947437+606829348+607592051+606327392
2328+601917482+595244883+587652716+579436535+570693394+562103137+553829699
2318+545003106+535157992+524999861+515334360+506069901+496518559+486333700
2308+475875857+465772964+456384397+447689277+439548589+432035300+425431600
2298+419846006+415022046+410630607+406520468+402624421+398912828+395514133
2288+392652704+390412824+388678314+387292132+386191080+385355201+384673870
2278+383983986+383257039+382595903+382036720+381530043+381105837+380854177
2268+380709458+380410697+379768449+378906109+378109134+377482566+376944201
2258+376494663+376233470+376129022+375995203+375697629+375285362+374960021
2248+374916127+375139486+375420339+375620236+375800770+376029534+376206534
2238+376176687+375927878+375579580+375204880+374766776+374249586+373727763
2228+373217047+372608714+371919216+371433446+371334463+371348867+371094325
2218+370645856+370381782+370406372+370487566+370449434+370340591+370296014
2208+370398145+370613871+370843229+371071636+371386137+371810284+372251952
2198+372632175+372958615+373268959+373589252+373977137+374541161+375343154
2188+376301181+377258733+378096780+378685572+378860879+378644173+378385266
2178+378460431+378873649+379338778+379694501+380007874+380274383+380304022
2168+380028840+379713923+379701183+380058182+380588974+381093869+381497375
2158+381768191+381871273+381844455+381814965+381908959+382225688+382863987
2148+383839090+385003191+386162243+387258514+388400906+389778297+391551949
2138+393763587+396352240+399272619+402535951+406103271+409787957+413315304
2128+416505608+419413514+422303008+425499965+429141737+432909845+436130412
2118+438347959+439661025+440363471+440585464+440443092+440184155+439993643
2108+439782787+439208666+437938959+436026677+433932525+432041417+430302156
2098+428410098+426173010+423680103+421231476+419053842+417054100+414965056
2088+412734501+410639606+408989230+407784206+406726156+405573489+404396291
2078+403412160+402703358+402209511+401902582+401821091+401944338+402158341
2068+402379858+402600930+402764506+402738253+402482227+402130989+401896257
2058+401951376+402344369+402961374+403637597+404300961+404958385+405615244
2048+406258710+406868885+407461092+408121040+408919886+409826951+410776573
2038+411729135+412641695+413526219+414531792+415838800+417496184+419374105
2028+421191918+422685280+423854697+424949513+426220497+427820386+429770770
2018+431793736+433406841+434458535+435336882+436465316+437876742+439378806
2008+440856755+442298650+443719758+445143419+446524107+447693465+448517257
1998+449103405+449806356+451012124+452785864+454651728+455944986+456553557
1988+457023676+457869177+459141349+460638750+462190528+463720864+465264832
1978+466939471+468797316+470743009+472650361+474541438+476616643+479020783
1968+481502672+483521569+484941578+486341213+488355330+491031592+493983867
1958+496806302+499202661+501099352+502773901+504633885+506919322+509706179
1948+512941833+516420712+519902264+523080719+525447231+526782987+527739024
1938+529264014+531673767+534629546+537705187+540702009+543625774+546516337
1928+549297908+551907646+554450802+557038683+559718925+562640195+565740010
1918+568208208+569111383+568779063+568653559+569835419+572277899+575029950
1908+577062539+578000163+578203891+578309378+578711192+579413489+580362221
1898+581703737+583414103+585020525+586306388+587817064+589842644+591525034
1888+591951497+591484169+590995103+590764409+590678582+590569710+590222481
1878+589748739+589735494+590531459+591881885+593556078+595564908+597359140
1868+597657843+595970345+593426654+591421982+590400966+589881845+589093721
1858+587668990+585956190+584594656+583785327+583267038+582879955+582767103
1848+583165412+584078922+584681553+583453304+580269622+577071032+575279710
1838+574440149+573392048+572022615+571429903+572356836+573913841+574296411
1828+573109977+571476707+569615298+566652807+562781914+559537055+557888639
1818+557405513+557183075+556995324+557218237+557873493+558262121+557755355
1808+556643879+555833480+556037090+557396544+559381972+560924009+561193013
1798+560473610+559999214+561071133+564091060+567531688+568706065+567187786
1788+565158940+564318131+564779043+566119609+568123866+570285047+571757591
1778+572585154+574193062+578048393+583899783+589027969+590677097+589521965
1768+587741869+586345649+586004122+587469657+590202524+592331096+593176716
1758+593787306+594720892+596003785+598556266+603331283+609168241+613054755
1748+613701339+612718395+612002615+612545137+614615680+617369632+619039727
1738+619409348+620922103+625513409+630800360+632023916+629601097+626913846
1728+625226586+624616352+625290852+627095954+629683598+633668471+639990456
1718+647242225+650925486+648966014+644548678+640978804+639425601+640068443
1708+642872763+647230524+651724242+655847211+660909646+667164929+671529639
1698+672042167+670465739+667428172+663256736+660522800+660931860+663415026
1688+666452712+670783092+677401284+682866186+682473875+678399730+675266238
1678+675342027+678739534+683512295+687208029+690002786+693216106+695432822
1668+694220313+691336640+690404540+692060617+693961703+694216630+693919176
1658+695408054+700508917+710310613+722411823+727661770+724270381+721372928
1648+722625767+724767287+723080740+718590941+715444382+715562224+719127821
1638+725592594+732476880+734677024+730786234+726217677+725349427+728758873
1628+734734757+741016175+746659739+751748724+756009016+759377538+762982752
1618+767909942+773268347+776852298+778751186+780630473+782412827+782398691
1608+779910832+776591965+774557179+774608973+776283047+778607567+780865444
1598+783112333+786026476+790009389+794464559+798105174+799929342+800105154
1588+800126596+801724822+805269868+809416418+812507263+814321394+816198840
1578+819412338+823282102+825331322+825306375+825791106+828095015+830915371
1568+832626806+833883802+835994793+839136898+843760099+851754436+863562289
1558+872229285+871540767+866332100+861440963+858077787+855726955+853485590
1548+851795894+852357602+855678547+860207428+864594353+868482411+869582245
1538+866373202+862304164+860349800+859621606+857682744+854905984+853902965
1528+855686269+858941701+861906865+864431430+867608697+871806742+875880828
1518+878514919+879335474+878939838+878590827+879571870+883026100+890104552
1508+900509591+908219481+905449195+897049422+891581491+891411737+895454700
1498+901333710+906056400+908098967+909232479+912163312+917487980+922633212
1488+924129455+921803926+918444492+916524221+916950209+919470735+923227171
1478+927710436+933708060+942030322+950436926+953587286+950001138+944764138
1468+941781571+940653939+939066642+935673768+931700596+929448124+930083304
1458+932712049+934013236+931574320+927522864+924389015+922245594+920251197
1448+918671028+918471992+919678680+921420941+922645685+922768397+922763942
1438+924425544+927460676+928941120+927866172+926473397+926240506+926553997
1428+926824962+927944813+930584071+933344022+934264243+933824476+933952830
1418+934114447+931940793+927748509+924185168+923393955+925529239+928575716
1408+930088412+929263343+927058269+925221925+925298902+927398548+929700556
1398+930301643+929635696+929333371+929809904+930549503+931169121+931268966
1388+930537920+929301238+928341221+928645566+931275202+936212311+941425077
1378+944466268+945155973+945517992+947220160+949996802+952756872+955280842
1368+958288296+962505527+967529473+971530383+972848023+972107533+971470453
1358+972119294+973827640+976096565+978967230+982845487+987392425+990956953
1348+992388098+992649440+993302677+995151494+998680801+1003994361+1010156334
1338+1015800729+1019847850+1021364585+1020901534+1021121418+1024107964
1330+1029026660+1033838801+1037401963+1038965739+1038017186+1035851016
1321+1036184940+1042294763+1053251888+1063005176+1065296552+1061242779
1312+1058082084+1060173059+1065166713+1068866248+1070306600+1070828571
1304+1071325002+1071950085+1072918833+1073741823+1073059482+1070395812
1295+1067129986+1065208290+1065360106+1066078559+1063989010+1057120583
1287+1048410287+1042965818+1041899898+1041298812+1037939259+1033535525
1278+1030923529+1029499333+1026946021+1022922065+1019136999+1017450155
1270+1018419972+1020435038+1020775020+1017895149+1012014357+1004304052
1261+996990986+992847169+992439535+992624494+989472233+982710540+975619496
1251+970805456+967619517+963547450+957049951+948609431+940223200+933722315
1241+928575835+922262166+913236062+902579065+892324297+883448346+875913496
1231+869622872+864851240+861779164+859707136+857153289+853028538+847547600
1221+842005840+837799776+835493551+834760783+835083244+836058762+837313620
1211+838661908+840146628+841666036+843015690+844512349+846757396+849933950
1201+853983209+858812336+863857249+868315449+872133479+876015895+880002372
1191+882864068+883632948+883445317+884908060+889096959+894110570+897333572
1181+898462035+899542507+902753926+908130387+913540466+917530566+921537951
1171+928355595+938593079+949092083+955694595+957876267+958944562+961484154
1161+964970518+967715382+968693930+968464662+968745842+970091695+971990405
1151+975056601+980320566+986142497+989060797+988803078+988906843+991381159
1141+994173421+994073339+990426191+986736515+988112779+995581224+1004092008
1131+1008071536+1007337877+1005029989+1003429150+1003286481+1004851564
1123+1008407004+1012775932+1015176597+1014253822+1012428703+1012819766
1114+1015186932+1017765547+1020416388+1023290795+1025311445+1026822240
1105+1028928538+1029458231+1026400410+1022736274+1022603465+1025469200
1097+1028134533+1029383986+1029738937+1029191306+1027223162+1023119022
1088+1017289192+1012813827+1013325938+1019655051+1028672898+1035168200
1080+1035744460+1030771357+1022975640+1014758925+1006151503+996740929+989652856
1070+989597439+996558228+1004269483+1006353330+1002422270+995943895+990190745
1060+987266446+986832143+986569078+986011469+987503970+991828173+995637531
1050+995973772+993625850+989319645+982654233+975855714+972616497+974038317
1040+978861505+985552398+992178252+995675069+994171402+989768262+986484261
1030+986403067+987951994+987311468+981951460+973486291+966524850+964981862
1020+969686258+977874463+984847428+987816452+987726467+986351095+984112997
1010+981509673+979011183+975564555+970567991+965606410+961258271+955339941
1000+946851252+938389826+932751845+929278845+924737313+917175676+907754708
990+898871273+892005103+887400730+884736822+883557634+882908912+881260140
980+877950183+874162979+871231492+868743991+865757147+862838490+860923268
970+859652611+857885700+854864467+851003612+847794509+846300582+846000514
960+845647643+844347050+841682845+838433056+836980944+839357672+845128760
950+852461010+860520088+868599005+874077805+874884343+873276792+873656866
940+877422331+882318041+886341522+890171194+895340838+902319326+910962029
930+920785404+929883199+934943258+934217202+930000803+926776554+927782959
920+933171714+940021076+943957839+942922567+939200699+935560857+931566836
910+926159608+920664296+917080999+915812420+915652526+915782900+916974502
900+919941863+923863480+927353942+930532515+934681322+939036944+940953770
890+939925448+938427720+938296871+939509083+941471940+943465268+945593424
880+947876545+948996930+949318203+951126988+954490520+957308204+958932208
870+960520455+962458069+964768987+968912685+975326793+981250350+983397691
860+981071212+975983178+970560210+966609786+965210121+966731013+969897708
850+971915269+971676141+971230909+972432251+974894747+977423589+978921138
840+978352125+976450743+976093595+978899696+983375893+987141417+988675258
830+987082556+983006213+979434438+979533273+983992542+990852535+997202080
820+1001157849+1002066844+1001128270+1002006854+1006929827+1013165332
811+1016208661+1016586657+1019370782+1025468844+1028580241+1024168429
803+1016362734+1012173776+1012949487+1012851365+1007458095+1001056519+999790317
793+1002350638+1002311556+997654558+992233372+989299212+988237094+986089456
783+981871929+977860089+975145636+971576712+965925545+960579613+958512457
773+959595957+961182482+961638940+962719887+967711818+975892658+980617071
763+977006748+968955153+963077866+961586315+963712987+968641662+975501536
753+982002778+985487835+986531243+988375190+991891786+993847278+992017408
743+989225740+988198190+987427884+985431349+984126361+985611022+988843467
733+990821768+990000322+988382733+989161592+993535628+1000110699+1005108867
723+1004191437+997580313+990955528+988903160+990722280+993707044+997341779
713+1001485002+1004566107+1005716725+1004287065+998747443+990944302+987914040
703+995174659+1008819925+1016612078+1010892012+997251853+985186578+979787309
693+981499041+985865533+986855070+983647273+980368855+980131212+983389970
683+989595539+994465590+990279127+977477283+965622091+960820880+960813752
673+960787440+961339881+966973408+980389525+996765519+1007956664+1010940241
663+1003870937+986619505+965451387+949451131+942250680+939207767+934626915
653+930277469+933968749+948942049+965920556+969570495+957610054+942633665
643+934574706+933913154+936964323+943010058+953827305+965068164+966739210
633+959391041+949104259+933837602+912435999+891815511+881718261+886342413
623+899772488+908728504+903394868+887221116+871842736+866322596+872350809
613+883954518+891413638+891669635+892647470+896700352+896761945+891035702
603+885072290+884627474+890269257
##END=
