##TITLE=<SNM>
##JCAMP-DX=4.24
##DATA TYPE=INFRARED SPECTRUM
##DATE=29/4/2025
##SAMPLING PROCEDURE=Instrument type and / or accessory
##ORIGIN=Admin
##XUNITS=1/CM
##YUNITS=ABSORBANCE
##RESOLUTION=4
##FIRSTX=4497.3318
##LASTX=599.83466
##DELTAX=-1.4281778
##MAXY=2.2197778
##MINY=0.65111661
##XFACTOR=1
##YFACTOR=2.0673292e-09
##NPOINTS=2730
##FIRSTY=0.66004592
##XYDATA=(X++(Y..Y))
4497+319274706+320747516+321753109+321406148+320946311+321928377+323779777
4487+324600356+323751406+322318585+321372819+321258011+322102751+323781564
4477+325884463+327811027+328594529+327575674+325516484+324138731+324257864
4467+324710061+323706890+321311782+319723846+320575622+323042146+325151647
4457+325584700+323832913+320449685+317406786+316622448+318087012+319956922
4447+320364026+319241492+318296475+318767873+319747834+319670652+318677918
4437+318151970+318786181+320193313+321525655+321919093+321096438+319834416
4427+319368813+320100302+321021850+320780471+319358981+317985525+317387122
4417+317259917+317400933+318125301+319424602+320703404+321495440+321821152
4407+321797740+321567577+321611026+322382649+323459687+323792405+322969202
4397+321683423+321004609+321365293+322140780+322383168+321976958+321553247
4387+321395480+321245440+320927801+320458940+319863276+319279607+318969753
4377+319248988+320499910+322600098+324291222+324055033+321860565+319277531
4367+317820377+317829718+318723703+319629307+319827554+319251208+318668952
4357+318795321+319231631+318861692+317263578+315398628+314964105+316836811
4347+319755850+321182356+320214274+318723616+318773611+320090499+320936998
4337+320441525+318955712+317076115+315627955+315747290+317698937+320023638
4327+320750371+319400989+317376945+316520066+317411889+318786383+318826546
4317+317316110+315842752+315821964+317251383+319422411+321764988+323531997
4307+323764207+322291541+320004408+317906266+316624639+316680399+318151422
4297+319952655+320512105+319500545+318110222+317457356+317391678+317273324
4287+317296562+318140524+319672324+320865842+320819711+319394530+317249826
4277+315553137+315198420+316075193+317449601+318856387+320127923+320950838
4267+320964850+320304632+319791745+320203318+321288428+321875326+321062301
4257+319142022+317286384+316432187+316572050+317115614+317763838+318599006
4247+319401392+319645338+319361547+319350822+320285113+321863073+323052670
4237+323055351+321842948+320038227+318624032+318419817+319425179+320777328
4227+321495901+321335135+320869705+320624059+320376049+319760491+319201127
4217+319348256+319985119+320438584+320567433+320547626+320361200+319998641
4207+319590528+319339260+319573950+320360998+321037044+320923130+320386255
4197+320446917+321479928+322708563+322896575+321565616+319461247+317723415
4187+316953349+317101112+317512829+317190259+315943230+314955456+315392429
4177+316965660+318465111+319283154+319874002+320931001+322218366+322424830
4167+320842805+318718081+318061265+319573056+322182528+324109237+324275682
4157+323144816+321972288+321232033+320500803+319652574+319047944+318687490
4147+318331159+318172037+318444208+318924112+319477768+320208277+320759366
4137+320603098+320035719+319877116+320338827+320927570+321334155+321782431
4127+322474738+323119184+323083260+322039869+320459430+319261357+318933454
4117+319177947+319490627+319851974+320508588+321132131+320899056+319737599
4107+318767787+318945794+319972606+321073488+322127575+323354682+324443973
4097+324643258+323547681+321689881+320236964+319900412+320229929+320221193
4087+319535633+318742559+318378587+318278339+318101342+318106185+318911686
4077+320512019+321963033+322352924+321871088+321530355+321809936+322025943
4067+321430828+320407100+319935702+320310341+320901737+320863823+319947926
4057+318815272+318284250+318362989+318559103+318845719+319465341+320148537
4047+320479237+320590066+320702885+320569855+320071268+319682588+319822797
4037+320287881+320547049+320225922+319408399+318735726+318846987+319612902
4027+320436739+321133429+321881785+322580060+322900986+322722892+322071267
4017+320963033+319571903+318312476+317718687+318181609+319433165+320447811
4007+320483706+319937576+319675986+320087876+320973355+321762047+321845918
3997+321268419+320814060+320874376+320909176+320628268+320730967+321731543
3987+322934921+323256798+322448559+321126596+320045925+319547569+319517844
3977+319741722+320085886+320351023+320336174+320052672+319653036+319350072
3967+319519285+320423967+321672294+322445301+322437170+322121924+322041714
3957+322304025+322696223+322908742+322812963+322753540+323264467+324328329
3947+325413612+326231107+326725859+326493014+325209599+323581731+322811377
3937+323390433+324991689+326884693+328139247+328090464+327001086+325840235
3927+325240161+324982837+324469575+323704555+323641298+325087439+327404932
3917+328759619+328035165+326046122+324322851+323550218+323610794+324460003
3907+326358687+329307623+332620128+335299315+336812346+336870355+334939351
3897+331273370+327734709+326450862+327898099+330233150+331161445+330979171
3887+331524984+332858278+333490990+333568115+334473056+335355191+333952441
3878+330996326+329363961+329880394+331235024+332635870+334126441+335027980
3868+334959822+334872490+335147055+334773972+333357730+331985859+331440248
3858+331804681+333856778+338862511+344780163+345682509+340944766+334963800
3848+330907899+329870390+331544791+334778528+338439636+342195803+345811502
3838+347593273+345730024+341414291+337404261+335138059+334553237+335067508
3828+335847002+336004769+335992862+337683727+341431878+344310494+344419968
3818+343635630+342767565+340022844+335362428+331552144+330884718+333691832
3808+338061883+340973685+342034894+343495537+345589815+345654196+343288525
3798+341129405+340043026+338718583+336781928+335500733+335673983+336768983
3788+338091003+339662591+341675160+344115996+347257240+351243166+354829630
3778+356311667+356161136+356677483+359587785+365111740+372099308+378465235
3768+382590477+384393756+384801321+385246800+387325711+391452827+395710002
3758+397652971+397855053+399363355+404318403+411697044+417504731+419844828
3748+421396465+424622099+428780815+430921310+431304022+433239409+438841843
3738+448167346+458926160+467049063+469598939+467504517+464448673+463487048
3728+465129851+467866528+470098997+471540409+472427100+472639272+472309755
3718+471793292+471139821+470835013+472149018+475265669+477323388+475358593
3708+470615344+466724302+465940570+467676441+469372380+469378463+468666579
3698+468921538+470745721+473938487+478115453+482899989+487508191+489934957
3688+488475265+484853194+482611816+483477460+486606854+490077097+493211912
3678+496879306+500201872+499480215+495420075+493458942+494933857+495418518
3668+492119651+487783419+484879085+483198369+482161609+482390475+484686085
3658+488100798+489710242+488043769+486003349+487724602+494018681+500068958
3648+500022078+494959113+489402723+485719991+484126173+483778694+483451598
3638+482407111+481221782+481145695+482711055+485801642+490203956+494561639
3628+496075996+494322394+491781570+490641391+491749221+494251468+495637120
3618+494364488+492292814+492279436+494731228+497354222+498291656+498385128
3608+499233588+500736701+501843781+502554771+503923701+506383969+508969251
3598+510792049+512097030+513060413+513503095+514598758+518275551+523847914
3588+527004411+524515772+518603310+513473283+511197712+511431479+512404549
3578+512523509+511782938+511448893+512612714+515317936+518884420+522499686
3568+524916533+524612474+521852587+518845266+517196265+516737322+516443873
3558+515927151+515857263+517118996+519875423+523295441+526013638+526877090
3548+525561729+522999801+520860718+520102790+520246891+520073439+518838058
3538+516981642+515578056+514983719+514873755+515308768+516401432+517144483
3528+516387132+514817418+513929747+513880906+513776420+513193270+512539655
3518+512328088+512517224+512478013+511950911+511811135+513003442+514795736
3508+515184907+513528756+511245860+509520571+508241135+507438921+507798568
3498+509198347+510423811+510881601+511280862+512065142+512263043+510600261
3488+507391522+504572933+503595999+503872150+503673268+502382819+501287271
3478+501771067+503486785+504936732+505105282+503991340+502178978+500778334
3468+501115549+503072531+504671076+504360847+502443942+499928721+497600214
3458+496147153+495943486+496654591+497494863+497932816+498078417+498345283
3448+498622240+498138617+496660531+494980103+493781338+493158976+493245933
3438+494164108+495036613+494320722+491854284+489417600+488628765+489069371
3428+489262255+488764331+488362129+488904223+490523988+492502997+493572942
3418+492910159+491083900+489375621+488348924+487777249+487377007+486868185
3408+486021974+485300258+485549307+486584769+487147506+486545327+485266871
3398+484110374+483755974+484685912+486642202+488703900+490346789+491681524
3388+492617863+492746625+491948333+490316804+487968576+485841314+485658925
3378+487851865+490506343+491419674+490487949+489258622+488914372+489420772
3368+490241957+491489332+493655286+496106731+497233128+496702913+496178637
3358+497110882+499228283+501379417+502657527+502810912+502454264+502528765
3348+503113126+503450053+503232431+502940885+502903173+502827577+502327750
3338+501558347+501168715+501554714+502247713+502310739+501408883+500327694
3328+500118433+500727820+500975946+500165833+498904791+497967703+497472893
3318+497524329+498475545+500092658+501272971+501069188+499617223+497756712
3308+496157359+495141388+494975202+495774878+497166296+498412000+498769397
3298+497857335+496158282+494858606+494763807+495682962+496858258+497724767
3288+498369271+499319449+500777411+502268876+503354851+504222397+505274351
3278+506615314+507967637+508773022+508620099+507711323+506588039+505492377
3268+504380914+503276890+502233240+501228973+500223900+499291597+498627776
3258+498290791+498160010+498149516+498151188+497995900+497799095+497924455
3248+498556446+499675175+501128639+502366327+502429699+500678691+497621953
3238+494910503+494131643+495341999+496991576+497499245+496656321+495321067
3228+494250949+493575479+493164051+492993713+492879482+492440951+491892688
3218+492096297+493123398+493669413+492630895+490492101+488616252+487970191
3208+488691214+490092089+491043824+490736017+489257700+487507615+486417314
3198+486238673+486599531+487058474+487332375+487120001+486130612+484365188
3188+482187587+480170606+479058452+479489544+481122687+482456904+482356800
3178+481254506+479983979+478359831+476016100+473696820+472457143+472128865
3168+471450772+469692527+467670299+466779745+467410064+468746443+469765414
3158+470018152+469760310+469546321+469510887+469180389+468200399+466813104
3148+465504317+464627112+464333836+464525163+464885242+464987537+464364657
3138+462847561+460894702+459165607+457926304+457253343+457262425+457601342
3128+457358003+456023123+454106189+452583038+452181038+453036648+454572801
3118+455799706+455890814+454542701+452149784+449833185+448791149+449275089
3108+450347485+450800489+450366024+449883063+450121559+450659732+450407916
3098+449127269+447691824+446863633+446493031+445951052+444945431+443884395
3088+443412362+443570504+443877619+444192289+444803319+445750239+446596363
3078+446741243+445911091+444675710+444076385+444341464+444570647+443945028
3068+442617039+441355825+440871135+441294615+441919139+441823071+440940360
3058+440042915+439677646+439611160+439371770+439001657+438933932+439177704
3048+439173812+438669689+438114506+437860152+437612315+437022533+436323335
3038+436023226+436212304+436426092+436191776+435543755+434817945+434067167
3028+433041508+431747973+430640230+430170993+430417735+431063623+431499501
3018+431199738+430317286+429606872+429559732+429963117+430367136+430553561
3008+430464846+430079914+429404531+428367426+426946512+425539323+424876712
2998+425345977+426535747+427497919+427333837+425749535+423410706+421615845
2988+421184235+421701158+422240917+422565591+422963267+423226702+422746106
2978+421583611+420610743+420481346+421017385+421686195+422239619+422602582
2968+422450322+421444556+419850364+418397534+417582375+417523847+418130293
2958+418929393+419223765+418854027+418325368+417985500+417663825+417202546
2948+416796134+416634705+416521224+416134446+415600051+415401285+415637301
2938+415812108+415554871+415083876+414763585+414619051+414379489+413770332
2928+412806430+411835667+411138573+410580824+409898147+409178478+408718410
2918+408524085+408347202+408193558+408341580+408791729+409127417+409056924
2908+408760101+408453159+407977753+407230089+406608852+406487499+406613811
2898+406584691+406511256+406589823+406466250+405754626+404780027+404159482
2888+404006242+404001859+403943071+403892789+403969164+404137339+404164701
2878+403852050+403340806+403030057+403109835+403294127+403135005+402552691
2868+401939036+401750362+402067943+402496267+402423380+401542716+400224991
2858+399236669+399041305+399455040+399946650+400137775+400017951+399804308
2848+399701321+399824432+400183560+400599630+400723895+400289834+399377915
2838+398391438+397770778+397689415+397976550+398343347+398577893+398456627
2828+397761984+396647725+395750165+395620826+396074233+396280899+395661709
2818+394624171+394073312+394247715+394526662+394393863+394013717+393728687
2808+393529056+393214070+392779114+392496737+392618954+393001666+393160558
2798+392776692+391960986+390985320+390035863+389290448+388961824+389136429
2788+389668663+390242039+390492673+390200406+389487830+388752131+388356099
2778+388447611+388888044+389149259+388648020+387552415+386775977+386798206
2768+387091021+387056826+386832141+386722061+386538144+386000288+385327298
2758+384983826+385035060+385065016+384702688+384017128+383365906+383019521
2748+382966731+382988700+382916708+382796825+382714251+382561587+382170860
2738+381584509+381020100+380655177+380530134+380524483+380407685+380071507
2728+379667171+379353944+379045848+378629951+378287084+378253581+378332263
2718+378064964+377404545+376753265+376269037+375679399+374929861+374450851
2708+374560268+375056115+375548446+375807528+375756438+375537807+375549340
2698+375995309+376503266+376539536+376020565+375216362+374351872+373613405
2688+373245686+373324742+373585035+373655211+373407316+373007939+372665909
2678+372400859+372092705+371716740+371425251+371350721+371404031+371373383
2668+371213828+371094119+371103662+371083278+370847089+370416516+369930817
2658+369468183+369088989+368959534+369204950+369638290+369889905+369835989
2648+369622779+369305169+368817653+368256386+367874308+367817568+367990241
2638+368106577+367932548+367578553+367392386+367532422+367862660+368211985
2628+368494046+368620906+368471730+367975046+367262269+366687826+366502178
2618+366576218+366640657+366636246+366619033+366547588+366395933+366284874
2608+366344699+366535133+366667211+366566387+366216485+365817194+365688461
2598+365992347+366550212+367038419+367270197+367178686+366771092+366241799
2588+365829592+365497480+365105541+364843547+365041592+365611653+366105742
2578+366269362+366189787+365995432+365748056+365564657+365550213+365614623
2568+365542169+365231507+364794188+364469571+364457952+364743905+365073682
2558+365170586+364983381+364734650+364694862+364844066+364883652+364716486
2548+364651528+364918077+365298829+365458932+365315321+364923238+364339511
2538+363745434+363428545+363501864+363794823+364086917+364304106+364444632
2528+364501200+364537182+364656112+364831352+364915771+364825268+364604821
2518+364353495+364151356+364037528+364063102+364311026+364722281+364967034
2508+364745981+364200600+363774958+363719457+363943537+364245347+364474444
2498+364573135+364636911+364809901+365039113+365146309+365150490+365220551
2488+365331524+365326421+365280060+365416953+365690566+365782452+365514952
2478+365049464+364716198+364759272+365108569+365320799+365011002+364444344
2468+364312525+364799608+365333831+365402508+365090001+364659515+364206741
2458+363918453+364109751+364740762+365265154+365211440+364707981+364231508
2448+364044505+364109319+364356349+364740618+365123878+365332331+365318377
2438+365170989+364993444+364835071+364760656+364886680+365218417+365560794
2428+365745980+365796291+365771669+365707605+365740646+365995922+366368486
2418+366660205+366833714+366981044+367179349+367423121+367587721+367534959
2408+367359114+367401439+367901958+368713369+369449443+369878574+370075062
2398+370219278+370403859+370654435+371014947+371649821+373010765+375857233
2388+380964022+388755043+399232892+412223367+427603558+445264425+464993390
2378+486515169+509412625+532743652+555136091+575761607+594730396+612326506
2368+628624613+642919146+652490411+654504479+650188544+643472427+635872329
2358+626082175+612582763+594557867+572634923+549955781+531429963+520919362
2348+519836385+527283156+539574577+551032069+558413968+562932244+566848917
2338+570904617+574577604+577365804+579542483+581614272+583442088+584338812
2328+583874448+582120154+579050499+574478481+568694954+562238553+555110950
2318+547197105+539199534+532205709+526399348+520711485+513867298+505604359
2308+496654822+487819285+479488189+471775503+464589112+457701158+451068595
2298+444907286+439341353+434232517+429366444+424640552+420171982+416279643
2288+413181099+410715324+408528092+406447711+404545222+402960285+401765239
2278+400874483+400047330+399090694+398060277+397144121+396377226+395640316
2268+394944924+394503568+394425261+394510574+394437889+394053736+393452335
2258+392857508+392409809+392025713+391536410+390982697+390629912+390597390
2248+390611344+390311812+389769314+389466177+389710613+390291283+390792119
2238+391012393+390978026+390800394+390634035+390598629+390673851+390706720
2228+390512192+390010866+389341740+388758301+388356589+388026379+387670452
2218+387306913+386969841+386664542+386398685+386184984+386057490+386069167
2208+386197699+386304866+386274016+386150790+386090762+386188992+386404163
2198+386636200+386809508+386871986+386833784+386832112+387014155+387369477
2188+387839348+388498787+389387697+390250515+390718598+390740395+390648768
2178+390812272+391316597+391936046+392333693+392340209+392116014+392007261
2168+392199395+392588277+393006251+393400207+393724564+393860938+393766601
2158+393571756+393459975+393537360+393795288+394105892+394314634+394416179
2148+394549929+394790617+395085623+395420301+395863329+396402598+396893342
2138+397205244+397325386+397350786+397464758+397807596+398248058+398431976
2128+398216516+397910785+397941808+398428746+399181024+399963343+400670297
2118+401355915+402131892+402984820+403760422+404335586+404685747+404850665
2108+404961898+405166487+405453190+405732800+406055254+406535100+407162853
2098+407834228+408425451+408829614+409069783+409259755+409380819+409370296
2088+409385461+409586101+409811017+409890477+410020739+410415445+410878713
2078+411075086+410988994+410885143+410980230+411269758+411591116+411840914
2068+412125368+412594633+413167894+413613949+413892319+414195369+414647941
2058+415166133+415628536+416034343+416456814+416929279+417427059+417935737
2048+418496052+419186687+420064613+421052041+421880693+422324269+422537682
2038+422954415+423818877+425011068+426269572+427381640+428257375+429010719
2028+429886165+431017666+432334583+433676959+434925574+436075094+437185346
2018+438204576+439017169+439784410+440919514+442548593+444357465+446114614
2008+447947706+449938478+451818565+453279785+454396957+455550283+456937521
1998+458352005+459640062+461163991+463326369+465773807+467688550+468800589
1988+469460288+469967409+470482603+471251487+472412511+473834030+475342188
1978+476882407+478484758+480257476+482249575+484270678+486129343+487970306
1968+490027333+492177199+494130490+495912924+497751407+499691205+501680420
1958+503801743+506112835+508507540+510982339+513723312+516697303+519474893
1948+521725439+523715404+526043738+528807488+531289611+532913470+534175262
1938+535921541+538265329+540838790+543503186+546202469+548625486+550565341
1928+552366228+554721087+557935362+561366105+564006225+565864660+567870540
1918+570266686+572323829+573786635+575230527+576955990+578687334+580201230
1908+581543519+582724985+583672049+584490236+585548360+587153479+589193323
1898+591254041+592977370+594242390+595338053+596838052+598697524+599806680
1888+599415895+598401826+597922297+597944267+597987226+598226760+599023784
1878+600104339+600895308+601319250+601962947+603614485+606465076+609346979
1868+610186559+608268039+605172897+602774444+601672092+601466349+601606760
1858+601838336+602204441+602776289+603258701+603044943+601893981+600387870
1848+599550597+599998296+601181953+601426331+599711882+597037164+594840245
1838+593357314+591897564+590261711+589451655+590472125+592689860+594022000
1828+593301381+591234839+588554181+585345211+582121249+579825783+578699559
1818+578033258+577204923+576536604+576666404+577392214+577674246+576806123
1808+575198870+573869785+573620852+574666406+576514173+578148297+578756184
1798+578513767+578544502+580068200+583207686+585981124+585773651+583056665
1788+580645296+580054880+580885695+582352710+584192058+586049455+587182830
1778+587444679+587943929+590289447+595049966+600319712+602968539+602533699
1768+600865612+599362960+598980421+600431406+602989356+604609410+604630687
1758+604430076+605018589+606405568+608828181+612773283+617601441+621262492
1748+622530511+622379318+622309372+622875512+623847429+624760587+625319172
1738+626170400+628894420+634119880+639193109+640299727+638292752+636154534
1728+635024619+634923305+635687114+637059562+639180134+642944172+649041964
1718+656081228+660047376+658705663+654613347+651107065+649755261+650854038
1708+654015435+658105099+661578859+664292903+667959260+673415258+678255468
1698+679824952+678608599+675641354+672043791+669667654+669374205+670635765
1688+673193196+678108542+685636272+691700562+691852447+688490266+685679289
1678+685081434+686753789+689407345+691566437+693851119+697497005+700781687
1668+700465922+697598723+695946493+696660308+697872855+697891653+697623461
1658+699028257+703481431+711746215+721984068+726915963+724683120+722402532
1648+722973457+723703361+721244189+717043811+714607416+715387718+719118369
1638+724744128+730326582+732887300+731738183+730236973+731205142+734814469
1628+739592692+744478860+749969456+756128487+761130328+763927466+766046654
1618+769138394+773034078+776384035+778607133+780052006+781322965+783308721
1608+786344758+789278212+790564683+790125749+789307620+789291993+790160981
1598+791470287+792846886+793936148+794644716+795384769+796569349+798125858
1588+799653535+800645461+800760846+800423976+800841978+803024135+807095289
1578+812154390+815822245+815878870+814377603+814967673+818055607+821126242
1568+822088530+821908850+822493500+824819700+829739429+838373432+849286235
1558+854774352+851640979+846909983+845268882+846650382+848386917+848210409
1548+847164567+848208160+852275681+857536719+862154579+865173144+864189694
1538+859087807+854937424+855083716+857881777+858277463+854554078+850926933
1528+851151244+855007716+859903918+864008804+866768403+867970570+868510646
1518+869459382+870394625+871092180+872853625+876845721+883132765+891694573
1508+901517077+906896902+902909879+895719711+891618861+891358338+894265670
1498+898994533+902551271+903437500+904618562+909018051+915408601+919485174
1488+918488635+914394186+911025200+910474860+912162034+913906641+914984313
1478+917231630+922133137+928771927+935419137+940699261+943338055+944178846
1468+945877668+949287191+951486705+949393984+945352181+943477370+944273414
1458+945492188+944654165+940968838+935925767+932042827+931129093+932609255
1448+933614041+932337199+930006386+928090922+926634805+926021843+927652622
1438+931971094+936330911+937326931+935714892+934239054+933723082+933509958
1428+933298045+933455408+933932631+933978704+932923002+931003098+929637340
1418+930523338+933288069+935376350+935061393+932986489+930680875+928933673
1408+928580773+930898035+935523392+939215524+938860375+935287491+932190734
1398+931868915+932699383+931918332+930058860+929851156+931689351+933221064
1388+933078693+932764255+934107121+937076095+941129604+946176595+951519054
1378+955850904+959131261+962438143+965230610+965300037+962628260+960268499
1368+960679582+963292485+965790291+966855335+967391259+969233202+972709845
1358+976420487+979150158+981069543+983194786+985892166+988397642+989733358
1348+989566480+988389685+987577784+989032286+993131002+997800241+1001131688
1338+1003749377+1006560469+1008474895+1008815224+1008920056+1009738646
1330+1010908176+1013072515+1017825250+1025269253+1034068000+1042696525
1321+1049073408+1051461366+1050845521+1050258968+1051506113+1053897646
1312+1056186192+1058181577+1060055754+1060930393+1059450865+1057029462
1304+1057531019+1062335997+1068330110+1071458697+1071313731+1070727179
1295+1071712416+1073409336+1073741823+1072669053+1071804562+1071601472
1287+1070754050+1067469772+1061580375+1054869275+1049033736+1044402325
1278+1040540489+1037203391+1033950597+1029928343+1025626651+1023090729
1270+1023281710+1024430942+1023053593+1017611780+1011384361+1008905756
1261+1010090855+1010462438+1007135143+1001504655+995588964+989994227+985823085
1251+984830121+986515969+987405601+984659553+978962291+972263761+964608710
1241+955344907+945183343+935144889+925506274+916655284+909528084+904636899
1231+901331689+898278641+894509010+889873274+884444723+878027995+871088201
1221+865439261+862473170+861183873+859186354+855598593+851712597+849013545
1211+847995267+848780700+851336401+854752786+857634689+859597610+861452642
1201+864125111+868066176+872977082+877572050+880453837+881690660+882802469
1191+885156636+888980010+893439238+897006009+898334921+897836074+897755115
1181+899711116+902954684+905875856+908469787+911737804+915512798+918768476
1171+921892565+926914127+935060009+944589640+951911742+956208878+960378175
1161+966315663+972185569+975130787+974471809+971404576+967780083+966088065
1151+968048449+973181071+980204707+988503974+996932752+1003264197+1006358878
1141+1007333851+1007942200+1008541669+1008136987+1005600949+1001064106
1133+997033202+996635555+1000842217+1007251738+1011793194+1012951191+1012983829
1123+1014467278+1017789730+1021513634+1022754666+1018730566+1010775550
1114+1004350922+1003422886+1007287028+1012699664+1017351718+1021753975
1105+1026069275+1027523086+1023371780+1016603362+1012972527+1013452748
1097+1015441906+1018709115+1024775769+1030779455+1031483525+1027590206
1088+1023989125+1024093611+1027228656+1029907353+1029623995+1027441550
1080+1027048862+1030027870+1033450310+1033418479+1028697459+1018841280
1071+1005738304+995551713+992485979+995004026+998558400+999991451+1000019591
1061+1001793087+1006775784+1013163162+1018191644+1020255764+1018731258
1053+1013757787+1006837599+1001033199+998819961+1000329935+1003964231
1044+1006622515+1005820993+1002950046+1000974382+999125116+994146225+987262711
1034+983581247+985138159+989253483+992908537+995737043+997451377+996128463
1024+990823312+983680312+978603855+977901168+980679738+984559680+987823776
1014+989974391+990897698+991026749+991107131+990573745+988263286+984546648
1004+979989276+973314735+964668046+957438609+953492181+950170653+944865790
994+939555507+937097431+935649041+930433903+920932526+912309134+908550055
984+908201306+907758567+905812310+901973022+895514141+887709050+881975287
974+879482555+878115758+876517732+875329692+874716269+874107804+873602384
964+873072515+870848321+865749663+859733522+856326017+856682493+858613583
954+859595188+859557418+860032738+861842389+864936840+869516296+875553080
944+881384929+884289609+883374259+881375068+882649546+889140833+898067305
934+904455663+907276616+910796045+918435239+928308429+935902529+939537170
924+941011682+941883668+941948251+940798154+939147135+938493808+939113113
914+939671930+938843652+936692345+934484643+932920638+931854672+931549805
904+932151408+932197827+931356806+932172916+935466709+938456558+938384421
894+935252893+931945549+932389039+938078747+946074877+951651795+952622674
884+949908630+946101056+944184843+945397908+948336091+950991318+952793531
874+953611487+952983821+951368668+950198735+949986303+950314465+951477998
864+955098627+962479315+972727260+982578595+987662895+986310687+981807174
854+978487836+977837508+978166189+976851233+973282097+970451745+972161466
844+978182796+984202743+987602118+989654705+991405021+992803474+994665772
834+997352427+999398440+999421390+997210344+993072532+988692648+986893549
824+988904619+993784329+999918795+1005519990+1008782356+1008244241+1003406049
814+997484130+996321174+1002796546+1014604979+1027010804+1036102251+1038963279
804+1033936297+1023530124+1014764360+1012595062+1013940465+1010429685
795+1000409857+992239410+992690223+999650199+1006058105+1007583649+1006473166
785+1006012897+1004613636+999502465+991897582+985783528+983233882+983344481
776+983583669+980717565+972555999+960947717+952144299+951555382+958532369
766+967584604+974465005+978491988+979734289+977682047+973149817+969481846
756+969580451+972224319+973586906+973154315+974353368+978696808+983310229
746+984336984+981209896+977265717+976067587+978741209+985765076+996330285
736+1004516646+1003491391+995813044+989853413+988432240+988966550+988010259
726+983002191+976681587+975657023+981316919+987463149+990269051+992898734
716+995354043+994899078+992361080+990677078+991741890+994555520+995514578
706+992293960+986973125+984440662+985670854+987650324+987845919+986664395
696+987219463+991418283+996407208+999233177+999915451+1000473287+999402823
686+989093755+970186263+955155541+955009133+967793000+977540426+971658526
676+956830606+945961280+942545875+940693726+935421328+933065892+945100365
666+967351010+984471109+988846148+983949947+977189717+970314622+959264752
656+944610687+935071887+937894858+949475693+957483010+956148389+952542349
646+954079541+959617883+964233263+964543723+959543266+951968252+946225436
636+944813547+949648280+964218271+987750659+1009986715+1019615354+1011086471
626+983735785+948993857+922857620+909520011+907225468+912776726+921499300
616+928967522+932268868+925778676+908138050+890359953+882950145+887373218
606+897812548+908734924+919567921+928622291+929144952
##END=
