##TITLE=<SNM>
##JCAMP-DX=4.24
##DATA TYPE=INFRARED SPECTRUM
##DATE=29/4/2025
##SAMPLING PROCEDURE=Instrument type and / or accessory
##ORIGIN=Admin
##XUNITS=1/CM
##YUNITS=ABSORBANCE
##RESOLUTION=4
##FIRSTX=4497.3318
##LASTX=599.83466
##DELTAX=-1.4281778
##MAXY=2.1139231
##MINY=0.47905573
##XFACTOR=1
##YFACTOR=1.9687443e-09
##NPOINTS=2730
##FIRSTY=0.49194056
##XYDATA=(X++(Y..Y))
4497+249875295+248918303+248708025+249464321+250501361+250554101+249027839
4487+246641754+244565569+243417387+243330603+244324425+246061465+247716594
4477+248731427+249458023+250514652+251802283+252663998+252710577+252080772
4467+251181394+250527989+250535951+251052360+251362002+251051209+250455327
4457+249977475+249658629+249554148+249732682+249889736+249659264+249097079
4447+248479687+248045325+247982064+248397065+249307206+250579472+251729622
4437+252097317+251537842+250585633+249787799+249330745+249275584+249631411
4427+250143263+250318392+249868983+249154724+248910280+249307978+249685089
4417+249611883+249688435+250633302+252081680+252881800+252266345+250397259
4407+248208464+246909904+247056150+248094114+249159023+249861141+250056494
4397+249704102+249189677+248977582+249048654+249262368+249740251+250422675
4387+250860943+250720949+249987117+248885378+248052667+248134865+248780807
4377+248820286+247784154+246476572+245730251+245378481+244906895+244502460
4367+244770852+245679737+246534655+247033201+247559237+248208025+248428839
4357+248041102+247718410+247966594+248438573+248723026+249010143+249469210
4347+249746776+249656555+249608871+249826158+249932198+249704511+249405783
4337+249078415+248401470+247387257+246365884+245385504+244430147+243931404
4327+244347389+245492891+246665642+247169698+246661888+245447054+244364903
4317+243978074+244122034+244378891+244572548+244698024+244807107+245035702
4307+245444875+245843648+245939848+245683703+245390364+245513509+246287017
4297+247413355+248096173+247699761+246536123+245654880+245682325+246267141
4287+246743419+246876420+246799308+246682233+246689998+246903531+247091935
4277+246892526+246417973+246288955+246806498+247549443+248028810+248246248
4267+248321679+248167426+247917986+248025964+248480747+248549699+247772089
4257+246721470+246324861+246779750+247568335+248301940+249043204+249776461
4247+250140887+249931017+249419014+248933441+248499714+248134744+248165988
4237+248878551+249941598+250613078+250625143+250359173+250039297+249444869
4227+248588194+247930763+247757057+247940012+248340299+248926205+249515925
4217+249784544+249608583+249241175+249055042+249059916+248851591+248227432
4207+247545659+247280279+247536243+248167078+249077264+250133742+250976747
4197+251346516+251471962+251652813+251620236+250868709+249521980+248346914
4187+247925389+248159161+248552091+248716471+248553317+248189572+247930081
4177+248073315+248606647+249304466+250199636+251491293+252849208+253455671
4167+252980483+251965528+251095487+250637601+250637722+251076323+251717133
4157+252227078+252481604+252464649+252126806+251664696+251470872+251530000
4147+251367981+250683771+249599319+248534486+248194598+249042674+250470541
4137+251277231+251152541+250890280+251097167+251541339+251775762+251717602
4127+251539901+251428865+251440718+251334058+250766998+249952785+249661565
4117+250132682+250649045+250706023+250745155+251110383+251241051+250603299
4107+249659340+249276673+249710173+250592778+251522311+252295107+252761334
4097+252770477+252233981+251121176+249629231+248453620+248423481+249593082
4087+251075520+252062833+252587780+252886689+252688718+251893412+251306901
4077+251670827+252422112+252495349+251927230+251443958+250952996+249907296
4067+248818863+248896338+250302966+251938416+252776683+252567647+251556446
4057+250296351+249439132+249162959+249118272+249113685+249336089+249857841
4047+250496548+251127004+251682770+251938886+251685374+251102753+250701210
4037+250798878+251215938+251606340+251856794+251952146+251744184+251162865
4027+250468755+250087299+250228867+250697834+251168648+251621659+252157020
4017+252461213+252067935+251141294+250438676+250537541+251371418+252364710
4007+252925291+252941125+252805006+253000525+253718932+254657547+255198539
3997+255032478+254385340+253528120+252629318+252101722+252246999+252629454
3987+252668918+252579363+252878000+253366419+253382586+252802766+252201889
3977+252133739+252602039+253141881+253214194+252633511+251719737+250999045
3967+250801194+251191884+252182543+253756640+255659513+257282036+257932837
3957+257425602+256321062+255391242+255013980+255196147+255807197+256546736
3947+257038772+257262326+257517004+257718941+257267019+256014947+254746314
3937+254297117+254858031+256251186+258101169+259533894+259672162+258688422
3927+257554394+256995145+257192269+257909101+258627871+259087331+259612156
3917+260361777+260608794+259675372+258090724+256839408+256062086+255390364
3907+255264267+256893329+260557508+264572912+266972303+267330522+265858196
3897+262906248+259896352+258758631+260184272+262755052+264272973+264565010
3887+265133432+266304669+266769155+266201702+265978572+266220563+265284446
3878+263163650+261993745+262918691+265244876+268319743+271496214+272676503
3868+270984862+268996188+268874299+269423586+268464187+266177512+264211302
3858+263913119+266582870+272998604+279762294+280259265+275015404+268991949
3848+264783750+263048755+263734978+266283385+269811294+273585645+276809528
3838+278138136+276976648+274625244+272521947+270888828+269367698+268075995
3828+267519956+267887409+269304816+272303267+276445677+279041647+278692359
3818+277589726+276993058+275295512+271735512+268185259+266631220+267757588
3808+270762791+273622399+275425091+277534353+280520785+282197167+281215213
3798+279131565+277163872+275272200+273797876+273468540+274283555+275691637
3788+277518942+280021452+283165558+286516447+289914353+293586554+297333385
3778+300387816+302575037+304758110+308228828+314057430+322129807+330512750
3768+337085008+341436863+344215788+346373278+349207121+353422041+357909440
3758+360657847+361642374+363412187+368947723+379272594+391246661+399803687
3748+404696505+409527863+416284075+422966173+426758931+428983814+432674666
3738+439411047+448551754+456878476+460715043+459734844+456960522+455660494
3728+457164548+460343623+462678891+462705957+460651192+456678355+450909275
3718+444850549+441113588+441837414+447114669+453615568+456403938+454853622
3708+452236066+450457898+449880060+450954143+453709180+456903392+459032878
3698+459647591+459495668+460095183+462673320+467176372+472490381+476951047
3688+478555859+476499822+472485810+469245064+468464562+470188084+474022411
3678+479901512+485986123+487978279+485326845+482323943+481050375+479607628
3668+476367821+472197466+468083546+464342952+461602901+461005748+463075621
3658+466552848+468886633+469068739+468944368+470706067+474870941+479328367
3648+480494275+477909387+474396797+472041124+470625928+468979518+467278097
3638+467176341+469542793+473195800+476543358+479889614+484451884+488907705
3628+489551150+486438196+483710286+484362269+488720815+494736731+498777567
3618+498817652+497001094+496544419+498141964+500419738+502233117+503178772
3608+502734055+501191490+500485769+502320795+506365264+510894564+514824985
3598+518248111+521135240+522701874+522444229+521277231+520796275+521503510
3588+522146077+521293156+519615048+518767214+519150925+520219165+521608263
3578+523129787+524071778+523761212+522789491+522497272+523778711+526828661
3568+530693022+532987720+532313062+530103377+528202199+526697508+525030481
3558+523873171+524628362+527323120+529919181+530670678+530678308+532394987
3548+535765615+537378570+534655898+529665049+526622001+527187607+529579248
3538+531156115+531047002+530028536+528820181+527830658+527583974+528173558
3528+528782155+528295871+526305441+523638960+521863667+521824188+522710775
3518+523092367+522707081+522337660+522263606+522397242+523380468+525818006
3508+528635380+529773737+528711311+526940378+525775681+524824244+523154371
3498+521131425+520173206+520897759+522260155+522941413+522948558+523139112
3488+523710592+523962907+523608805+523438052+524278680+526032477+527764294
3478+528543040+528137046+526832779+524853732+522383315+520285589+519950440
3468+521731121+523990579+524519915+522699694+519460401+515763888+512435949
3458+510770374+511623961+513906852+515131494+513956867+511486147+509753482
3448+509641826+510411610+510944398+511092263+511304615+511454721+510910368
3438+509349910+507045251+504806017+503704899+504174925+505425695+506206439
3428+505941438+504982765+504331025+505039471+506940165+508216155+507357179
3418+505166235+503694999+503770415+504469354+504648070+504247859+504075077
3408+504583159+505120488+504853640+504038474+503623609+503922216+504407713
3398+504606017+504502475+504203657+503645498+502644531+501186525+499602816
3388+498196006+496856316+495652594+495365462+496546992+498571633+500357916
3378+501510018+502314407+503268114+504719248+506226300+506702866+506037381
3368+505716491+506934140+509186120+511579153+513966737+515880146+516217051
3358+514920414+513500737+513438066+514988473+517355893+519268757+519821042
3348+519173087+518278144+517925253+518426615+519776295+521381561+522087827
3338+521248773+519514715+518041753+517312962+517019230+516570608+515436610
3328+513656231+512244426+512318480+513736461+515180601+515475908+514531858
3318+513393683+513399919+514669248+515644058+514978966+513368978+512404704
3308+512528349+513048300+513348148+513400767+513601251+514419052+515936398
3298+517548869+518176600+517106544+514956139+513413604+513554627+514935672
3288+516687956+518564126+520320164+521297274+521267241+520559703+519301213
3278+517819774+517432853+519314352+522844592+526165568+528000504+528093994
3268+526655365+524442592+522684314+521935360+521442172+520372298+519168727
3258+518627584+518212689+516904910+515411058+515519807+517337849+518869242
3248+518529673+516906726+515616931+515653140+517012388+518969878+520361278
3238+519921738+517419471+514418446+512985993+513593985+514807486+515096980
3228+514367705+513459138+512971340+513061682+513680633+514461922+514789866
3218+514430678+513970733+514086446+514333493+513413846+510829532+507517185
3208+504904624+503870717+504288488+505096783+505316976+505286065+505961147
3198+506988212+506787819+504938472+502969356+502166966+502152615+502161758
3188+502326063+502913831+503432086+503391215+503141684+503109592+502867298
3178+501602722+498995036+495350142+491559019+488910672+488209432+489033137
3168+490130138+490509399+489961564+488741312+487286969+486144615+485479675
3158+484749249+483670050+483145740+484050189+485555364+485965839+484895086
3148+483321489+481859457+480286041+478597972+477468001+477420347+478153407
3138+478903088+479123190+478667424+477661128+476446264+475463614+475042270
3128+475281476+475975178+476619955+476687560+475983141+474756379+473539093
3118+472716751+472125865+471415058+470724838+470467920+470504493+470105644
3108+468903224+467378460+466179068+465394358+464802503+464495903+464823575
3098+465761781+466659146+466744159+465881157+464677374+463691303+462866266
3088+462012679+461355702+461189671+461398935+461672898+461842743+461788944
3078+461430967+461029393+461108987+461749010+462225940+461810470+460712833
3068+459678653+458885345+457890221+456561703+455426525+454983232+455086501
3058+455139211+454749868+454079963+453547690+453371699+453507908+453824771
3048+454065613+453734914+452482388+450785357+449819721+450346999+451923109
3038+453334763+453679631+452884355+451387385+449712062+448296593+447367954
3028+446857176+446594597+446571679+446785968+446952544+446644219+445625964
3018+443988818+442292030+441477741+441920096+442691454+442537897+441423548
3008+440347165+439902267+439845651+439909957+440160880+440384282+439927607
2998+438594548+437113624+436258433+435941449+435557798+434909722+434399671
2988+434367882+434577055+434543903+434176510+433776632+433584050+433632581
2978+433833096+433879629+433320381+432030737+430509123+429509033+429340671
2968+429576820+429535736+428989658+428205069+427462079+426868074+426528474
2958+426582244+427036194+427618209+427811700+427249848+426198865+425426175
2948+425513459+426404678+427472009+427864409+427082303+425500138+424088454
2938+423409950+423104259+422531326+421666810+421037262+420910590+420938140
2928+420691274+420263209+420072262+420249131+420509652+420560272+420306231
2918+419702841+418777169+417723976+416719194+415799910+415071240+414723012
2908+414707511+414718077+414605240+414543872+414666033+414746021+414434487
2898+413788893+413315051+413292769+413386532+413169245+412573181+411619020
2888+410395679+409442971+409319568+409710757+409726410+409101827+408472642
2878+408458171+408949027+409307791+409131073+408714543+408582149+408783571
2868+408983813+408965285+408739187+408397589+408002979+407498620+406792142
2858+406022873+405579610+405725568+406254480+406554328+406112458+405003922
2848+403711493+402560208+401635958+401066810+400991273+401383794+402090756
2838+402797295+402957361+402178464+400748282+399422943+398663453+398317253
2828+397984859+397477079+396917860+396609898+396804600+397377351+397771598
2818+397504569+396713047+395986739+395670088+395513351+395055768+394246414
2808+393546960+393386682+393646445+393809479+393518592+392830158+392042905
2798+391474453+391260618+391193951+390940243+390502036+390220686+390262375
2788+390336944+390018627+389229770+388302160+387586721+387174702+387035102
2778+387132649+387270100+387147000+386747394+386358445+386125596+385885906
2768+385468074+384920694+384422117+384078582+383838315+383647186+383599109
2758+383747217+383865624+383626357+382960297+382079674+381238016+380597176
2748+380232084+380137746+380194028+380161300+379800628+379089367+378312165
2738+377810350+377628273+377516012+377255219+376869721+376558853+376496879
2728+376621826+376658005+376493639+376351799+376356492+376246380+375816075
2718+375262548+374787980+374280836+373649260+373041328+372543237+372040331
2708+371533368+371248385+371263069+371298188+371085745+370749779+370571123
2698+370536972+370422198+370181084+369925862+369618294+369125803+368530315
2688+368069189+367804460+367577909+367234343+366745728+366228956+365900013
2678+365844064+365864530+365740098+365533286+365470041+365602314+365731651
2668+365626595+365271010+364913790+364841068+365078882+365351875+365344397
2658+364979487+364412367+363779247+363074373+362316518+361671439+361294963
2648+361147794+361012221+360684550+360213766+359907742+360004381+360429176
2638+360901837+361087092+360711919+359869776+359134173+359027392+359451400
2628+359847009+359780282+359242378+358544256+358051674+357925880+358039473
2618+358160817+358208259+358241108+358276409+358263572+358176318+357978619
2608+357562695+356884404+356145047+355712652+355800027+356201813+356410653
2598+356086282+355382771+354768452+354609415+354934482+355476897+355894275
2588+355993972+355796576+355481318+355317891+355485647+355867239+356167057
2578+356262122+356236902+356093669+355733936+355267603+354991188+354950680
2568+354861730+354572993+354248259+354020527+353868211+353852467+354072025
2558+354407084+354618164+354594004+354353466+354027369+353870996+354035967
2548+354360974+354578806+354629729+354620556+354606115+354559672+354505449
2538+354544776+354661065+354609536+354201634+353626068+353290464+353420406
2528+353918195+354483953+354842021+354979926+355120252+355382620+355593549
2518+355508687+355097788+354556463+354153012+354082833+354333302+354672055
2508+354866514+354883256+354810716+354736511+354788191+355062396+355396940
2498+355478805+355264697+355006992+354847289+354689221+354467756+354286436
2488+354284922+354481289+354714652+354757643+354554344+354277474+354096669
2478+354010808+353957160+353971813+354162579+354562094+355063758+355512592
2468+355814560+355918677+355771659+355376776+354857492+354394519+354106206
2458+353997880+353980775+353945322+353866697+353846897+354021132+354370208
2448+354673871+354753647+354706992+354744928+354865696+354895457+354769360
2438+354551831+354283984+354022283+353910687+354038510+354339388+354730365
2428+355184769+355606719+355861759+356004992+356247226+356625155+356917858
2418+356962393+356861970+356812257+356885100+357062514+357341382+357689731
2408+357991850+358157124+358226031+358271837+358283100+358269779+358384402
2398+358783614+359433840+360146555+360776617+361426359+362548035+364827565
2388+368937732+375432091+384794354+397408626+413470849+433090984+456499518
2378+483886490+514742273+547436564+579997037+611433261+641396524+668541746
2368+691011347+708622221+722022262+730056038+730378835+722824319+709861880
2358+693522152+673630931+648475714+617147089+583260429+554920779+538939271
2348+537911600+550992841+573347213+596131740+612529596+622566276+629034689
2338+633212703+634806767+633915154+632038499+630480766+628899116+626336600
2328+622446809+616951873+609311799+599579812+588533628+576848389+565034600
2318+553785873+543456794+533603826+523550616+513019296+502039778+490779153
2308+479652042+469235497+459888704+451494469+443672773+436311324+429669009
2298+423814521+418332664+412863341+407620539+403098172+399471687+396502693
2288+393941813+391816172+390223350+389030709+387999163+387080515+386411760
2278+386109005+386106916+386104101+385783998+385172373+384552211+384027567
2268+383468349+382825480+382202926+381668594+381189455+380722910+380274984
2258+379859363+379458213+379114586+379007684+379260605+379704534+380023395
2248+380101688+380059272+380001082+379909620+379762088+379589911+379412436
2238+379260635+379245346+379408470+379554095+379444710+379083160+378604263
2228+378043562+377405355+376794063+376315347+375944624+375577474+375176717
2218+374823948+374593551+374431184+374250500+374095429+374090252+374260945
2208+374492159+374670088+374846927+375202966+375770661+376287040+376486192
2198+376483649+376679985+377285313+378111984+378881284+379559091+380251006
2188+380926149+381449400+381786668+382019275+382223241+382417670+382582126
2178+382723300+382944887+383378976+384017486+384661717+385052876+385078338
2168+384901499+384839919+385062746+385453754+385787329+385971918+386103162
2158+386301255+386538826+386717906+386877306+387134829+387452873+387674580
2148+387747180+387757535+387859805+388241851+388995438+390002581+391149083
2138+392592587+394592977+397140960+399958153+402850307+405914668+409369583
2128+413282414+417554767+422115432+427004859+432282689+437911776+443667959
2118+449167406+454143390+458677201+462995905+467170135+471184752+475063160
2108+478731608+482013710+484904108+487687392+490763258+494407576+498563065
2098+502847770+506985760+511154267+515605790+520099940+524023458+526887396
2088+528440951+528470621+526776830+523309381+518082383+510960444+501872476
2078+491360593+480555795+470431347+461321581+453162647+445908676+439684283
2068+434696492+430985053+428246667+426048396+424207709+422815159+421953367
2058+421521488+421276983+421000780+420663451+420414254+420408108+420711286
2048+421306532+422058242+422764387+423395267+424232989+425700652+428108975
2038+431569914+436068727+441589700+448184392+455892616+464599445+474003943
2028+483730329+493471641+503023095+512179455+520747956+528750306+536326498
2018+543228940+548752941+552438252+554468040+555200343+554773035+553220873
2008+550514186+546522063+541389403+535761437+530173858+524486854+518342328
1998+511924717+505917793+500911957+497029795+493912845+491021659+488161476
1988+485604683+483624940+482228757+481381679+481132694+481403871+481929756
1978+482499601+483135113+484024515+485281008+486779583+488362929+490076429
1968+491940883+493701613+495187684+496688923+498588799+500865938+503210621
1958+505421790+507512644+509583455+511720903+513964981+516300248+518654044
1948+520987616+523481709+526445798+529786211+532764953+534733585+535949205
1938+537236094+539166942+541787041+544779831+547757605+550500804+552949483
1928+555189989+557677905+560967455+564726336+567718823+569476495+570973859
1918+572957023+574779243+575617207+575823867+576382328+577806183+579790861
1908+581574570+582613806+583041417+583492945+584518314+586147861+587955003
1898+589460481+590423422+590913340+591377765+592450062+594245820+595976426
1888+596781996+596815481+596861378+597265556+597756321+598008031+598050962
1878+598159287+598451869+598758560+599051626+599809361+601491889+603459431
1868+603916591+601978295+598998099+596749117+595588598+594781212+593774916
1858+592650667+591625479+590681611+589696084+588640742+587539382+586473746
1848+585886886+586407443+587643408+587658243+585330363+582168333+579956650
1838+578794677+577832523+576774335+576232707+576739821+577789956+578137518
1828+577282963+575752902+573738372+570970711+567775680+565039323+563305690
1818+562441628+561923373+561414987+561082078+561130943+561272571+561067425
1808+560535424+560042540+560040481+561007237+562890068+564536872+564671295
1798+563660639+563226005+564552191+567218491+569284186+569048642+567373864
1788+566509924+567442469+569480916+571623026+573730803+575969613+577943574
1778+579323408+580797884+583614471+588130540+592634197+594616392+594074401
1768+593041099+592886331+593985815+596264831+598856592+600373877+600682323
1758+600849020+601297763+601962491+603524402+606809774+611159268+614412185
1748+615343337+615012911+615194443+616817813+619583477+622230460+623550471
1738+624155374+626380379+631513947+637064892+638881238+637481422+635654298
1728+634315699+633617062+633930353+635294928+637626078+641558679+647826669
1718+655210976+659866373+659672004+657027019+654875887+654451364+655969376
1708+659158048+662961434+665898093+668138840+671893543+678373279+684904726
1698+687823886+687151105+684305514+680873730+678975519+679606035+682138638
1688+685849744+691260091+698340068+703259831+702563737+699452268+698002376
1678+699341035+702620837+705943569+708225794+710712499+714532233+717887058
1668+718129806+716548943+716612884+719467194+723151173+725172000+725626314
1658+726319924+728781259+734149583+741943759+747051532+746728675+745733884
1648+746729522+747461765+744894224+740477458+737299079+736564475+738381851
1638+742277273+746227858+746531279+742496044+738246701+736814914+737955209
1628+739786572+741343881+743250508+745235913+745583172+744404730+744005276
1618+745483808+747507662+748423919+748574812+748837603+749208962+749471995
1608+749790190+750470056+751755431+753808894+756403986+758795505+760190054
1598+760460595+760364380+760842974+761967829+762907458+763257140+763787021
1588+765388411+768006573+771132817+774466812+777504833+779528143+780630593
1578+781615636+782400921+782039734+781351876+782316876+784772640+785903005
1568+783745817+780179307+777971984+778307375+781672190+788290528+795568688
1558+796925453+792256553+787524135+784510757+782601829+781568285+781602375
1548+783135706+786907242+793238931+801281789+809438423+815233449+814992214
1538+809650230+805033888+803865558+804981209+805959470+806222684+807357409
1528+810570423+815598087+821377915+827088655+832072117+835670537+838388063
1518+841281247+843768437+844720116+844987145+846641699+850842420+857714344
1508+866492170+873707539+875227852+873521709+873109054+875127943+878751008
1498+882467200+884742098+885578367+886950935+890641817+896705932+903241799
1488+907559625+908977182+909228408+909773003+910833371+912905484+917161306
1478+923701654+930868643+937077414+942115796+945352182+945276978+943097266
1468+942509740+946029384+952470670+957124796+957532667+956479081+956696277
1458+957091614+954705908+950133405+946590812+945096234+944914520+944547461
1448+942257303+937946743+933787137+932138214+934069183+938873233+944218245
1438+947796078+948958353+948936737+949469948+951220960+953334187+953938546
1428+952666916+951577423+951762224+951753384+950529044+949606672+950478666
1418+951567977+950450813+947752421+945555452+945031323+945793054+945995415
1408+943971197+940530330+938590279+939844652+942940863+945384880+945866441
1398+944829567+943643011+943112949+942958301+942930387+943972711+946854330
1388+950056747+950977908+949865830+949737886+952313177+956433547+959813076
1378+961544893+963118551+966871558+972969944+978361399+979948015+978047805
1368+975072575+972431404+970783511+971792289+976925615+984241499+989668981
1358+991898345+993026227+995077451+998103241+1000959489+1002231300+1001004962
1348+998273268+997042752+999962760+1006782247+1014263496+1018538391+1018019833
1338+1015078996+1013726470+1015217960+1017942207+1020562972+1022793305
1330+1024473109+1026341347+1030179186+1036339153+1042338781+1044953975
1321+1043282164+1039066487+1034917175+1033480301+1037248143+1046485671
1312+1056616810+1060864579+1058838302+1057225468+1060202999+1065793787
1304+1070763444+1073741823+1073439311+1068669593+1060972117+1054078394
1295+1050509401+1050153846+1050664049+1049112976+1045659393+1042806355
1287+1040934120+1038265399+1034327893+1030119967+1025944981+1021942686
1278+1019475720+1018953165+1017812144+1014083660+1009712852+1007218759
1270+1006000535+1004011861+1000999028+998384561+996943206+995809330+993497677
1260+989361685+984146797+979033574+974190590+969083120+963931023+959575655
1250+956026160+952305972+947862745+942699083+936360370+928742034+920854670
1240+913348414+905717665+897838718+890701036+884869981+879761905+874716621
1230+869634218+864436648+858809044+852849017+847291411+842939010+840160025
1220+839083127+839787758+841818515+844014152+845358565+845708670+845532285
1210+845476215+846293229+848526589+851931004+855540748+858679466+861707557
1200+865376459+869518808+872952893+874880350+875710080+876341565+877547619
1190+880138895+884555601+889904367+894419226+897474686+900196995+903489270
1180+906612669+908709426+910856077+915151621+922298447+930997011+939113923
1170+945182337+949915542+955882654+964680462+974582355+981628969+983667718
1160+982411650+980608020+978538631+975226253+972432857+973959346+980743714
1150+989377368+995631128+997652076+995861706+992017933+988340797+986262750
1140+985733777+985989180+987332382+991299739+998075266+1004468899+1006893903
1130+1006048431+1005722485+1008680337+1015152020+1023560364+1031516392
1121+1036281750+1036252444+1031606977+1025042045+1020739902+1019925371
1113+1020727428+1021915922+1023078742+1022404810+1018338815+1012407731
1104+1008464837+1008679550+1012047574+1016646902+1021004025+1023942077
1095+1024729360+1024295694+1025391908+1029762717+1035154776+1035995708
1087+1028976039+1017812870+1009411974+1006794903+1008051274+1010024992
1078+1010501527+1008227780+1003835355+1000153556+999409446+1000409081
1070+1000349256+998454134+995645479+992394257+988905010+986814490+987780640
1060+990880303+994281993+997679566+999315531+996334306+989680486+983541470
1050+980218859+978791795+977796458+976868697+976676266+978286921+981703325
1040+984423818+983049372+978395489+975234609+975875056+977377809+976285410
1030+973682447+972686203+974150445+976132640+977092796+978018801+980282740
1020+983770897+987634349+991187659+993335945+992302826+988118151+983646768
1010+980630726+977854587+973843149+969756385+967277612+964299718+957102877
1000+947038647+938837024+932842179+925020574+914626765+906061534+902403350
990+902220123+902251609+900180344+895132334+887984358+881167353+876759064
980+875280652+875934663+876894940+876350587+874020527+870784383+867251660
970+863576643+860040469+856915799+854010989+850932580+847729739+845058111
960+843620995+843623720+844844063+846814027+848872759+850662462+852805965
950+856363816+861398747+866843305+871710388+875618950+878358940+879993876
940+881508981+884381457+889073548+894529610+899502113+903855361+908109003
930+912477510+917483255+923967896+930876333+935413293+936315259+935142691
920+934136213+934176116+933986955+931535611+927741733+925924297+926673554
910+926953965+925159478+923664597+924810341+927510065+929074822+928597983
900+927448787+927348030+928775761+931105155+933883958+937625702+942953639
890+949025807+953972273+957143204+959066907+959878289+959353797+957933333
880+956264367+954452502+952736247+951892651+952442696+954303910+957665819
870+962366145+966214398+966496626+962883916+957383712+952954472+952281206
860+956382805+964597870+974706847+982846042+985318882+981924276+975811841
850+971560803+973216931+981055249+990773672+997322739+999036997+997304514
840+993608485+988836648+984047252+980687099+980251496+982905685+986525238
830+988880972+991037008+995608422+1002667146+1008745006+1010158930+1008366805
820+1007332171+1007852424+1008250910+1007951365+1007852061+1008602408
811+1009489540+1009410097+1008535560+1007374435+1005631053+1003604353
803+1003717704+1008638981+1017725919+1026254154+1029561809+1027443253
794+1023522822+1020238540+1016229100+1009949727+1002024943+993555443+985794449
784+980456582+978187739+977178900+974651564+969233286+961651644+953989711
774+948500043+946956964+950260077+957501544+965585638+971169402+973118839
764+972079482+969181999+966502802+966653877+971077364+979952980+992380876
754+1004337383+1008595263+1002755974+995202246+993930858+996522559+995210299
744+986923905+975858647+968540462+968703102+974601852+979458218+977969089
734+972186355+967644914+967472647+971501524+978406146+987012733+995701610
724+1001155916+1000629123+995344359+989834649+989305434+996402063+1008699350
714+1017607360+1013810575+998063943+981898723+974423530+975495705+978730275
704+977099336+969850421+962737867+960766692+963301354+966064838+967158448
694+968810459+974096615+983359938+992767312+998442387+998637482+992146180
684+979147229+964286336+954474179+952052687+953592740+955416715+958739084
674+965812643+972756744+970460835+954386138+934323679+927701042+934951289
664+944380885+951800250+959470176+966867561+968748031+964014583+959382559
654+960287310+962557365+956816531+943224241+930606760+923005500+920270778
644+923998717+934524647+945920513+951120142+950367373+952835247+963079980
634+969985692+961269749+945130626+938060034+942291696+946384878+939503932
624+923078403+907484784+898588460+894274691+891297099+892154682+899963208
614+911645117+918993335+915990069+902371500+882708435+867899252+870090227
604+889498070+907578395+908917600+905601892
##END=
