##TITLE=<SNM>
##JCAMP-DX=4.24
##DATA TYPE=INFRARED SPECTRUM
##DATE=29/4/2025
##SAMPLING PROCEDURE=Instrument type and / or accessory
##ORIGIN=Admin
##XUNITS=1/CM
##YUNITS=ABSORBANCE
##RESOLUTION=4
##FIRSTX=4497.3318
##LASTX=599.83466
##DELTAX=-1.4281778
##MAXY=2.1975584
##MINY=0.63039309
##XFACTOR=1
##YFACTOR=2.0466358e-09
##NPOINTS=2730
##FIRSTY=0.64901501
##XYDATA=(X++(Y..Y))
4497+317113101+316706482+315518284+313744300+312413835+311843514+311758329
4487+312101779+312858721+313617614+313900517+313686199+313515741+313824564
4477+314186769+314026679+313863356+314591146+315852968+316484418+316253412
4467+315936435+315909409+315757880+315235963+314724938+314573584+314735742
4457+315182376+315975839+316807365+316828771+315357582+312856770+310779934
4447+310271122+311319587+313081164+314449607+314730180+314617881+315471104
4437+316803550+316381875+313675482+310902892+310041398+311059167+313129509
4427+315411256+316636790+315991653+314443986+313587559+313487375+313119257
4417+312397526+312112176+312227067+311830322+310673401+309647215+309878133
4407+311801111+314639053+316687785+316782232+315492422+314273207+313830913
4397+313642456+312738908+311073176+309944359+310610786+312748053+314739004
4387+315320624+314469585+312932228+311706606+311668542+312766954+313864404
4377+314038503+313490550+312886330+312656052+312999532+313756474+314282963
4367+314113408+313610100+313431517+313565513+313369077+312610416+311981500
4357+312207467+313141362+314129571+314858497+315468366+316099525+316607434
4347+316593659+315911768+315217411+315276503+315869976+316265294+316336209
4337+316333181+315964131+314579147+312259947+310140184+309321792+309730944
4327+310541386+311479707+312758916+313929000+314085828+313210355+312339133
4317+312334212+313101609+313995546+314478177+314541374+314744013+315434321
4307+315895488+314964039+312716804+310782701+310570946+311682987+312472518
4297+312089664+311505481+312111332+313817021+315216771+315422293+314851565
4287+314270149+313925680+313597199+312879544+311515033+309927584+309198397
4277+309912091+311206356+311644952+311039335+310554258+310907202+311462553
4267+311390968+310870362+310711116+311228053+311961434+312221563+311722303
4257+311029724+311201493+312524153+313914613+314320998+314298166+314972281
4247+315988915+316028930+314992085+314018845+313638525+313441826+313420042
4237+314110001+315308538+315855065+314912579+312931733+311344430+311376028
4227+312777875+313850076+313461601+312524445+312511456+313482366+314472789
4217+315053448+315567589+316092069+316067053+315190531+313986926+313050556
4207+312421902+312171355+312733841+313918807+314333463+312776186+309938389
4197+308014305+308448561+310456288+312182130+312758129+312593700+312366393
4187+312480672+312952614+313428138+313598160+313466698+313054749+312387653
4177+311759756+311415257+311315627+311551437+312408359+313626206+314311766
4167+314175994+314094391+314819326+315763268+315714399+314407640+312688729
4157+311385988+310753286+310777400+311405763+312542559+314058744+315625457
4147+316632189+316690377+316098535+315469793+315100948+314864846+314455024
4137+313740543+313036780+312886796+313323936+313634273+313223373+312403729
4127+311945446+312157405+312704222+313031247+312851586+312475226+312536443
4117+313165913+313809420+314001313+313744417+313168272+312558577+312438706
4107+312766400+312573022+311372999+310226913+310333387+311404802+312333076
4097+312661440+312604621+312358733+312149134+312405622+313325858+314506950
4087+315288210+315468774+315502004+315775238+315895779+315264475+314221222
4077+313641641+313529982+313131402+312386459+312238571+313327751+315069116
4067+316255509+316233230+315254165+314014243+313144624+312774555+312474324
4057+312010740+311807635+312106555+312438589+312563703+312936101+313498355
4047+313119461+311167389+308857073+308069988+309206843+310933210+311815003
4037+311568358+310784885+310159434+310177025+311013298+312348162+313380027
4027+313484841+312940004+312550801+312605495+312722366+312680458+312735792
4017+313149196+313867928+314392904+314032620+312836587+311754223+311439866
4007+311692743+312200070+312919210+313726302+314400796+314679768+314206486
3997+313124267+312365985+312612135+313518333+314330405+314503019+313790927
3987+312601505+311880588+312008993+312456529+312868623+313555494+314592165
3977+315437583+315680034+315315178+314346074+312994901+312092198+312319213
3967+313322217+314327464+315239225+316448654+317894506+318891423+318903160
3957+318227152+317657560+317501343+317371744+317086133+317034293+317348329
3947+317510196+317151456+316578835+316178944+315833164+315200928+314228765
3937+313277338+313005065+314015117+316246219+318711442+320227568+320419578
3927+319693361+318672970+317933036+317763190+318049325+318578494+319211488
3917+319448580+318471612+316334083+314375313+313975917+315251777+317121051
3907+318686046+320155168+322118015+324418984+326210761+326530039+324797556
3897+321623590+318843516+318155596+319791215+322006415+322414024+321045814
3887+320234121+321260948+322941620+323894037+324401044+324484511+323334114
3878+321637832+321265083+322524081+323960118+324642796+324706663+324137828
3868+323302632+323380711+324696819+325780553+325201466+323304408+321258152
3858+320265836+321864119+327089904+333153710+334262723+330401856+325586039
3848+322145915+320671814+320977753+322574842+325034037+328075289+331046091
3838+332799950+332915220+332112846+330839345+328847870+326450824+324827728
3828+324562823+325094642+326224070+328766296+332368664+334277110+333437895
3818+332273606+331712605+329831565+326054311+322606150+321611941+323495981
3808+326645804+328473840+328881856+330277063+333219966+335285472+335252505
3798+334501475+333567435+331862386+329769445+328362269+328121798+329092505
3788+331199192+333854386+336021300+337395625+338929429+341474479+344360912
3778+346286977+347457148+349466447+353537729+359564636+366172755+371659630
3768+375454241+378056489+379884118+381499380+383720696+386359697+387996423
3758+388100509+388333990+390996436+397635746+407938467+417979400+423520998
3748+426363833+430664926+436340083+439004800+437905019+437446037+440858348
3738+448420486+457521729+463838237+465255402+463674797+462053857+461928277
3728+463511125+465910559+467277108+466492149+464392394+462432779+461230019
3718+460517082+459843898+459573344+461108342+465040589+468840064+469124191
3708+466205868+463001526+461714775+462875685+465391262+467218541+467350149
3698+466638785+466645920+468492100+472173102+476344247+479100994+479817163
3688+479911901+480671930+481817871+482827369+484026082+486145350+489575950
3678+493968549+497199247+496069557+491626750+488841346+489922051+491952580
3668+490541735+485502426+479810611+476157567+475649367+477613554+480478290
3658+482831738+483542723+482261738+480250167+479651510+481909027+485881697
3648+488136418+487323181+485154869+483259849+481686380+479553569+476883988
3638+475433214+476742070+480238780+484584782+490083393+497311022+502919981
3628+501404641+493887586+486046098+481493089+481839247+486923086+493394996
3618+496907898+497294596+497355173+498451429+500303725+502474046+503858565
3608+502868724+499858140+496958806+495574928+495806516+497554783+500540031
3598+503441520+504771112+504788586+505179769+506950578+509892898+513227741
3588+515726048+516328200+515378666+514041386+512945362+512041435+511422392
3578+511747815+513265135+514764690+514763933+514040687+515355542+520055974
3568+525833848+528946306+528596594+526550105+524218208+522471746+522060700
3558+522859026+523595786+523144318+521722929+520472494+520221918+520767862
3548+521410961+521930752+522167583+521205701+518892093+517154426+517562151
3538+519049941+519695545+519325155+518867804+518769892+518978065+519130729
3528+518682406+517802942+517342388+517644162+518326170+518802685+518313647
3518+516241821+513184173+510795369+510233582+511303686+512805396+513723710
3508+514462217+516062130+517901612+517945471+516140239+515097569+516242345
3498+517887982+517887516+516314687+514621113+513577395+512889970+512149075
3488+511458563+511224645+511578492+512326319+513515013+515204393+516706511
3478+516794929+514937974+512204409+510550326+510645209+510835675+509280903
3468+506554502+504670928+504308344+504520186+504411848+503916869+503390904
3458+503267887+503773758+504368163+503816220+501645665+499267520+498395047
3448+498813140+498973376+498483814+498341111+498715169+498359982+496615501
3438+494524919+493485453+493934358+495190792+495861966+494889891+492670818
3428+490554840+489417461+489325665+489907023+490485177+490422795+489905392
3418+489914246+490960119+492386342+493253399+493253690+492487458+491036364
3408+489136073+487430995+486733086+487269157+488380412+489201717+489327937
3398+488898194+488499381+488971760+490655373+492629404+493323760+492242124
3388+490506379+489541818+489823323+490732492+491195842+490776526+490252250
3378+490806523+492769079+495371531+497531019+498579164+498458943+497589440
3368+496599600+496161470+496774164+498387183+500338149+501964856+503178770
3358+503948614+503789543+502724623+501881214+502230809+503606241+505347927
3348+506871363+507496406+506916155+505827819+505186235+505027630+504676753
3338+503819889+503009564+503307262+505230502+507699336+508667276+507386320
3328+505220542+503800318+503363703+503146327+502399724+500789675+498588425
3318+496727159+496193447+497188821+498996674+500660485+501627434+501742005
3308+501098090+500250488+499914522+499988087+499504525+498102941+496736653
3298+496324443+496663671+497218759+498095543+499483790+500967560+502329129
3288+504224353+506883187+509034870+509545342+509187068+509277874+509630614
3278+509379805+508836890+508956179+509684143+510201488+510394575+510790709
3268+511095862+510139397+507798064+505786581+505715054+507176458+508144864
3258+506872936+503418804+499695981+497986681+499087189+501862925+504495898
3248+505769748+505307329+503506989+501501563+500547719+501253434+503425852
3238+506243583+508326884+508321234+506137166+503213951+501094537+500177330
3228+500005736+500119957+500346827+500805518+501688884+502484065+501824307
3218+499146077+495944793+494167460+493985731+494116786+493678132+492725336
3208+491598151+490797262+490906066+491887228+493058797+494008739+494694241
3198+494781669+494012991+492833558+491663445+490304264+488791021+487838633
3188+487873697+488402284+488607777+488064658+486891837+485567836+484471318
3178+483487739+482298462+480935612+479797592+479246581+479108857+478707626
3168+477598526+476034522+474688155+474068092+474121125+474280255+473955414
3158+472981650+471748427+471007561+471252167+472080985+472473391+471886354
3148+470650889+469185524+467474097+465550858+463988047+463519949+464107336
3138+464641106+464137099+463036067+462494345+462653183+462571493+461680293
3128+460440750+459600516+459308555+459135680+458886327+458907674+459280014
3118+459339513+458526917+457155766+455944414+455217295+454755196+454215572
3108+453663250+453473978+453622157+453629205+453376823+453260825+453437807
3098+453560620+453230071+452403787+451537371+451237809+451481571+451543079
3088+450995620+450153609+449340751+448571053+448039234+448012033+448127798
3078+447677727+446732911+446224653+446670588+447423394+447476544+446578034
3068+445302932+444423847+444309538+444567512+444420643+443697310+443003769
3058+442849561+443224640+443871962+444339797+444189871+443547441+442827865
3048+442003794+440856251+439588167+438588920+438066915+438126997+438631790
3038+439134690+439455249+439876400+440445526+440646855+440022569+438720848
3028+437325059+436380680+435956763+435534709+434584826+433349971+432727608
3018+433180154+434069315+434361654+433724263+432647403+431735205+431191882
3008+430908484+430807688+430953916+431296755+431511975+431294396+430671304
2998+429844816+428914998+427970590+427254567+426963189+426965344+426993302
2988+427020445+427155373+427349508+427518394+427646478+427525617+426827096
2978+425647110+424588160+424188269+424463280+424897274+424867306+424292152
2968+423634607+423126727+422530895+421768828+421153221+420893733+420851621
2958+420816644+420686055+420411248+420004892+419569004+419265366+419163085
2948+419052766+418629576+417949869+417376142+416990259+416542431+416083041
2938+416010612+416311367+416473933+416388544+416529529+416972144+417064610
2928+416402115+415426312+414782398+414598601+414528093+414194196+413569036
2918+412995192+412764332+412758071+412632958+412209855+411606247+411175806
2908+411216025+411484279+411319587+410589643+409984607+410019118+410403545
2898+410655781+410672149+410531367+410275840+409887947+409195048+408097539
2888+406998108+406512798+406716049+407082157+407165304+407041734+407022047
2878+407108222+406989312+406579956+406151495+405865126+405677748+405681330
2868+405968456+406204703+405868243+404933795+403958545+403456257+403380245
2858+403261364+402749902+401974787+401433969+401520872+402059361+402429401
2848+402325897+402090727+402040460+401937859+401450802+400706034+400082301
2838+399735968+399560966+399463025+399437804+399408419+399243232+398979958
2828+398786521+398681124+398518326+398212444+397822135+397471083+397227671
2818+397024158+396796706+396681465+396824023+397060591+397003743+396370720
2808+395267329+394285235+394054288+394500281+394868224+394597349+393841455
2798+393133440+392866555+393038965+393253807+393022393+392218971+391220859
2788+390520009+390243076+390190654+390260521+390500496+390763508+390745801
2778+390343522+389630906+388683818+387745672+387274429+387462477+387893094
2768+387954602+387476748+386746832+386067970+385589737+385376701+385275323
2758+384952055+384430604+384243312+384701246+385402853+385735819+385534782
2748+385090915+384747668+384567337+384337351+383870214+383211068+382564241
2738+382144517+382009094+381922540+381575508+381022690+380636982+380543409
2728+380409239+379994757+379625125+379713456+380052625+380102280+379756471
2718+379262220+378674572+377952083+377294102+376970542+377049787+377405207
2708+377742279+377732202+377359978+376961718+376772883+376658953+376385166
2698+375968674+375674413+375663783+375693285+375331633+374570614+374034542
2688+374308213+375126576+375565347+375119645+374228969+373575997+373312577
2678+373188804+373027315+372791912+372444356+371994547+371581347+371355642
2668+371349584+371500297+371672590+371680249+371517247+371497297+371831312
2658+372171296+371953018+371117909+370176005+369657029+369722062+370152911
2648+370531804+370503671+369977589+369134297+368306789+367817286+367783037
2638+368016955+368182549+368100480+367853923+367632179+367609870+367895889
2628+368375054+368651171+368388713+367709472+367056296+366705710+366613972
2618+366682761+366922445+367292252+367575854+367541780+367171915+366697061
2608+366448960+366620205+367079391+367444829+367388621+366884585+366217780
2598+365752653+365580796+365447354+365175285+364979285+365122542+365519317
2588+365945973+366352038+366687071+366724174+366335117+365717821+365178110
2578+364863986+364738320+364661027+364557494+364559241+364814331+365168790
2568+365275585+365001361+364535476+364170009+364073902+364181775+364304471
2558+364395743+364554465+364732582+364692742+364336040+363880495+363648325
2548+363756168+364012598+364122800+364028150+363954118+364052409+364136750
2538+363938654+363563925+363455791+363862409+364543398+365057073+365167829
2528+364946842+364639563+364469803+364475075+364519633+364488908+364387880
2518+364234808+364010355+363763274+363631550+363691019+363869049+364056050
2508+364208422+364307092+364314722+364203821+363987523+363758935+363660906
2498+363738111+363922432+364212791+364649552+365075538+365243666+365189875
2488+365159878+365209038+365192875+365052326+364861860+364735407+364792634
2478+365014670+365148142+365013767+364806060+364793421+364913350+364988168
2468+365098982+365365372+365571215+365392748+364868413+364349670+364068864
2458+363959040+363864186+363764614+363756051+363919258+364258893+364660939
2448+364899575+364854580+364722564+364797236+365041900+365112524+364820797
2438+364355174+363999056+363849916+363902599+364187163+364648300+365066335
2428+365289855+365413047+365615016+365956748+366317556+366408391+366040769
2418+365543635+365595824+366430612+367501474+368135399+368265201+368317827
2408+368602681+369039675+369382485+369524344+369568116+369691977+369975754
2398+370330621+370614834+370836549+371239178+372244454+374340103+377934609
2388+383295933+390684147+400446516+412840257+427856660+445341869+465129444
2378+486901942+510098625+534097390+558212065+581366140+602266077+620304307
2368+635833571+649023948+658946116+664222430+664299607+659710251+651030655
2358+638238917+621458403+601371470+578785240+555859200+536914480+525894308
2348+524402208+531857347+545368022+559841102+570794408+577136049+580289396
2338+582220325+584324245+587047733+589778502+591149158+590313030+587879900
2328+585075624+582291152+579045077+574968174+570048795+563985047+556160450
2318+546878702+537848986+530594040+524862355+519048485+511886150+503386419
2308+494311795+485308494+476684756+468632154+461285353+454602591+448432922
2298+442661047+437149126+431736603+426478025+421699922+417681470+414362149
2288+411418461+408620330+406067183+403995502+402437264+401231213+400250634
2278+399403934+398552138+397626514+396704502+395888411+395243331+394817899
2268+394542888+394197574+393691791+393265019+393166175+393252583+393147041
2258+392703436+392110166+391588744+391144062+390605253+389874289+389114434
2248+388630931+388559258+388732046+388847171+388752607+388584741+388580547
2238+388766441+388995233+389260720+389687347+390182704+390391110+390080306
2228+389422034+388816912+388500371+388382073+388253552+388004898+387575767
2218+386926989+386187841+385601357+385244598+385023290+384912011+384937930
2208+385021543+385101865+385276255+385570050+385758506+385673263+385492786
2198+385493834+385717268+386057223+386474385+386974489+387534354+388102344
2188+388567500+388808611+388876818+388972721+389170380+389368564+389570330
2178+389969172+390657296+391424518+391956891+392145318+392131892+392142726
2168+392334881+392691117+393005531+393102395+393085037+393185134+393399219
2158+393511897+393447855+393357631+393372746+393484375+393672715+393999012
2148+394491253+395017189+395387549+395561677+395629971+395653270+395675840
2138+395821922+396187040+396657235+397014373+397228603+397479238+397864626
2128+398295941+398742109+399324981+400068468+400860387+401759683+402959473
2118+404336186+405415726+405898385+405934149+405888367+406082298+406653434
2108+407437927+408082773+408407439+408551453+408721649+408946539+409120026
2098+409173613+409158935+409207017+409434324+409873502+410449676+410966526
2088+411145489+410836724+410263783+409891966+409940631+410181277+410326339
2078+410429756+410746238+411321102+411871443+412074461+411944979+411877850
2068+412241629+412978534+413700819+414113990+414235347+414270877+414422114
2058+414785077+415327934+415916573+416380564+416662739+416948350+417497323
2048+418329141+419253949+420155109+420997382+421659732+422040314+422277727
2038+422700480+423571905+424865180+426245330+427349275+428104470+428735192
2028+429559233+430776905+432280188+433715060+434904599+436074770+437508710
2018+439153532+440691967+441904862+442907138+444020024+445411678+446945948
2008+448440406+449928167+451552777+453332235+455125469+456750254+458079817
1998+459110634+460047033+461263394+462991799+464997225+466709991+467775348
1988+468392848+469090087+470218467+471678851+473186473+474706036+476373924
1978+478100611+479632609+480966249+482370892+484086134+486220284+488735221
1968+491294978+493382240+494871835+496237248+497930240+499916095+502022403
1958+504322148+506817951+509148042+511058585+512830151+514898250+517350251
1948+520010250+522819419+525927508+529278835+532224417+534097099+535221663
1938+536586378+538635721+541038795+543398010+545664787+547971464+550430571
1928+553132100+556156198+559384741+562349661+564686509+566700788+568837792
1918+570830812+572188420+573210005+574620385+576639906+578912625+580908148
1908+582341536+583457188+584704420+586114741+587421093+588701059+590389274
1898+592638287+594929528+596409512+596837158+597044107+597857752+598880560
1888+599168647+598776590+598485416+598573892+598867396+599386896+600234382
1878+601278683+602284425+603046172+603518027+604128333+605529510+607540702
1868+608764111+608175239+606408798+604549047+602932358+601554713+600655737
1858+600347963+600174971+599647666+598995888+598844447+599222408+599461685
1848+599220428+598990121+599113837+598823478+597195839+594623792+592215126
1838+590631638+589804713+589321500+589144897+589594851+590336212+590166482
1828+588650617+586775547+585241802+583731529+582072379+580709353+579732851
1818+578534896+576805326+575201393+574490903+574455838+574126979+573054603
1808+571899401+571573920+572356694+573934533+575733125+577032138+577293664
1798+576761699+576476641+577519777+579989485+582153749+581690398+578991665
1788+576754884+576642003+578194329+580076913+581624405+582879791+583955312
1778+585129444+587039637+590258511+594460818+597818902+598580066+597591041
1768+596768718+596714432+597357007+598945563+601302972+603338278+604461153
1758+605157548+605759001+606447649+608078026+611551903+616402260+620495064
1748+622098298+621694650+620870696+620730497+621601980+623281284+625170799
1738+627003233+629478940+632971748+635644445+635374531+633518507+632217106
1728+631932631+632557673+633988906+635807244+637898408+641209545+646751113
1718+653577540+658163109+658138878+655167552+651947979+650068598+650156900
1708+652099303+655018674+657815203+660590588+664633242+670082723+674469031
1698+675991535+675626213+674007020+671755328+670625056+671372533+673072980
1688+675226934+679097877+685145666+689530284+688558675+685189059+683332220
1678+684002171+686428369+689115511+691383396+694328278+698509559+701576584
1668+700808721+697973866+696976570+699372655+703551140+706443309+707158925
1658+707830798+711263029+719049067+728886020+732494738+728349920+724298587
1648+723548140+724220712+723493039+721515047+720190464+720615896+723287312
1638+728323476+734345694+737625319+736211561+733369367+732546694+734595804
1628+738627624+743166480+747207910+750232766+752064675+753697964+757005140
1618+762881334+769364631+772709959+772817656+772800765+774397824+777261162
1608+780295570+782801100+784649493+785869931+786456473+786648570+787014882
1598+787973152+789385105+790735141+791686481+792309368+792669332+792568682
1588+792143308+792257471+793587005+795626388+797410477+799044873+801647499
1578+805742633+809699141+810489895+808264996+806168182+805852253+806774528
1568+807855465+809012298+810576216+812597601+815548134+820596413+827839069
1558+833435272+834005505+831587928+828692438+826769780+826279636+826293441
1548+826187549+827250663+831242351+838228723+846289451+851973141+851689306
1538+847392639+844596867+844710215+844907146+842014627+837328175+834825790
1528+836129870+839987184+844588421+849397832+854021144+857454133+860257244
1518+863603095+865915538+865177672+863423405+864817650+871173679+881463149
1508+892941080+900161253+898528838+892376090+888102314+887952912+891434302
1498+896437732+900598393+903286176+905680164+908615261+911483899+913085735
1488+913452164+913671578+913919242+913987099+914860621+917847150+922755813
1478+928480974+934691153+941069315+944921503+942760793+936747137+933115586
1468+934225531+937691370+939727026+939511572+940376532+944732319+950828627
1458+953716428+950183256+944437359+941213941+940237673+940139469+939772982
1448+937280383+931761356+925374049+921668526+922669957+927479135+932759701
1438+934604075+930948760+924276744+919567110+919197886+922611769+927178292
1428+930022175+931490685+934050850+938263234+942233546+944118168+943784533
1418+942574055+942105753+942637427+942863656+941566624+939182654+936938535
1408+934861815+932003021+928398031+925789114+926033516+929357525+934055568
1398+937678090+939254298+939627075+939449307+938413743+936676542+935044942
1388+933906282+933779305+935924056+940530943+945439489+948388799+949566484
1378+950671769+953079503+957358637+963045822+968150949+970067549+967999334
1368+964017314+961532404+962793789+967570116+973563909+978102182+980441127
1358+982062243+984231108+986391236+987356497+987207269+987118502+987641089
1348+988461083+989738194+992206330+995894030+1000014501+1003875193+1006443862
1338+1006356376+1004653133+1005029288+1009796528+1017184276+1023066237
1330+1024768548+1023352926+1022401528+1024451105+1028611184+1032071023
1321+1034020882+1036611219+1041468507+1047431431+1053308149+1060237148
1312+1068483915+1073741823+1071257611+1063955136+1058699674+1057200993
1304+1057142281+1058140042+1062007840+1068332125+1073083405+1072474147
1295+1067471708+1062365940+1059237289+1057306652+1056077768+1054751496
1287+1051190541+1045510579+1041148152+1040026325+1040060224+1038319937
1278+1035024119+1032264518+1030505824+1028654053+1026136291+1023433656
1270+1020769113+1017731793+1014469292+1011702352+1009667920+1007909110
1261+1005552342+1001951895+997755587+994089205+990733393+987343449+985167828
1251+984870538+983799385+978698044+970779496+964136021+960230421+956737497
1241+950623890+941307078+930968971+922360028+916089738+910448568+904319410
1231+898783899+894616307+890382721+885002728+879746742+875918785+872869641
1221+869228829+864642561+859932578+856334577+854622248+854412794+854678572
1211+854960951+855559200+856822799+858501346+859716891+859975098+859995367
1201+861020330+863512696+866679091+869437876+871762783+874595833+878577328
1191+883276594+888004576+892898735+898206269+902887421+905334063+905809995
1181+906422107+908229728+910170908+911550067+913671811+917411991+921508465
1171+925234782+930117466+937254871+945823741+955184180+965165702+973328302
1161+975916833+973214605+970126320+970544937+973441126+974536917+971498898
1151+967621256+968572828+975871168+985290145+991095919+991279862+988295080
1141+985936215+986491653+990669905+998445924+1008356909+1016596919+1019534055
1131+1017773498+1015250610+1014852205+1015757937+1015359997+1014273468
1123+1015922192+1021019922+1026516990+1029444923+1029093930+1026827677
1114+1025316880+1026473305+1028708921+1028653471+1025582834+1020610100
1105+1016083418+1016586784+1024408701+1035203984+1042621438+1046523718
1097+1050418659+1054033434+1054152839+1049289842+1041392787+1034033114
1088+1030071772+1030265616+1033687945+1038820740+1043357207+1044873828
1080+1041798765+1033817369+1021945925+1010367227+1004168289+1003825451
1071+1005396940+1006586682+1008770808+1011527846+1011475424+1007891286
1063+1003867504+1001960865+1003170993+1008566246+1016877085+1021366256
1054+1015912407+1004233642+995461492+993554037+994714889+994755894+994733178
1044+996190038+998036917+999323582+1000357689+1001681981+1003491232+1004590227
1034+1002594120+996720198+989176582+983487650+981462537+982610924+985989569
1024+990235153+992736256+991602314+988467140+986948305+987896325+989316141
1014+989641389+988195362+985539091+983516191+982709827+982321440+981501096
1004+979054396+973231264+963938623+954095496+946832279+942656299+939478721
994+934708045+927653000+920105307+914506541+911918534+911528691+911328731
984+910206205+908532784+906907824+904987264+901431492+895825445+889631050
974+884786867+881925917+879985378+877586964+874630431+871776064+869185844
964+866656840+864126498+861413611+858483173+856156168+855205237+855372637
954+856437965+859014847+862906875+866061212+867120890+867708888+870303535
944+875233981+880781665+885137278+888038184+890867739+894981978+900219383
934+905525519+911111122+918450409+927252614+934493581+937939151+938722391
924+939371023+940934708+943034027+945082671+946034127+944796332+941866360
914+939549898+939472431+939874389+937513893+932827208+929835554+930321562
904+931948502+932835770+934328686+936882269+937509001+934733906+931865151
894+932491534+936713529+942498625+947405133+949346604+948424329+947455982
884+948920705+952263470+955211032+956381262+956356798+957328233+960357049
874+963147870+964122158+964939705+966265278+965460720+961226261+956935244
864+956850961+961940362+968938267+973116810+972611289+970251375+970896746
854+976466331+983658778+988104614+989598170+989310083+985544216+978175223
844+972348772+973188511+980241691+987678949+990564712+989229586+986731396
834+985025007+983508036+981663255+981810735+986138447+993583043+1001886193
824+1009300851+1013974780+1014579611+1012214339+1010908337+1013150243
815+1016202940+1015955276+1013402567+1013598508+1018465116+1023880406
807+1025812558+1026195120+1029104298+1035496731+1042103044+1043582155
798+1037471053+1027975831+1022207451+1023090235+1026850160+1027552496
790+1024937696+1023861884+1025353459+1025128045+1021755692+1018681327
781+1017221787+1014174216+1006803825+996640633+986395896+976985074+970427337
771+968880020+971639039+974979764+975527980+974763029+976015095+978572814
761+979850042+980966510+983564652+983735780+979122544+975443581+976903004
751+979373470+978221937+975679537+976900325+983099845+989714779+991412314
741+988591089+985224327+983897123+986763548+994440198+1003239258+1009201715
731+1013697527+1019204147+1022460590+1016212143+999929228+982035799+970894532
721+970860982+980625186+995404643+1010773205+1019909628+1015357201+1001272858
711+990949138+990586030+994066489+993180327+989367863+988210273+989428789
701+989620537+987661475+985181341+984460716+985472573+984463744+978356952
691+970120262+965495027+967295309+974462652+982486277+984527699+978080981
681+968625134+964045739+969449321+983392475+996877347+1000707750+994833595
671+985711733+974963339+960303637+951325469+954826256+960462882+958936010
661+952145579+949128820+955644327+967776133+971632864+956232733+932773563
651+922064835+930137503+943297942+944515001+936364283+931104278+931056924
641+928054551+917526504+907001193+906203275+917075094+934672281+949813624
631+954204358+950933295+948597496+947979850+945887288+945016387+949377707
621+957322699+962128964+955662559+936482174+914830450+900665784+895664277
611+894978949+893311935+889785403+886624077+885359313+885193136+883372293
601+881236279+885428510
##END=
