##TITLE=<SNM>
##JCAMP-DX=4.24
##DATA TYPE=INFRARED SPECTRUM
##DATE=29/4/2025
##SAMPLING PROCEDURE=Instrument type and / or accessory
##ORIGIN=Admin
##XUNITS=1/CM
##YUNITS=ABSORBANCE
##RESOLUTION=4
##FIRSTX=4497.3318
##LASTX=599.83466
##DELTAX=-1.4281778
##MAXY=2.2254095
##MINY=0.6884613
##XFACTOR=1
##YFACTOR=2.0725741e-09
##NPOINTS=2730
##FIRSTY=0.70062214
##XYDATA=(X++(Y..Y))
4497+338044433+338699471+339338002+339299810+338798229+338794030+339026199
4487+337976045+335532442+333998134+335343785+338270218+339506931+338082797
4477+336456749+336838061+338388215+339011072+338273698+337316060+337112247
4467+337581618+337637008+336278703+334055709+332512112+332213596+332546105
4457+333162951+334225731+335377548+336042306+336636117+337923014+339547394
4447+340641118+341169158+341463561+341407798+341068847+341228746+342232081
4437+342934427+341999279+339943143+338556396+338520362+338784194+338272461
4427+337291644+336796936+337034253+337439349+337539659+337432648+337367452
4417+337320546+337309359+337742869+339043340+340973052+342454271+342362761
4407+340639163+338358306+336621738+335716211+335324632+335088062+334966211
4397+335485479+337295268+339968509+341988092+342644856+342648192+342084434
4387+339825376+335922612+332642993+332176929+334432909+337316261+338690153
4377+338083574+336664416+335809820+335911195+336555075+337500835+338862533
4367+340173587+340116559+338127891+335732517+334954420+335798748+336552256
4357+336335876+336063875+336850226+338542621+339822730+339320746+336960113
4347+334309534+333176123+333987120+335789546+337407628+338163149+337703009
4337+335962932+333691192+332488817+333348819+335224724+336075350+335295873
4327+334155186+333999054+334990627+336427300+337478029+337501583+336258169
4317+334420485+333537879+334639167+336885542+338352267+338269010+337645377
4307+337588923+337899719+337468712+335886664+334214256+333713365+334394487
4297+335252361+335546965+335418500+335466556+336058181+337155299+338614345
4287+340042792+340469774+339207725+337045325+335519904+335202579+335576041
4277+336110551+336661223+337111959+337283160+337214513+337159785+337121939
4267+336632608+335391841+333983093+333514728+334553437+336554241+338302572
4257+339056482+339323277+340072817+341234469+341728630+341073736+340037932
4247+339387323+338985391+338525941+338233809+338325349+338403083+338079202
4237+337559330+337009607+336285461+335549381+335199962+335367511+336139683
4227+337509779+338867135+339484499+339199442+338173790+336693778+335428019
4217+335066953+335586336+336284167+336427587+335886923+335309504+335433426
4207+336230101+337023066+337310884+337023526+336311776+335530918+334867109
4197+334172556+333662807+333947634+334881862+335491490+335469892+335686417
4187+336785979+338098845+338571437+338212212+337935207+338213506+338488037
4177+338117078+337464599+337401617+338144629+339277953+340462958+341419301
4167+341627227+340780426+339362504+338304441+338079979+338366704+338764495
4157+339513085+340830063+341934284+341819451+340707206+339669504+339247268
4147+339248850+339432388+339813585+340474835+341170797+341197054+340155757
4137+338706690+337824601+337732746+338184747+339137064+340432474+341317064
4127+341097117+340169619+339524934+339274761+338679829+337645952+336951572
4117+336845624+336740511+336559734+337131573+338693058+340001437+339727424
4107+338293829+337479381+338320143+340247555+342052051+342863134+342439115
4097+341269324+340271885+339986943+340198349+340246836+339550788+338253969
4087+337414818+337891810+339228949+340381139+341087885+341641952+341864027
4077+341276111+339967128+338626021+337776545+337300013+336875936+336586594
4067+336784972+337510182+338328512+338822932+338960198+338845278+338391206
4057+337601318+336993790+337200134+338155183+339173157+339789457+339954474
4047+339573565+338640487+337687594+337351405+337683741+338392385+339337944
4037+340379270+341143591+341358793+341196507+341020130+340932962+340547969
4027+339394570+337860521+337196970+338059474+339549005+340217991+339696163
4017+338874554+338604740+338637381+338156707+337078542+336145809+335960459
4007+336582309+337786208+339176147+340345651+341068732+341172522+340574916
3997+339590906+338716928+338112189+337714771+337607990+337825982+338136864
3987+338292621+338291413+338482688+339343495+340680058+341382346+340815137
3977+339835643+339535200+339823852+339889278+339386978+338591396+337802744
3967+337236111+337362851+338752675+341093235+342683220+341938828+339518319
3957+337725153+337785202+338847521+339764695+340697485+342154634+343426748
3947+343343434+342283099+341890197+342919559+344426978+345043681+344409809
3937+343142756+342116644+341987747+342772286+343710166+344059125+343975897
3927+344069650+344511241+345105857+345900576+347090326+348455619+349342568
3917+349096364+347451047+344887779+342647875+341831012+342414584+343641030
3907+345444146+348617789+353095556+356943074+358204031+356780990+353510516
3897+349321286+345687129+344164324+345073014+346734062+346954096+346139705
3887+346715456+349535941+352434220+353348834+352819472+351481644+349110513
3878+346956310+347054694+349339519+351863186+353593341+354823238+355227068
3868+354712085+354537347+355224192+355361861+353621870+350730839+348265178
3858+347427263+349506435+355396285+361843249+362014479+356188445+349661905
3848+345729059+345494560+348462694+352941323+357364793+361251222+364196377
3838+364949626+363018965+359851763+356895680+354570851+353166619+353025643
3828+353757611+354358957+354919609+357038496+360868098+363101962+362047925
3818+360649819+360344458+358800027+354940861+351210851+350027659+351740012
3808+354753383+356958978+358436948+360848772+363643058+363943731+361396568
3798+358539731+356301639+353869253+351489322+350655635+351969133+354422715
3788+356730260+358420038+359670756+361255305+364290562+368616424+371983614
3778+372859548+372965927+374811807+379075177+384910011+390766789+395178094
3768+397844346+399163625+399299741+399239807+400879976+404532367+407834217
3758+408862687+409192780+411827283+418376542+427991686+436582098+440332785
3748+440955844+442314465+445362346+447249265+446614502+446135065+448246417
3738+453824206+462540064+471889419+477324938+476565189+472503648+469761990
3728+470569363+473837537+476748497+477730062+477152500+475859766+474739210
3718+474698976+475967352+477925737+479624258+480046867+478923033+477193769
3708+475627424+474648620+475047130+476988518+478812944+478846391+478084083
3698+478641398+481080486+484655026+488885036+493901655+499117860+502114694
3688+500740486+496265854+491651800+488938815+489125689+492337812+497980624
3678+504992410+510589381+510805302+506416659+502273730+500591228+499403664
3668+496299272+491811757+487636849+484701960+483409772+484330915+487715072
3658+492291050+495664394+497385950+500109462+505749973+512106405+513477565
3648+507266997+497659389+489351618+483966542+481318004+480833506+481918947
3638+483719734+485344949+486702419+488989545+494017208+502104054+509313010
3628+509551593+503455542+496762633+492910513+492723927+495309051+498072077
3618+498671869+497429088+496213629+496024338+496480337+497063507+497864323
3608+498970788+499962159+500580070+501437426+503323942+506062236+508491142
3598+509547796+509153744+508190326+507764409+508416715+510394167+513790920
3588+517118480+517422863+514218390+510517944+508838491+509063327+509950534
3578+511215114+513231390+515525361+517033700+517749965+519028809+521694285
3568+523986185+522980204+519263653+516305125+515277345+514277116+512242319
3558+510996030+512277635+515223106+517686408+518659547+519076204+520586843
3548+523274981+524775613+522806501+518184337+513621244+510816345+509761877
3538+509509260+509145979+508822328+509769699+512602551+515867705+517026510
3528+515163058+511965027+509479236+508296791+508186012+508891579+510004888
3518+511052627+511752845+511760380+510571378+508193087+505581274+503964112
3508+504037447+505852930+508781261+511382547+512169847+511023005+509180145
3498+507885943+507720293+508626539+509837685+510401529+510279189+510169676
3488+510227193+509852007+508931209+508339239+508747555+509433797+508701599
3478+505779882+502129937+500275630+501306401+503842348+505504373+505254172
3468+503849595+502242556+500543201+498891414+498200858+498767233+499018930
3458+497397166+494740433+493201897+493570929+494796455+495558619+495245551
3448+493932945+492410514+491739515+492163879+492847992+492802323+491872898
3438+490840631+490478788+490415519+489490120+487633455+486337068+486595494
3428+487423344+487200578+485880954+485016121+485769370+487484255+488346269
3418+487419087+485673776+484824185+485650251+487524459+489126552+489513530
3408+488765342+487819524+487563974+487981033+488296574+487910172+486932202
3398+485925875+485475226+485863871+486785704+487424494+487237332+486592446
3388+486234974+486399474+486891192+487627301+488483679+489089741+489485001
3378+490373071+491909364+493007603+492838789+492063453+491597044+491291511
3368+490600610+489693099+489252055+489570069+490414369+491709778+493734279
3358+496391645+498791333+499959629+499854141+499473836+499888940+500994541
3348+501470671+500503514+498920632+498069086+498184638+498474182+498347125
3338+497861218+497330503+497095027+497481084+498442835+499224958+498940936
3328+497715353+496589275+496138683+495995465+495767465+495497708+495099802
3318+494237787+493050453+492376291+492885148+494324121+495805542+496563335
3308+496343388+495555341+495157377+495826248+497033368+497419195+496311869
3298+494443585+493337926+494201091+496680671+498720702+498707990+497546367
3288+497310545+498465726+499829984+500807437+501988386+503483669+504425230
3278+504456922+504303523+504440415+504261995+503182564+501725876+500943005
3268+501049413+501045674+500119700+498938348+498664219+499261711+499788226
3258+499962447+500247791+500667899+500668302+499967508+498746872+497375367
3248+496563968+497010706+498187917+498515537+497541765+496610154+496738418
3238+497422992+497948932+498418390+498894059+498677046+497124648+494559138
3228+491966939+490298816+490119764+491101013+491656287+490239918+487469818
3218+485582841+485636792+486690571+487593308+488185681+488613151+488635755
3208+488000474+487002430+486247111+485801810+485152322+484363067+484284671
3198+485049826+485496047+484666069+483017963+481750392+481478392+481720914
3188+481566710+480830687+480211770+480205357+480299887+479462116+477364999
3178+474907995+473279876+472751951+472653970+472309296+471675051+471109740
3168+470727795+470158314+469130448+468157741+468140255+469298600+470852292
3158+471632977+470992261+469282380+467478373+466307259+465820316+465667549
3148+465409008+464651445+463275223+461591140+460142159+459277613+458939669
3138+458850747+458749085+458415886+457782963+457066036+456489366+455988849
3128+455543778+455464548+455828979+455989568+455243307+453815118+452641617
3118+452238679+452178400+451769853+450981288+450402892+450457103+450976543
3108+451515540+451772701+451659161+451244834+450752858+450425526+450260450
3098+449911549+448906661+447170351+445347679+444240898+444009362+444292722
3088+444797754+445280901+445407353+445196782+445170899+445656922+446318431
3078+446576771+446179468+445201671+443804283+442323984+441406177+441468066
3068+441939796+441689508+440439538+439061965+438428122+438748667+439915151
3058+441646888+443215218+443668801+442691204+441017761+439665237+438914634
3048+438392835+437898184+437620979+437694314+437982131+438197736+438070593
3038+437624257+437218011+437001314+436590466+435660667+434541549+433808201
3028+433575744+433580834+433709789+434040572+434460938+434618738+434288300
3018+433602979+432911446+432507414+432384873+432117790+431205563+429718793
3008+428313180+427458556+427012163+426736712+426766419+427196075+427655266
2998+427706658+427387752+427045293+426864602+426796041+426767023+426775622
2988+426809241+426722016+426261531+425370671+424410617+423838922+423713476
2978+423761446+423802772+423802197+423620298+423106609+422411194+421867912
2968+421597666+421457784+421331964+421270651+421314824+421272807+420791587
2958+419776576+418711841+418330097+418822303+419530056+419616677+418959051
2948+418120417+417601523+417484331+417563935+417433859+416743879+415720557
2938+415032158+414923134+415035839+415182567+415555481+415963856+415719924
2928+414651105+413458997+412769017+412451492+412100836+411671152+411391818
2918+411355524+411403149+411348191+411208653+411116798+411065636+410895442
2908+410442434+409666926+408834877+408465816+408765770+409278107+409422649
2898+409149728+408836171+408776037+408795593+408305314+407011572+405492420
2888+404647862+404807646+405691057+406793754+407572627+407739198+407499292
2878+407177137+406820068+406458455+406328552+406471282+406453710+405887911
2868+405027592+404511344+404620110+405022272+405221369+405092702+404927570
2858+405025579+405334880+405556207+405473727+405054166+404373216+403656174
2848+403283978+403501998+404121577+404569379+404308394+403374252+402380234
2838+401772706+401355934+400810380+400233278+399859616+399677285+399569181
2828+399520982+399522851+399491475+399321568+398945893+398483826+398253756
2818+398392517+398619539+398618877+398408248+398122731+397796636+397526649
2808+397448568+397502520+397620287+397981411+398625147+399121264+399115426
2798+398776446+398341557+397775527+397094865+396507352+396110769+395786255
2788+395359763+394734202+393993233+393343343+392847024+392417973+392099930
2778+392009426+392074421+392160754+392222384+392107436+391606458+390873915
2768+390403422+390444950+390769003+391007413+390941297+390496572+389727793
2758+388869631+388258335+388059210+388078392+387960165+387559527+387041754
2748+386704730+386718649+386895286+386834432+386446994+386075115+385986912
2738+386090616+386174965+386097317+385785313+385287873+384754455+384325749
2728+384114803+384140370+384221872+384156618+383930000+383571752+383122943
2718+382864632+383052311+383368772+383261474+382818042+382637495+382858333
2708+382952461+382532123+381882146+381547883+381639077+381689175+381199241
2698+380241776+379404465+379154292+379398771+379702003+379749311+379493818
2688+379055851+378666659+378555967+378735450+378980705+379063616+378885772
2678+378464600+377985278+377730993+377737176+377709021+377502246+377380711
2668+377518006+377629964+377464026+377259723+377328284+377522176+377456146
2658+377006100+376372286+375819830+375473115+375286010+375179775+375167064
2648+375266425+375373552+375346720+375193407+375072764+375095972+375206837
2638+375299297+375322591+375186850+374744339+374019158+373313304+372977344
2628+373188836+373891268+374760674+375327969+375334037+374933514+374502248
2618+374303496+374297687+374203473+373817013+373250063+372777154+372570666
2608+372654211+372920833+373131778+373102272+372924140+372788054+372634252
2598+372305338+372007512+372184177+372840395+373390521+373349223+372868348
2588+372430266+372294439+372404067+372625308+372894375+373167554+373349281
2578+373362826+373292166+373344075+373596203+373853134+373830846+373463309
2568+372991522+372732722+372764960+372866766+372798781+372592293+372484074
2558+372654814+373114926+373695622+374060226+373939669+373455516+372981140
2548+372664736+372344508+371911947+371509555+371366537+371588382+372089072
2538+372645870+373010071+373001703+372615990+372081969+371701519+371626286
2528+371860526+372341344+372899350+373330041+373590854+373739997+373722224
2518+373438490+372964604+372549299+372419884+372576044+372721333+372508547
2508+371936335+371407634+371335766+371755097+372352272+372791591+372905706
2498+372676470+372264328+372008577+372158553+372618320+373076907+373281151
2488+373137731+372749402+372375078+372199707+372165398+372094565+371909531
2478+371716848+371715726+371981342+372345773+372576361+372625854+372634540
2468+372764759+373069142+373413298+373516455+373206407+372669338+372302088
2458+372258433+372279628+372068596+371707702+371549386+371758030+372117601
2448+372303239+372250639+372181043+372273905+372457961+372592609+372668561
2438+372685011+372534172+372206868+371919223+371849799+371941597+372101525
2428+372381664+372822881+373311233+373717853+374045444+374345570+374586712
2418+374686649+374646904+374605521+374751414+375179488+375756417+376123293
2408+375996840+375524133+375145380+375098101+375308758+375712560+376321066
2398+376973833+377380884+377547052+377979814+379350024+382026630+386065826
2388+391591705+398982158+408674662+420932850+435705243+452526784+470693141
2378+489776615+509825203+530725166+551502042+570630408+586995403+600337163
2368+610897434+618804998+624066412+627411400+629952811+631124327+627989623
2358+618098913+602549919+584146791+564414491+544802978+528526790+518884498
2348+517443569+523879375+535423023+546974091+554762421+559097803+561811479
2338+563668086+564841731+566149679+568672742+572310839+575579156+577190107
2328+577207132+576263500+574429439+571327232+566904596+561633577+555792732
2318+549010556+541254205+533730111+527732473+523001313+518033987+511722188
2308+504032731+495498571+486834652+478801556+471872537+465983838+460676870
2298+455475419+450200114+445006802+440174152+435874517+432036921+428356289
2288+424621045+421091110+418300677+416423708+415047084+413607047+411932425
2278+410327600+409133738+408286390+407440394+406475624+405634230+405127040
2268+404829445+404448880+403856651+403181338+402641278+402319525+402077635
2258+401709782+401186257+400654652+400211163+399851132+399645450+399687322
2248+399818117+399703600+399259651+398784729+398632595+398882307+399305234
2238+399575853+399551725+399368762+399249557+399284211+399437294+399659254
2228+399880667+399963291+399791515+399394788+398887369+398348142+397814380
2218+397294192+396795659+396431199+396355161+396508129+396625090+396531337
2208+396238458+395835979+395445924+395144935+394906324+394753327+394798651
2198+395023602+395302130+395650370+396103263+396458002+396505138+396372934
2188+396389585+396730693+397305149+397880640+398285908+398529667+398736472
2178+399005021+399339025+399659254+399880955+400037259+400307879+400833819
2168+401487246+401938586+402038839+402006169+402117034+402380953+402664572
2158+402927916+403169489+403301032+403232442+403017356+402842934+402877301
2148+403126351+403434933+403621577+403659222+403767988+404227783+405013127
2138+405738911+406048097+405924779+405624452+405483390+405750875+406373703
2128+406950920+407092500+406847389+406668854+406942034+407626837+408400131
2118+409037109+409550568+410045419+410562329+411058533+411518328+412023303
2108+412607997+413127322+413460866+413768671+414283856+414920200+415325037
2098+415294208+415017750+414944760+415436650+416470268+417641756+418524017
2088+418976047+419056687+418866131+418649549+418756906+419218541+419621135
2078+419667149+419581448+419730677+420135830+420572647+420918787+421212615
2068+421511706+421837054+422202837+422612563+423020707+423341741+423516163
2058+423559790+423589699+423817037+424422667+425368744+426370009+427110374
2048+427520819+427820600+428229089+428718880+429211287+429888642+430989671
2038+432362412+433569762+434420676+435104904+435846938+436686722+437570852
2028+438457140+439341011+440305925+441491821+442915523+444396570+445712397
2018+446760712+447606449+448460526+449560980+450987529+452624937+454309913
2008+455944589+457513436+459075899+460665568+462175805+463481941+464651991
1998+465916887+467511618+469539944+471769955+473626649+474763770+475538559
1988+476501316+477700010+478891628+480097857+481513104+483093828+484617180
1978+486031305+487489776+489085714+490710929+492247739+493846496+495811351
1968+498131147+500394058+502374731+504368633+506676465+509127228+511366557
1958+513337797+515223106+517038359+518506608+519504939+520571774+522548938
1948+525641999+529360161+533340142+537357452+540651882+542536846+543593730
1938+544986229+547038108+549327305+551594472+553924506+556338919+558664926
1928+560830863+563110167+565774838+568565702+571078814+573583644+576516346
1918+579319750+580971940+581637130+582530377+584359203+586735711+588890720
1908+590597264+592152998+593615610+594612561+595031806+595416886+596475495
1898+598453407+600902963+602942131+604167714+605215338+606746741+608245015
1888+608741046+608447879+608425620+608985207+609490211+609533579+609501945
1878+609851536+610488715+611146083+611980892+613522533+616094889+619132043
1868+621030408+620488766+617984511+615159194+613364935+612924179+613138489
1858+613011490+612217749+611290854+610902611+611174151+611640906+611907154
1848+612378740+613785216+615560263+615652061+613305807+610246106+607899334
1838+606092019+604297243+602736046+602142120+602828534+604002581+604245132
1828+603242200+601991712+600881221+599195786+596685377+594197342+592462499
1818+591325321+590402280+589910218+590255035+591041242+591162776+590028013
1808+588185038+586609806+586033193+586794092+588601809+590455138+591387497
1798+591448121+591656506+593128897+596020417+598492289+597934657+594706947
1788+591746694+590817154+591456633+592479985+593381399+594125790+594747267
1778+595742665+598090760+602530421+608567055+613617782+614866487+612905946
1768+610349465+608795400+608962661+611120775+614252200+616428835+617378852
1758+618508611+620158213+621644005+623449077+626910077+631778301+635517399
1748+636236311+634918470+633638072+633701687+635402767+638033445+640183737
1738+641635479+644363419+649673665+654487535+654163769+650274435+646836269
1728+644993811+644390740+644794225+646049257+648298306+652441350+659104062
1718+666489540+670172443+668223693+663789553+660508237+660032855+662377211
1708+666468143+670482405+672847237+674407687+678049638+684717987+690357981
1698+690764572+687297187+682523119+678318647+676566952+677674624+680357413
1688+683845389+689303628+696682376+700707853+697694569+692862811+691242083
1678+693463869+697812364+701530123+703009186+703737473+705319894+706080391
1668+703801720+700813685+700980659+704537829+707965757+708252022+706772326
1658+706920951+710977316+719522174+729353986+732493751+729330979+727976787
1648+730308661+732544539+730840181+726776741+723872280+723542877+726079169
1638+731402817+737987766+741893607+740992135+738617352+738267818+740526588
1628+744424435+749275231+754874732+760063846+763274761+765467904+769690724
1618+777331521+785342272+788499983+787469672+787270086+790171269+794652515
1608+798160508+799908522+800624673+801083892+801735853+802549611+803082050
1598+803220955+803431009+804014927+804910934+806209967+807965689+809722791
1588+811158658+812756840+814972529+817318553+818948254+819921795+821285880
1578+823789445+826815901+829127529+831010192+833474012+836140811+838134310
1568+840393598+844347466+848642931+850885135+851869432+855305413+862771760
1558+868473068+867243919+863291546+861056301+861745245+863882481+864697446
1548+863433154+862329048+863861602+868852741+876587867+883739996+884471964
1538+879477777+875086718+872500041+869336405+865082066+862052504+861828473
1528+864327609+869083386+875671498+883702322+892282611+899048855+901333335
1518+898856689+893728026+888871420+886623809+887687768+891815914+898853296
1508+907997658+915647659+917190739+914227379+911332753+910748778+913137538
1498+917434095+920414652+919848622+917698503+917675324+922102388+930047166
1488+936521221+936908774+932246405+927321642+926019445+928956519+933793339
1478+937746344+939981647+941994242+945841358+951362233+955736266+957153383
1468+956514478+954925615+952107027+947882769+944298911+943769002+946308687
1458+949031508+948050087+943315361+937929250+933662716+931255379+930908778
1448+931583689+931523928+930037273+927952666+926392446+925983267+927157717
1438+929855173+932467445+933258138+933646439+935609856+937409349+935718565
1428+931682619+930115094+932863166+937429250+941055614+943147410+943499763
1418+941832215+939315824+937103011+934662313+931366905+928113083+926523069
1408+927802833+931897677+936230240+937781717+937635220+939068902+942168980
1398+944552966+945879607+946836008+945821226+942405377+940211314+941585637
1388+943767852+942712751+939269178+937748242+940267681+945955472+952971112
1378+959753116+965452928+969725559+972251152+972931814+972289459+970846230
1368+968886953+967406568+968258287+972457180+978593377+983626734+985331093
1358+983602117+979958843+977053749+977822643+983057886+990565761+997412874
1348+1001584389+1001946059+999580939+998220190+1000598309+1005688263+1010508115
1338+1013271831+1013936848+1013265619+1012845281+1014357531+1017613712
1330+1020322671+1021560678+1024263311+1031194975+1039955236+1045224184
1321+1045630603+1044339910+1044100868+1045464263+1047873901+1050137790
1312+1050909215+1049949593+1048693065+1049449995+1053126169+1058051048
1304+1061953150+1064224862+1065633350+1067338629+1069938536+1072628169
1295+1073741823+1072207831+1068421569+1063823965+1060333918+1059126050
1287+1059771281+1061526141+1063725725+1063989155+1059204619+1048922445
1278+1037041974+1028220515+1023784075+1022522601+1022815825+1023965945
1270+1026289767+1029902097+1033892891+1036560783+1035810525+1030393871
1261+1021890944+1014024850+1009117341+1007258261+1008564943+1012735883
1253+1016653170+1015983321+1010221217+1003080649+997502257+993206619+988365946
1243+981640310+973166946+964372462+956566014+949998838+944289765+939257444
1233+934960139+930936559+926101580+919477577+910931051+901703576+893876536
1223+888887180+886345942+884373091+881719752+878992732+877151596+876338299
1213+876598623+877707561+878260246+876813566+874031962+872221829+872695428
1203+874642165+876741324+878851469+881268354+883535292+885510213+888272088
1193+892141578+895616498+897538963+898855366+900924386+903323729+904695233
1183+904862494+905343111+907856165+912286106+916891130+920973607+925970440
1173+932479984+937924016+940403538+943414982+951784756+963722744+971350658
1163+971890172+972662862+980725666+994251597+1004513985+1005701837+1000891878
1153+995781563+993096071+993479597+996708630+1001424950+1004624764+1003927767
1143+1000539986+997844026+998873704+1004676070+1013128612+1019230529+1019235591
1133+1014401820+1009409070+1008193265+1010969520+1014718051+1017439664
1124+1020008626+1022867246+1024875757+1025422979+1024201652+1020575748
1115+1016703325+1017904636+1026599442+1037970192+1043824899+1041894841
1107+1038620255+1041092702+1047748053+1048976741+1040914168+1030952136
1098+1026980668+1030423665+1037560322+1043558708+1045675122+1044798555
1090+1043537081+1043318975+1041743915+1034910376+1024380531+1017496606
1081+1019971585+1031064870+1045080276+1055978462+1058980301+1051989048
1073+1039991472+1031747718+1029895540+1029615544+1025940061+1019417921
1064+1015102843+1015431613+1015891293+1012011047+1006870017+1004832517
1055+1005007026+1004643860+1003796972+1004008177+1005905334+1007884281
1047+1007704021+1005772008+1002619014+998035904+993559317+992301179+996005536
1037+1002894293+1008361446+1008947435+1005976771+1002933980+1001622696
1028+1001801575+1002690105+1003871860+1003955260+1001527562+998497655+999130922
1018+1003909131+1008316468+1007911429+1001921441+993487995+987897754+988710821
1008+994480747+1000531013+1003969755+1004079613+1000047176+992364103+984045346
998+977840013+973730272+969250694+961351010+949695433+937724200+929066550
988+924353106+921797431+919714607+918284261+918709143+920496730+921473377
978+921381464+921870650+922153579+919285066+913180216+906726349+901635992
968+897714564+894597058+891677584+887411224+881143081+874657810+870808106
958+870631412+871897545+871508899+869197443+867133140+867061876+869076426
948+872213719+876247479+882410594+891090561+899476210+903979716+905155258
938+906906034+911093768+915930185+919270744+921463311+924494196+929383011
928+935251177+941323070+948191063+955964266+962136297+963110528+958923426
918+953966913+952172999+953431482+954482270+953016091+950635384+950246451
908+951900079+953157872+952523569+950539445+948254677+946684507+946760947
898+948686231+952287804+956701583+958724933+955481406+949187093+944476122
888+943849526+947450755+953672826+960018387+964737468+967977832+970624442
878+972772261+974537473+976711174+979489730+982124032+983229518+980787325
868+974650437+968335821+965245520+964927276+965565318+967907545+973358479
858+979425310+983348694+986137143+987967810+987483858+986187758+987177520
848+990528950+993097451+992419090+988875551+985086183+985121039+990610739
838+997198219+1000231577+999434155+995039817+989069040+986031886+988636739
828+995049940+1000290935+1001479247+1001326480+1004385721+1011975271+1021562059
818+1030419984+1037814780+1041399731+1037608407+1025744846+1010500522
810+1000169688+999593478+1005699421+1012427129+1017134476+1019554238+1019721268
800+1019224317+1021965371+1029755887+1038529262+1040742536+1032973416
791+1020089610+1009662262+1005351785+1006409417+1011489708+1020257792
783+1029990098+1034078097+1027100764+1011923850+998725539+993627072+993723357
773+992719791+988274493+983591303+983692649+990668027+1001223984+1009366967
763+1011774880+1008882210+1001664798+992391481+986813319+987710017+988675275
753+984047417+978569220+977219399+981009918+988587504+994630408+992592102
743+983013137+974453958+973647332+978604996+982846106+984602346+987302908
733+992973213+999307961+1004399526+1009142419+1014981941+1024303688+1034911066
723+1038512007+1031882999+1020441503+1009945018+1000944104+991078702+981654459
713+976941820+979227910+987731758+998045452+1002354548+997915923+992555866
703+993130466+994972062+989060528+976067093+965106673+964562040+979068817
693+1005740259+1027053600+1022488435+1000130231+984514919+985402760+995025668
683+1000763269+998505592+990619367+978410817+967531841+965992903+971988757
673+976476618+972265532+959670406+949646888+952253812+959226831+958990894
663+950927113+942675249+942087248+949787519+961136700+970354110+971273125
653+964534546+958323461+956767325+958104492+961829843+967794696+969844045
643+960453910+944908481+936722475+939253993+942875295+937022429+921051716
633+904692875+899434798+908399303+922305828+927728923+925344247+925311462
623+930805879+935831356+934147646+925995806+914955608+908032917+909988972
613+917647313+920821934+910870715+894872567+882020971+875144868+878780204
603+895032178+910469876+907661699
##END=
