##TITLE=<SNM>
##JCAMP-DX=4.24
##DATA TYPE=INFRARED SPECTRUM
##DATE=29/4/2025
##SAMPLING PROCEDURE=Instrument type and / or accessory
##ORIGIN=Admin
##XUNITS=1/CM
##YUNITS=ABSORBANCE
##RESOLUTION=4
##FIRSTX=4497.3318
##LASTX=599.83466
##DELTAX=-1.4281778
##MAXY=2.1136582
##MINY=0.38094419
##XFACTOR=1
##YFACTOR=1.9684976e-09
##NPOINTS=2730
##FIRSTY=0.3946768
##XYDATA=(X++(Y..Y))
4497+200496463+200302509+200419221+200637595+200885552+200976950+200652235
4487+200001397+199583029+200029330+201477254+203294115+204451812+204365956
4477+203426844+202551320+202174964+202035679+201935591+202055421+202321167
4467+202188196+201540295+201159004+201616402+202284257+202176281+201249342
4457+200163846+199367395+199057411+199360961+200019459+200497114+200610858
4447+200513768+200270686+199939688+199625223+199237694+198696149+198244474
4437+198095893+198088490+198064554+198185974+198683947+199547935+200384491
4427+200608360+200059988+199208762+198392721+197329571+195828734+194369728
4417+193560015+193520274+193966772+194498521+194857936+195236442+196049273
4407+197131121+197627216+197082961+196160262+195803284+196101989+196383950
4397+196230131+195982840+196177703+196894064+197893613+198921094+199573945
4387+199401141+198438443+197265106+196476831+196418847+197081236+197859276
4377+197963104+197342697+196639401+196265331+196133813+196102459+196157915
4367+196304966+196523794+196732540+196794991+196669574+196490275+196477543
4357+196791463+197387737+197975155+198202204+198027735+197913431+198380049
4347+199246308+199690763+199264779+198396672+197731407+197530262+197843773
4337+198624584+199467105+199774076+199403049+198768214+198284276+198165929
4327+198613154+199559911+200278271+199982261+198999305+198673607+199812288
4317+201682683+202769012+202191693+200243768+197962241+196470185+196342104
4307+197260625+198462939+199516551+200369896+200974225+201268539+201185952
4297+200626664+199876374+199678484+200310397+201146771+201629301+201904948
4287+202166834+202235991+202039630+201837728+201754718+201482795+200756547
4277+199986879+200045514+201290870+203023176+204064495+203823699+202761533
4267+201853171+201688209+202108682+202504659+202322272+201530091+200722574
4257+200523609+200989758+201821711+202768013+203586885+204135364+204576457
4247+205001684+205139681+204986786+205087253+205616671+205861857+205145813
4237+203757025+202553893+202067548+202259367+202868661+203702613+204596835
4227+205374406+205980506+206471848+206752324+206521869+205712232+204817510
4217+204418596+204484696+204588690+204695893+205148750+205886171+206267584
4207+205801798+204787564+204060816+204202856+205075928+206004987+206364447
4197+206055175+205493812+205229323+205573477+206448321+207417075+207924192
4187+207735916+207193978+206920768+207236898+208012426+209045145+210213652
4177+211187736+211449697+210882127+209998382+209335478+208957608+208745653
4167+208733693+208903938+209043435+209037894+208986585+208982180+209131835
4157+209631609+210401732+210919855+210839600+210518776+210575368+211150825
4147+211816394+212027955+211610843+210892195+210384034+210360052+210721466
4137+211117836+211200105+210976114+210916661+211514298+212703864+213817035
4127+214223489+213966721+213495969+212918862+212103138+211440416+211683968
4117+212867054+214075681+214482952+214185110+213907116+214114150+214544146
4107+214658632+214393522+214174043+214321033+214796887+215440170+216201254
4097+217139018+218191813+218937833+218815535+217800029+216590661+215926152
4087+215940338+216366231+217087649+218065715+218894337+219007127+218397363
4077+217741378+217657550+218103337+218583217+218767164+218788950+218938650
4067+219234221+219421423+219233086+218602929+217774004+217100215+216686101
4057+216451921+216443004+216728552+217178442+217623138+217968458+218110906
4047+218142912+218474182+219346406+220432826+221151837+221215696+220798735
4037+220225716+219598375+218952639+218676811+219205683+220257660+221074686
4027+221381914+221482880+221616699+221787807+222039231+222430167+222863281
4017+223109149+222944778+222393196+221780495+221354542+221019925+220691835
4007+220639134+221118621+222016552+223157596+224504614+225749682+226212833
3997+225533654+224168105+222974467+222521307+222870942+223766345+224943012
3987+226303277+227691748+228548363+228208902+226727157+225048565+224218323
3977+224567171+225558847+226288244+226302853+225920971+225556288+225131273
3967+224531290+224134389+224424359+225373447+226425954+226995113+227060032
3957+227210353+227809822+228384779+228430607+228406520+229035329+229921225
3947+229889522+228702863+227418160+226996173+227333998+227719347+227741830
3937+227569995+227672399+228372759+229508594+230481845+230784138+230537529
3927+230399304+230861926+231644735+232012537+231818402+231748411+232357267
3917+233210824+233288596+232318494+231177117+230723670+230746652+230521132
3907+230286332+231356416+234475558+238496931+241290844+241672029+239755685
3897+236554986+233783495+233019868+234563701+236810392+237377991+236003661
3887+234731811+234995877+236109654+236960622+237813513+238734987+238484759
3878+236977594+236151303+237271075+239617642+242131714+244381417+245496299
3868+244920645+243752850+243071612+242394553+240778049+238477477+236529203
3858+235965933+238078063+244021684+251434834+253753407+249817407+244198818
3848+240347478+239362327+240616948+242682327+244776607+247396020+250855698
3838+253514443+253224731+250553374+247810619+246153677+245251703+244848898
3828+245288205+246498770+248050627+250157155+252582402+253118754+250935559
3818+248946575+249238134+250004669+248842399+246470216+245067575+246058873
3808+249177788+252245894+253687595+254527103+255819997+256515390+255908806
3798+255342160+255483564+255247022+253911041+252243790+251183092+250960978
3788+251480086+252527839+253569976+254206112+254883490+256285601+258099329
3778+259347682+259901489+260581107+262166105+264970540+268705789+272381963
3768+275008689+276287897+276507330+276698029+278398028+282182178+286531157
3758+289413591+291253420+294504927+301116282+310734579+319429449+322761924
3748+322090875+322223407+325542347+329718341+331703933+332621758+335101781
3738+340525159+348475705+356672330+362369826+364665176+364881491+365111098
3728+367050545+371329428+376932211+382008680+385731969+388621125+391458110
3718+394521159+397876676+402284852+408995946+417611788+424947422+428642582
3708+430067069+431878526+435848651+442136684+448692385+453087177+455600295
3698+457941578+460763787+463868501+467306347+471362586+475066224+475829261
3688+473032851+469910514+469220995+470784737+472908403+474509025+476584517
3678+481253306+488108257+492613962+492999901+493428898+495882911+496822991
3668+494056859+491259419+491943064+495357808+498358573+499648136+501190925
3658+504967505+509881072+513620257+516779716+521707181+528066370+531646771
3648+530353604+527129045+524380657+522568444+521838411+522556272+524923807
3638+528424573+531848249+534394068+536969682+541686464+549108031+555371477
3628+555198401+550480650+546995811+547111962+550699085+557172790+564517448
3618+569350138+570971895+571337972+570783377+568711367+567139510+568884443
3608+573107249+575795563+574960037+572839581+572442135+573897598+574980687
3598+574895603+575078792+576315155+578031868+580237045+583607369+587936091
3588+592060792+594873796+595621330+594148002+591509589+589539863+589578075
3578+592008954+596208445+599647321+599242427+595724038+593767937+596679711
3568+602564848+606281385+606113759+605049807+605322683+605804668+604471049
3558+601633943+599440574+599255992+600644599+602547589+604872067+608632085
3548+614133947+619123363+620474060+618666691+617709443+619968094+623816527
3538+626089227+625586894+624110114+623989664+625183272+625480735+623373238
3528+619731128+616550535+614977103+614484520+613879965+613360130+614288129
3518+616599284+618362930+618307700+617125477+616185912+616225396+617149640
3508+618670446+620901179+623761358+626071423+626377667+624933347+623398128
3498+622847712+623694623+626470322+631196369+636751220+641519416+644295418
3488+644373417+641823904+637996666+634337660+631163365+628742114+628268002
3478+630276122+633532111+636579234+638843638+639738935+638445829+635296423
3468+631954501+630355514+631129694+632507158+632382165+631352973+631916773
3458+634692049+636871005+635225388+630361994+626383723+626274839+629220829
3448+632248634+633098754+631687377+630008756+630287507+632052424+631989625
3438+628310271+623376509+620505490+620414713+621943876+624171218+626256005
3428+627041752+626601431+626537905+627779839+629428424+629876860+628425272
3418+625824102+623852075+624308807+627657390+632339895+635932650+636994241
3408+635968441+634710761+634336146+633653894+631219624+628261461+627338913
3398+628630444+629563711+628496125+626661687+625687482+625394561+625125317
3388+625845600+628899930+633763081+638200809+639678921+637052317+632188863
3378+628980109+629609918+632445086+634418990+634576503+633695498+631876865
3368+629058290+626919121+627630926+631008517+634864338+638121538+641556720
3358+645250486+647759123+648733328+649568429+650634138+650603556+649217735
3348+647865524+647242619+646933710+646513374+645502349+643772192+642456983
3338+642741971+644334175+646210339+647743075+648560009+648751374+649111092
3328+649832343+649766940+647882056+644515851+640900447+638869920+640587299
3318+646113990+651688038+653338015+651425880+649211679+648318502+647950669
3308+647914940+649733694+653946507+658229024+659592075+657878753+655829514
3298+655710637+656837813+656920536+655044978+652036976+648979195+646812533
3288+646348230+647402615+648825558+649972052+650961699+651425032+650721645
3278+649675557+650688338+655546524+662972935+668695836+669506775+666730289
3268+663597718+660769090+656803416+651947471+649006689+650000696+653545428
3258+656575110+657794274+657506137+655832844+653493408+652469243+654227135
3248+657978856+661478351+662808398+660943983+656137817+650948376+649216645
3238+652337104+657430136+660408585+659983828+657870517+656485726+657085134
3228+658874456+659615814+658333972+656488814+655237978+653878076+651975025
3218+650964364+652512845+656283400+659936108+661258039+659991398+657447940
3208+655084644+653721351+653250993+652586242+650717164+647934803+645557215
3198+644827303+646006802+647922086+648675191+647463294+645392072+644023207
3188+643795931+644244307+644879263+645313164+645007283+643633089+641563199
3178+639525163+637818321+636354683+635160469+634249124+633321367+632174086
3168+631032679+630295016+630267341+630755927+630884977+630217441+629554325
3158+629362839+628449071+625680578+622004253+619200030+617594987+616535516
3148+616150546+616905165+618138137+618438386+617338764+615869191+615194569
3138+615190088+614819591+613710582+612621014+612265777+612389317+612116985
3128+610782578+608449501+606067553+605098314+606285866+608515025+609634571
3118+608923129+607863234+607912105+608646922+608770946+607797891+605926452
3108+603273746+600196102+597705270+596691339+596930363+597384370+597454013
3098+597528500+598131420+598833051+598400966+596313454+593813961+592825162
3088+593769027+595046691+595063344+594112333+593460057+593197900+592302179
3078+590537382+588990900+588600116+589041224+589474581+589657952+589732015
3068+589589278+588987206+587944085+586865538+586321178+586443203+586485776
3058+585606284+584202417+583659994+584535489+585736667+585835922+584541423
3048+582543961+580692990+579689475+579743917+580115141+579792304+578954113
3038+578745429+579324731+579292272+577737190+575845342+575393454+576318183
3028+576960769+576439966+575322116+574175259+572927209+571454062+569793487
3018+567868332+565590726+563260616+561465420+560433624+559923600+559928687
3008+560730906+561911615+562293376+561411826+560104912+559278773+558974466
2998+558800361+558564606+558340600+558260421+558211247+557871696+557015883
2988+555700249+554204878+552824144+551718527+550962696+550727971+550916369
2978+550796705+549825831+548583170+548103789+548547683+549020585+548590680
2968+547279224+545971039+545331178+545011248+544251359+542995255+541750232
2958+540817389+540364290+540603678+541262797+541506302+540969027+540082632
2948+539178675+538302212+537778502+537730237+537311475+535791517+533939395
2938+532917288+532475090+531554298+530093081+529064071+529083450+529887909
2928+530901840+531584153+531483202+530642953+529645796+528708895+527307026
2918+525295454+523628278+523069444+522943180+522193465+521134963+520979933
2908+521859182+522512124+522101174+521283513+521028199+521247541+521105532
2898+520043335+518275087+516610515+515706559+515369672+514800785+513696985
2888+512633759+512208275+512358642+512582708+512349921+511340350+509851822
2878+508766311+508548905+508683345+508480717+507807942+506790105+505555619
2868+504389565+503456025+502467256+501243853+500313493+500305681+500998076
2858+501432311+500962892+499974577+499364843+499488958+499900150+499947386
2848+499307071+498141592+496971541+496232363+495940593+495770847+495319868
2838+494406282+493288432+492446397+492033145+491701769+491022272+489930978
2828+488812583+488136750+487914349+487719744+487340405+486980597+486725585
2818+486320206+485556745+484464209+483194903+482044866+481353470+481125739
2808+480961353+480536656+479948936+479355826+478497863+477048123+475445926
2798+474728308+475264462+476213111+476535737+476068861+475238846+474247957
2788+473062676+471897621+471233718+471299666+471619021+471274625+469926199
2778+468380958+467650561+467608443+467210150+465987655+464597322+463820235
2768+463657272+463550387+463127476+462538393+462072638+461607155+460740956
2758+459480340+458428287+458167128+458603634+458978794+458545528+457279280
2748+455793719+454565168+453562895+452623360+451771695+451125415+450773327
2738+450756613+450914853+450846906+450313688+449539296+448898981+448424989
2728+447795574+446839658+445858974+445235917+444885919+444426553+443779031
2718+443211143+442820269+442342462+441543059+440557106+439700445+439046504
2708+438388627+437633280+436946789+436384715+435717603+434866574+434201248
2698+434093605+434349313+434378018+433908992+433175598+432381616+431553751
2688+430995583+431154730+431802040+432051572+431469907+430473326+429498213
2678+428584839+427840060+427483764+427299727+426756578+425844930+425161527
2668+424967255+424757057+424057787+423169848+422728467+422819305+422884103
2658+422452896+421712901+421182499+420997584+420841525+420520292+420224978
2648+420151370+420164117+419979141+419534460+419038062+418690032+418489462
2638+418276115+417822834+416995120+415976920+415183088+414788277+414526967
2628+414094943+413546737+413123130+412855128+412590306+412347103+412329813
2618+412530565+412645414+412436548+411860667+410986050+410171720+409952498
2608+410297500+410451955+409930243+409153792+408745204+408735090+408794135
2598+408822385+408945622+409106920+409023985+408597804+408080544+407707927
2588+407416641+407096619+406875702+406899834+406996425+406858745+406526067
2578+406354232+406413126+406245257+405506988+404576810+404131462+404320677
2568+404754276+405148694+405514013+405767481+405725453+405526276+405511318
2558+405620778+405422842+404822586+404257182+404044864+403934556+403512706
2548+402803899+402208154+401966889+401983603+402143750+402478185+402926136
2538+403259632+403383898+403419173+403431951+403414298+403491964+403748793
2528+403910212+403634701+403040592+402547009+402322277+402254905+402296358
2518+402474339+402696347+402818554+402876539+403090643+403584680+404141424
2508+404382841+404225903+403935737+403681876+403339872+402856524+402511038
2498+402590036+402996414+403411755+403732382+404079443+404404612+404413695
2488+404017067+403581682+403503289+403719786+403888895+403908335+403985849
2478+404251610+404573873+404758909+404732082+404562942+404466714+404663378
2468+405084805+405363556+405224665+404753883+404227145+403827701+403591280
2458+403533659+403726296+404164588+404610329+404769446+404661894+404598732
2448+404752551+404986579+405142366+405217034+405170495+404865704+404356134
2438+403930893+403738740+403705009+403874391+404375543+404988910+405255428
2428+405082231+404817409+404766903+404980765+405384236+405832702+406121052
2418+406090258+405716067+405167255+404816833+404972650+405501205+405964417
2408+406189634+406410310+406805000+407235177+407478229+407445043+407203142
2398+406993549+407077876+407420093+407738812+407941895+408197270+408527163
2388+408635865+408159179+406898411+404863918+402170941+398777847+394412245
2378+389026927+383204983+377694189+372581869+367388492+362006869+357038467
2368+353079605+350109271+347682085+345489928+343762950+343239210+344661245
2358+348187779+353304187+359462412+366701668+374866015+382205949+386085752
2348+385169986+380501560+374912131+370994419+369211637+368431401+367610379
2338+366620035+366117066+366611254+367764137+368926557+369993507+371311987
2328+373021221+374846364+376484987+377999373+379694376+381690203+383868826
2318+386156454+388535435+390873387+393004804+394863345+396428238+397737422
2308+398991770+400448263+402176755+404024728+405803483+407442075+408962881
2298+410360784+411584429+412649653+413663494+414647236+415399040+415685633
2288+415582926+415444520+415494056+415651660+415768810+415745677+415427805
2278+414730504+413875176+413259750+413087946+413206882+413298538+413251090
2268+413266078+413479911+413697982+413731561+413725687+413911965+414287398
2258+414719362+415160016+415629102+416114448+416611906+417228906+418055349
2248+418842306+419074276+418565705+417750376+417215644+417139007+417201080
2238+416916394+416126953+415195382+414597912+414446424+414534053+414647236
2228+414690627+414663496+414628191+414650204+414751609+414920658+415098307
2218+415175519+415075658+414807686+414428015+414060424+413955355+414357615
2208+415267628+416454303+417686244+418818689+419751926+420490709+421127149
2198+421634538+421900935+422076222+422545338+423395247+424239826+424729533
2188+424965196+425301447+425949968+426813503+427567184+427956756+428131710
2178+428536453+429337158+430126538+430377492+430092262+429821928+430073034
2168+430817056+431574431+431887973+431696790+431356239+431368411+432020202
2158+433176416+434410477+435351224+435944606+436446303+437156261+438134917
2148+439197810+440140706+440880822+441457581+442013599+442705450+443583457
2138+444645290+445964285+447629644+449593345+451694301+453840889+456075740
2128+458382081+460503627+462178191+463551810+465088058+467070259+469409635
2118+471799879+473822625+475088812+475509785+475380008+475207083+475473722
2108+476325902+477475333+478679872+480175243+482240410+484535941+486361235
2098+487447715+488046942+488337925+488133510+487139048+485284807+482809145
2088+480092308+477390581+474685250+471797033+468699041+465658519+462954339
2078+460599279+458554824+457019666+456171029+455774038+455385464+454810885
2068+454128663+453485804+453039366+452867622+452858145+452860265+452878644
2058+452932329+452911376+452784657+452759253+453054748+453674595+454485504
2048+455370627+456246243+457094486+458062302+459387231+461124746+463048266
2038+464965124+467067201+469773228+473229999+477163638+481226933+485250137
2028+489063780+492317498+494691997+496264005+497578549+499260441+501372933
2018+503155352+503715397+503108843+502331030+502121255+502207490+501834510
2008+500699795+499143472+497630266+496319780+495100192+493897106+492826098
1998+492020277+491521365+491437885+491925230+492871336+493879211+494651423
1988+495136920+495415187+495753618+496540334+497870835+499450080+501034199
1978+502670854+504410306+506051684+507371315+508571433+510273188+512823913
1968+515717822+518030915+519453738+520548757+521987748+523894070+525933559
1958+527817959+529583966+531433786+533509975+535852136+538365738+540799040
1948+542963280+545043404+547515100+550625022+553980751+556829423+558849353
1938+560459906+562345274+564846462+567707791+570335123+572393688+574101196
1928+575888762+577983602+580266416+582276717+583630078+584700571+586338195
1918+588640145+590606359+591443580+591559186+591839814+592578447+593379272
1908+593975168+594745351+596059411+597566894+598735067+599649501+600632063
1898+601555156+602092068+602192838+602063182+602065059+602545954+603361859
1888+603851656+603652722+603085894+602622621+602458689+602577566+602867702
1878+603084441+602855953+601967439+600822580+600348952+601010433+601899008
1868+601308441+598826692+595890210+593850842+592730691+591749643+590382110
1858+588735464+587135932+585654852+584169534+582795582+581890293+581560128
1848+581653267+582177037+582906646+582686032+580563637+577348889+574492828
1838+572519953+571055951+569823403+569303932+570013920+571194024+571112452
1828+569419115+567516972+566016332+564133567+561656845+559531484+558357254
1818+557759602+557254968+556978639+557343262+558284887+559079778+559125499
1808+558720847+558582350+559030059+560075420+561668049+563361386+564329595
1798+564367868+564441871+565832718+568804567+571798459+572746563+571927509
1788+571326405+571928599+573403623+575345250+577788665+580587497+583205926
1778+585439930+587864027+591311623+595828319+599853765+601480064+600951509
1768+599768801+598793264+598596267+599855279+602496175+605266667+607163965
1758+608363326+609177596+609889280+611551126+615302787+620561143+624760331
1748+626327041+626517376+627147972+628703659+630746480+632780459+634462895
1738+636020581+638626293+643227953+648282106+650487284+649766395+648476014
1728+647967141+648657811+650603738+653299197+656088522+659256278+663890034
1718+670085291+675311006+676847678+675680897+674606166+675243907+677689684
1708+681282257+685093810+688290815+691263936+695837496+703071150+710581012
1698+714682700+714981557+712737076+709583371+707788416+708753234+712217424
1688+717106252+723132611+730312490+736339212+738636076+738864926+739476991
1678+741058477+743486207+746749766+750870470+755934252+761512599+765436670
1668+765672969+764269647+764931006+768602245+772968878+775314854+775732465
1658+776214874+778786976+785195339+794783992+800523547+798729743+795753534
1648+795679168+797621643+798623947+797763956+796384372+795584213+796082185
1638+798723384+803360774+806539006+804407043+798999592+794406107+792035665
1628+791210979+791081445+791320166+791208073+789650326+786905632+784594901
1618+783709415+783276361+781203745+777553097+774358332+772787202+772450254
1608+772430028+772246233+771580876+769987279+767529693+765149502+763958921
1598+764191890+764904240+764925798+764090999+763113464+762390577+761711171
1588+761108735+761055201+761566860+761804310+761014021+759758462+759686155
1578+761880553+765191529+766430435+764656858+762323478+761124298+760727277
1568+760407346+760362714+760800855+761670657+763974121+769482403+776900215
1558+778621591+772397387+765177964+760592050+758626805+758663866+760247048
1548+763004216+766701435+771194513+776164853+781164806+785402146+787178025
1538+786187106+784722437+784474632+785559719+787305985+789398645+792329313
1528+796449473+801386687+806768583+812742196+818639323+822487151+824041143
1518+825547294+828067981+830746424+833014704+835611150+839965792+847266302
1508+856873426+864301533+865215180+862943145+862104470+863918985+868338122
1498+874514182+879927628+882121845+882292983+884020294+889081169+895258985
1488+898418989+897898489+896683382+897654075+902201837+909879688+918275097
1478+924637374+928202454+930716904+934459965+939097657+941888496+942315192
1468+942746610+945201774+949350940+952300564+952114649+951077706+953364819
1458+960227673+965961354+963835810+957175585+952809195+953939398+959645585
1448+965629069+967882451+966463687+963767621+961683137+961819939+965580441
1438+973053058+981487951+986207337+986271408+984654132+983710873+984265225
1428+986448238+989692116+992849697+994814882+995211056+994847099+994866478
1418+994997890+994409261+993857694+994581126+996552608+998745008+1000728723
1408+1002801278+1004245901+1002986890+998387955+993335134+991404468+993138561
1398+995891067+997033140+996398547+995209299+994566713+995210753+997088491
1388+998321583+996564659+992907894+990967115+992401383+995953079+999565697
1378+1002054228+1003503696+1005030800+1007461740+1010897225+1015629570
1370+1021685240+1027601080+1031821887+1034777385+1036981836+1037030283
1361+1034953004+1034494940+1038102532+1043091221+1044975802+1043264176
1352+1041536926+1042376025+1044642367+1045047624+1042978703+1042322370
1344+1046294403+1052619619+1057267364+1061223772+1067119628+1072600901
1335+1073741823+1071292473+1068417276+1066304753+1064454811+1062481331
1327+1060637324+1060372804+1062888647+1066541416+1068157844+1066573148
1318+1063734165+1061795808+1060923644+1061352035+1063824155+1066926083
1310+1066999722+1062703944+1058428513+1059730884+1066162440+1071477782
1301+1070516477+1064499504+1058410829+1055453999+1055362193+1055599098
1293+1053874149+1049936150+1044204165+1036219162+1026692096+1018720174
1284+1014293710+1011265542+1006266012+999439735+993552479+989917454+987220723
1274+983749933+979829435+977043986+975055729+971275000+964554398+957175403
1264+951583914+946443466+938338435+927362628+917527623+911632433+908887316
1254+906493256+902290737+896172813+889324130+882703086+876287032+869371674
1244+861392847+852484872+843291423+834416997+826310937+819577496+814818081
1234+811733170+808993684+805823204+803144882+802245952+802910158+803715525
1224+803857777+803791345+804024192+804294041+804196663+803870858+803839186
1214+804665749+806951591+811031781+816250108+821108657+824643337+827408439
1204+830726985+835319500+840643744+845155414+847567036+848181583+848617060
1194+850204722+852969521+856162227+859370496+862576524+865476671+867525002
1184+868790857+870255465+873065198+877947910+885030894+893791592+903580452
1174+914186488+924965056+933816289+938904052+941014516+942727474+946152785
1164+951409324+956100853+957284651+955238742+953419988+954204705+956815141
1154+959435568+961555601+963175723+963736737+963532897+963863304+964691623
1144+964843686+964681934+965621741+967060309+967171252+966817833+968934534
1134+974125126+979485281+981582786+979871523+977163286+977061124+981080695
1124+986977883+989796700+986684114+980560376+977115808+979010623+983841982
1114+988057520+991108458+993621031+994549696+992889605+990596497+990713254
1104+993314787+995275853+993875740+989976983+986868333+986291816+987300660
1094+988901948+991585236+995043732+996748757+995080249+991572700+987831758
1084+983314578+977922811+973249813+969444800+964674667+958728608+953592883
1074+950289355+947878642+945468413+943280373+941915748+941391311+941020027
1064+940840834+941643355+943457386+945360498+945799123+943478157+938824902
1054+934275443+932515007+934283013+938096322+941524842+942245428+939214353
1044+934186241+930795872+931188534+934607849+939100685+943868457+948888092
1034+952738644+953268168+950610255+946983466+943173366+938074824+932463956
1024+929852794+932330183+938020563+943221571+945513892+945008895+943949363
1014+944290731+945071755+943406335+938199574+931059907+923437952+915755560
1004+909059605+904745598+902019193+897836113+890820470+882988498+876330755
994+870392448+864103507+857992971+853437215+850667571+848337461+844943762
984+840389519+835975167+832862702+831068111+830121460+829671510+829115159
974+827536520+824599735+820884288+816840312+812498084+808359455+805257042
964+803240565+801574479+799894404+798850860+799509737+802119263+805592234
954+808666547+811346322+814361409+817870775+821666522+825660175+829773672
944+834492634+841115616+850165662+859907468+867663258+872746297+877019003
934+882284929+888215485+893683434+898986362+904635866+909137422+910766628
924+910261267+909076743+906568046+901802878+896347585+892832406+892066038
914+892830347+893885821+895174567+896689499+897082402+894711294+890169890
904+886655316+887361307+892721947+900008892+905735366+908577195+909394675
894+909175029+908694497+909431979+912344480+916286900+919253298+920743401
884+921882809+923100278+922919935+919779067+914500303+910420657+911009104
874+916532586+922900859+925628232+925254465+925889058+929395093+933826705
864+936780810+938301737+939469547+939624274+937188550+932854498+929611348
854+929927826+934477588+941816008+948333618+951373110+951797383+951488111
844+950528803+947812451+943278011+939228221+939333957+945570757+955797152
834+964310286+967071270+966130615+966055038+968852538+972489622+973212025
824+970738633+968771995+969837704+973218868+977038899+979347692+978424599
814+975625947+975911723+982706267+993524985+1001785651+1003058470+998378205
804+991824684+986734983+984417893+984395547+983955226+979827982+972424098
794+965940098+963221626+961701849+956583141+947954764+940425282+937052657
784+936275570+933940494+928061958+920773438+915345821+913262487+913579389
774+913784138+912648423+911848385+913947646+919156889+924511776+926442502
764+924505841+922180152+923685515+929934306+937645585+943786642+949434814
754+956170435+961068952+959337282+951890886+944744618+941955474+944040625
744+949934058+957244440+962154403+962677629+960530345+957426782+952871631
734+946826316+942218298+942306168+946796037+953402668+960518475+965652324
724+965247308+959744780+955117625+955663197+958064826+957364649+955450212
714+956707225+961244693+965628161+966753701+963591517+957265272+951083580
704+948569372+951183017+956363192+958294525+955250127+951400119+949036460
694+945639854+939621549+934386689+933759424+936964241+939144590+936405407
684+930830088+928637143+933618626+942113168+945183122+938164874+925342820
674+914037514+907010183+902046747+897576317+896922225+904185613+913518165
664+916794017+913870010+908266651+902411733+898278796+897751029+901835579
654+909043980+912659929+906472484+895410442+890041203+893869894+901433471
644+905568346+903319505+896184380+890157354+891463723+898966135+904216256
634+902570760+897829513+893834165+891275022+889028301+884888945+878094583
624+869926935+861361720+852885890+847904347+853337111+870241960+884537766
614+880592379+861506152+845081956+842944604+851559780+861469514+867271807
604+869122718+869079903+869521677+873175536
##END=
