##TITLE=<SNM>
##JCAMP-DX=4.24
##DATA TYPE=INFRARED SPECTRUM
##DATE=29/4/2025
##SAMPLING PROCEDURE=Instrument type and / or accessory
##ORIGIN=Admin
##XUNITS=1/CM
##YUNITS=ABSORBANCE
##RESOLUTION=4
##FIRSTX=4497.3318
##LASTX=599.83466
##DELTAX=-1.4281778
##MAXY=2.0992005
##MINY=0.38034177
##XFACTOR=1
##YFACTOR=1.9550328e-09
##NPOINTS=2730
##FIRSTY=0.3858535
##XYDATA=(X++(Y..Y))
4497+197364207+197446143+198547088+199599328+199538856+198395106+197246280
4487+197201433+198393765+199916737+200832316+201084313+201174374+201295700
4477+201225563+200872148+200503353+200341188+200183155+199691676+198940762
4467+198256631+197721692+197397149+197694481+198837149+200273871+201365029
4457+202291660+203501172+204643672+204825730+203782895+202215273+200947118
4447+200172255+199662423+199304039+199063597+198776905+198363673+198063948
4437+198226204+198912454+199716828+199940838+199233993+198200289+197922393
4427+198659451+199539054+199836341+199823353+199851021+199519237+198398033
4417+196823293+195517150+194912942+194918552+195013537+194811555+194626250
4407+194962897+195597470+195876951+195733293+195649131+195814909+195981875
4397+196030061+196123247+196257454+196175625+195868308+195671296+195723735
4387+195823171+195845915+195783232+195481326+194907409+194544955+194966830
4377+196037317+196881890+196778506+195945686+195190625+194966067+195125671
4367+195387500+195670701+196037317+196454649+196667439+196517713+196288811
4357+196276768+196321509+196301966+196527988+197112042+197626677+197836494
4347+198105548+198746524+199466935+199702575+199257377+198431021+197595457
4337+196867378+196254543+195876524+195904726+196443399+197382119+198153734
4327+197993048+196862500+195823110+195961372+197045152+197777759+197425244
4317+196502912+195813293+195664253+195996113+196615747+197393018+198367576
4307+199307149+199501097+198722606+197887850+198015000+199067698+200235380
4297+200823962+200659709+200031463+199452316+199317225+199678703+200292956
4287+200837682+201089206+200885548+200193688+199319390+198735548+198655716
4277+198990792+199559329+200052834+200104938+199734771+199452332+199704237
4267+200438017+201277727+201819389+201674069+200647697+199181478+198251981
4257+198487149+199711371+201439953+203147148+204116385+203968093+203244663
4247+202764252+202793383+203311873+204283337+205206004+205244068+204221721
4237+202823718+201649572+200761615+200267164+200599145+201858139+203377605
4227+204337529+204491157+204050745+203295562+202593627+202397956+202853535
4217+203576035+204011081+204050562+204128763+204516477+204818443+204499449
4207+203747529+203395806+203924678+204928214+205733428+206111217+206103641
4197+205721080+205214312+204992208+204941751+204625044+204233657+204353306
4187+204865150+205162528+205247589+205508870+205760272+205626065+205529037
4177+206235074+207632528+208865546+209549921+210092802+210774311+211184204
4167+210875942+210119006+209541323+209293137+209111963+208986445+209128046
4157+209401796+209378625+208999098+208737299+208971476+209493854+209830195
4147+209904646+210088442+210568762+211012954+211004341+210555652+210044966
4137+209797451+209821338+209974143+210248777+210660256+211012862+211103167
4127+210980698+210763487+210441079+210128640+210245408+211031048+211963243
4117+212103762+211283716+210548518+210942680+212137938+212860530+212565606
4107+212013868+212112969+212815392+213373716+213311856+212905469+212810392
4097+213356033+214236383+214816718+214681520+213983456+213407740+213694600
4087+214900468+216161169+216549020+216128791+215737678+215841764+216122815
4077+216140163+215929248+215827373+216004523+216293913+216360163+216060742
4067+215713105+215761383+216065102+215961139+215229172+214457160+214171490
4057+214255499+214534950+215219645+216404172+217636672+218296733+218223836
4047+217871992+217801108+217933730+217595437+216592282+215728974+215739050
4037+216252617+216499203+216567815+217098120+218044248+218632983+218493836
4027+218141001+218241580+218834415+219413089+219579171+219357495+218871031
4017+218116184+217297266+216944584+217290422+217857114+218127266+218312556
4007+218862800+219601946+220009004+220024430+219965772+219880223+219596961
3997+219247403+219175894+219476184+220012616+220687266+221360040+221805268
3987+222019842+222256991+222546198+222536152+222034460+221382936+221083378
3977+221323195+221983851+222794171+223356381+223341853+222814674+222165970
3967+221783424+221952082+222780741+223938119+224757722+224908408+224699628
3957+224551045+224523347+224489811+224520756+224961228+226016990+227190679
3947+227601273+227250221+227142615+227625328+227633727+226382158+224710420
3937+223907006+224407981+226054490+228477492+230710556+231485967+230663208
3927+229480602+229078194+229373590+229540206+229361974+229510008+230428422
3917+231427614+231280144+229760373+227924108+226858087+226859551+227895099
3907+230368940+234828619+240671346+245683891+247918098+247196040+244019150
3897+239137749+234429839+232271531+233560616+236389030+237638847+237208344
3887+237701210+239885767+241517718+241313236+240876910+240826118+239790752
3878+238183649+238296179+240713176+243901239+246780278+248797259+248526345
3868+246248251+244861071+245648647+246288266+244396208+241026148+238561530
3858+238503984+242296651+251120673+260700488+261276646+253095597+243964135
3848+238482902+237645234+240241438+244067352+247678738+251182335+254606175
3838+256326983+255051938+252267685+250081466+248724713+247383540+246083464
3828+245428937+245504135+246759439+250735841+257159300+261280183+259983263
3818+256852593+254854209+252386816+248014775+243663388+241991407+244250827
3808+249294500+253733416+256126343+258709513+262304421+263575884+260718476
3798+256606648+253382334+250582121+247812397+245888662+245400537+246047793
3788+247423266+249379500+251533021+253478630+255433538+257482867+258700732
3778+258376373+257360885+257124239+258786891+262905305+268560334+273297192
3768+275807802+277035759+278012862+279477709+282777129+288558469+294881547
3758+298896455+300914655+304101027+311094958+321728279+331773368+336968702
3748+339494921+343821536+349987022+353094034+351500101+349822845+352092113
3738+359275770+369403908+378288814+382714728+383010673+381747198+381489271
3728+383717746+388236281+393257835+397067865+399254755+400024449+399958047
3718+400561279+403877772+411462282+423147432+435352185+442356086+442830842
3708+440816544+440153343+442784561+448875841+456034254+460828124+462645990
3698+463398794+464512422+466537178+470062543+475472115+481479248+484497662
3688+482333821+477448303+473238030+471324982+471965347+474498457+478377023
3678+484058851+490663331+493881104+492354916+490879611+492586257+494973147
3668+494207232+490678788+487195161+485583820+486066198+488056838+491344520
3658+496051653+501406103+506310553+511679637+519774025+530776645+539530728
3648+539242374+531793047+524421707+521156647+521888232+523985305+524863719
3638+524566402+525038475+527292926+530858352+535541704+541554630+546963897
3628+548065726+545136519+542180301+542297374+546389629+553069261+559334931
3618+563255661+565679685+567745477+569173770+569828160+570532916+571389196
3608+571190355+569822428+569112002+570173587+572156391+573885171+575350232
3598+577222366+579822731+582276755+582798035+581630291+582330108+587502607
3588+593889862+595091447+590980655+587067607+586314863+587685961+589094985
3578+589187363+587305412+583663645+579958706+578872121+582428584+590047789
3568+596935837+596948154+590613216+584913156+585058278+591125350+599167056
3558+604286749+605011810+603780530+602622482+600983214+598830897+598709190
3548+602198518+606902846+609020590+607887114+605543578+603399555+601699738
3538+601189311+603076323+606957359+610538638+612135650+612163455+611452236
3528+609700895+606708639+603815408+603020286+604985774+608277419+610640041
3518+611168394+610951138+611379004+612404065+612898821+612277906+611094187
3508+610146931+609654614+609332724+608440285+606806627+606144493+608158334
3498+611947723+614737479+615607539+616864978+620387234+624730708+626936866
3488+625896257+622929977+620100831+618801319+619115039+619983880+620402051
3478+620718148+621993818+623879306+624546806+623391196+622099245+622155038
3468+623159672+624515098+626793147+629832780+631538389+630387658+627301378
3458+623952538+621388148+620697538+622260160+624345098+624818635+624017111
3448+623707294+623655342+621887172+618400710+615801564+615807174+617175588
3438+617686563+617018576+616411198+616390161+616581686+617185954+618739368
3428+620522965+620933270+619409063+616757783+614112601+612305345+611557906
3418+611698028+613031808+616028576+619654795+621645953+621257782+619966136
3408+618955648+617882905+616659673+616506869+618176015+620300831+620491624
3398+618256563+615964003+616004735+617974978+619616746+619972295+620270099
3388+621547904+623051928+623603879+623332294+623254001+623934550+625303452
3378+627098330+628820890+629893756+630317719+630686682+631349060+631926072
3368+631910645+631405889+630716377+629596195+627760281+625811135+624703330
3358+624730037+625926805+628900280+634065645+640173205+644645277+645672228
3348+643810460+641436680+640903204+642858570+645243813+645038508+641990948
3338+638937656+638029546+638622900+638837412+637699912+635725401+634169242
3328+633780889+634381438+635354730+636338632+637637900+639541314+641390643
3318+642487228+643100216+643388265+642475826+639977900+637323937+636046010
3308+636236071+636994547+637329303+637005035+636828510+637582900+639103205
3298+640612351+641107168+639896070+637952473+637688754+640137412+643234240
3288+643770704+641037107+637749668+637139425+640091436+645103203+650144909
3278+653975335+656239115+656997713+655884786+652220458+647344849+644705277
3268+645409911+646505947+645589484+644268021+645051374+647325581+648044239
3258+645875947+642903631+641633936+641846680+641164058+638268205+634712535
3248+633172718+634372352+636673083+638623571+640341802+642084180+643204911
3238+643202411+642361131+641145460+640065461+639848936+640739485+642056131
3228+643101801+643728631+643841009+643215338+641810338+639643266+636757413
3218+633815279+632064487+631940523+632515218+633139974+634381620+636041925
3208+635942718+632754853+628651012+626898756+628090585+630267292+631766072
3198+632440523+632586316+632500462+632752901+633386621+633373938+631913572
3188+629187475+625567171+621596989+618493819+617594307+619145648+621749367
3178+623053879+621530099+617935527+614307906+611866687+610576321+610017114
3168+609882724+609988151+610285102+610839675+611683699+612382113+611965467
3158+609998333+607369310+605227725+603760347+602833579+602974494+604485469
3148+606042237+605503761+602476018+599057421+597471263+597865227+598907543
3138+599622909+599730592+598918946+597207910+595641690+595280349+595686081
3128+595433581+593863032+591445716+589115716+588061448+589014802+590965838
3118+591805655+591147789+590822972+591754374+592435594+591256570+588521143
3108+585631937+583835352+583751571+585035351+586393339+586574802+585515290
3098+584204681+583525840+583551084+583604254+582905779+581287791+579362548
3088+578074012+577975902+578822060+579694926+579601450+578269256+576451207
3078+575252305+575225476+576300841+578111329+579811389+580125536+578629194
3068+576486146+574944988+573793342+572079074+569609501+567089685+565461149
3058+565338100+566475417+567876453+568703221+568690172+567969929+567014441
3048+566061697+564637003+562475296+560352126+559272797+559215479+559239077
3038+558683223+557924138+557823711+558341638+558195663+556641273+554821517
3028+554152920+554375420+554348834+553938468+553918712+554576212+555328773
3018+555284017+553964261+551900481+550268408+549514079+548800970+547389751
3008+545794873+544805605+544355422+544055361+543793227+543353166+542556276
2998+541931947+542126032+542703532+542539508+541316886+539874569+539153655
2988+539275789+539577557+539301887+538276033+537044570+536387131+536434143
2978+536306582+535204875+533618473+532600730+532186400+531728230+531264693
2968+531132864+530777071+529430669+527591767+526426951+526170182+526261524
2958+526470182+526788841+526701463+525589085+523633902+521708964+520652135
2948+520799452+521776098+522738049+523222561+523433293+523341463+522442500
2938+520915184+519775976+519282684+518469330+516785184+514957258+513804941
2928+513363966+513405734+513757685+513951953+513351161+511860856+510132534
2918+508930796+508486375+508443875+508247717+507576376+506566650+505655187
2908+505104577+504719395+504096681+503070584+501870584+500990981+500934365
2898+501763725+502767261+502926834+501988907+500771835+500203085+500339365
2888+500459213+499909274+498757231+497643756+497069884+496970951+496957232
2878+496671226+495952659+495020190+494325769+493875190+493127995+491982782
2868+491203483+491353087+491928513+492017111+491321806+490204215+489110130
2858+488298087+487903667+487852173+487668728+486823637+485396991+484013546
2848+483147570+482838150+482875680+482875284+482522205+481972449+481534674
2838+480967632+479770528+478078364+476523212+475394066+474623152+474314432
2828+474538365+474810316+474513030+473724005+473030469+472670530+472390042
2818+472018975+471649189+471277268+470749921+470075470+469415897+468755744
2808+467836080+466464556+464818916+463435410+462815715+463004648+463635715
2798+464245928+464410684+463913886+463079953+462554008+462509770+462456356
2788+461847545+460510441+458705869+457150137+456543796+456759802+456958857
2778+456661144+456166906+455848827+455601479+455026205+453865870+452393584
2768+451320444+451024011+451048980+450647304+449612060+448353950+447357518
2758+446733981+446221573+445592183+444955049+444479134+443987793+443155903
2748+442069623+441297367+441276787+441736726+441932793+441532763+440966300
2738+440689623+440489166+439868800+438847489+437890233+437139197+436207581
2728+434836057+433386789+432458283+432252460+432491393+432756088+432787948
2718+432566485+432167216+431618375+430960906+430308284+429746333+429287461
2708+428907065+428499047+427911943+427123803+426216699+425183163+424018255
2698+422926090+422132676+421618286+421302310+421265786+421495146+421647646
2688+421338225+420566000+419722402+419229628+419164110+419160878+418760055
2678+417898500+416928531+416161793+415590269+415067068+414568653+414173227
2668+413904843+413715391+413574538+413478318+413328196+412910056+412100178
2658+411071368+410254295+409992283+410151642+410215423+409886094+409387588
2648+409026856+408763106+408385637+407845637+407274387+406816186+406500972
2638+406264661+406104174+406095058+406159204+406017405+405518168+404857680
2628+404366887+404157711+404012863+403632010+402992924+402335394+401758809
2618+401143413+400567894+400364419+400558809+400705181+400489236+400081431
2608+399758962+399551736+399327925+398984968+398567560+398259145+398153932
2598+398128413+398058779+397939206+397755700+397534846+397447956+397583962
2588+397754115+397726157+397469511+397079145+396675639+396398932+396332621
2578+396434664+396568719+396551493+396250243+395752377+395353719+395238536
2568+395214634+394941676+394429176+394031890+393862439+393592408+393089360
2558+392866372+393480671+394707378+395686829+395830182+395290853+394558109
2548+393932103+393488719+393233567+393100518+393005854+393005335+393205579
2538+393511219+393661433+393487012+393010945+392428445+392067073+392160183
2528+392565884+392867195+392844177+392746982+392962439+393461890+393778323
2518+393584299+393069360+392601921+392312378+392195762+392279573+392501402
2508+392698018+392845335+393083079+393395792+393468628+393039268+392336829
2498+391984970+392372378+393235061+393980487+394276829+394166158+393855244
2488+393640945+393774177+394155396+394395304+394317591+394126189+393997164
2478+393875884+393804116+394057347+394682317+395215182+395250243+395018627
2468+394958749+395026432+394924512+394675030+394451585+394181128+393770366
2458+393453841+393561158+394056372+394487591+394428201+393955396+393553262
2448+393510701+393660061+393770091+393863567+394015975+394161036+394236067
2438+394271372+394274237+394253231+394326737+394539573+394670091+394520884
2428+394256280+394167987+394309298+394593963+395008231+395542072+396107347
2418+396570456+396759084+396593139+396307499+396297347+396633414+396934816
2408+396838932+396485822+396370822+396735487+397307042+397685395+397763017
2398+397698109+397699572+397879054+398172041+398472102+398819053+399210761
2388+399359358+398989206+398237621+397416554+396534054+395308262+393522134
2378+391220671+388654818+386074697+383533203+380983814+378597625+376757839
2368+375662169+375108571+374637961+373833663+372816864+372467078+373644700
2358+376235979+379397899+382638539+386281465+390651220+394948780+397511798
2348+397227590+394565853+391416189+389443568+388630031+388248934+388282288
2338+389046342+390303690+391283110+391421555+390887226+390340519+390343842
2328+391007958+391977622+392777774+393307012+393830366+394477896+395064420
2318+395423749+395650396+396001798+396658749+397562468+398557743+399627072
2308+400759510+401737711+402354114+402722193+403198808+404085485+405364479
2298+406644052+407497192+407897039+408139112+408389844+408582344+408667222
2288+408697710+408720576+408739386+408720484+408565332+408190027+407688960
2278+407314875+407248960+407429173+407590881+407471673+407048381+406563747
2268+406256430+406153229+406211613+406463960+406867161+407221551+407401521
2258+407526612+407799082+408279448+408882069+409496277+410039051+410471032
2248+410842221+411201764+411395697+411167069+410535087+409784813+409020880
2238+408102984+407093716+406374844+406190454+406366369+406590027+406747070
2228+406858350+406870850+406717161+406496521+406404418+406531247+406862222
2218+407360058+407904326+408292618+408452893+408542984+408747008+409082588
2208+409470758+409882923+410340057+410838288+411336459+411794569+412226367
2198+412724751+413389355+414243440+415285940+416509507+417731732+418597250
2188+418949750+419033317+419184567+419513896+419974689+420540176+421166396
2178+421678012+421890085+421903164+422062859+422463956+422738712+422580237
2168+422230877+422162463+422502066+423053194+423685572+424372950+424992370
2158+425485084+426116578+427147736+428341059+429223772+429759473+430368375
2148+431357857+432632857+433942795+435240600+436718008+438512398+440524349
2138+442575812+444592579+446609012+448733981+451064346+453573675+456241967
2128+459229497+462617118+466088672+469216872+471943152+474456292+476758913
2118+478669553+480133852+481328181+482521229+483964399+485864125+488366045
2108+491687660+496327415+502876865+511441009+521349696+531454388+540547679
2098+547616641+552181640+554528468+555203712+554163225+550779994+544818654
2088+537016887+528423170+519491586+510183174+500724731+491818331+484072082
2078+477556322+472058884+467534739+464041294+461351295+458973643+456683430
2068+454799406+453696144+453181022+452652212+451808187+450841206+450020444
2058+449516237+449525505+450111785+450976114+451749925+452436907+453271846
2048+454310565+455490687+456980320+459166052+462348581+466680989+472344067
2038+479550772+488401746+498859396+510721710+523470122+536235363+547976885
2028+557727370+564977246+569953038+573221696+575134378+575975110+576116207
2018+575435232+573189440+569100904+563906942+558392248+552678164+546769934
2008+541030179+535715973+530596523+525365548+520089330+515062258+510483631
1998+506466437+503248785+501142902+500102993+499493969+498619366+497434823
1988+496449549+496138726+496651622+497731896+498794609+499428298+499863908
1978+500676926+502108877+503890401+505600279+507069364+508523083+510342076
1968+512573478+514678600+515962624+516398782+516792319+517966404+520038903
1958+522632073+525430365+528180121+530532132+532421583+534351339+536852131
1948+539895423+543181215+546616519+549993652+552645237+554211212+555359993
1938+557014870+559395175+562135845+564782125+567047978+568992124+570915355
1928+572934501+574957366+576990231+578996024+580749316+582337974+584237242
1918+586428583+588170168+589128826+589926082+591201935+592807301+594069557
1908+594561569+594452544+594224740+594241386+594590227+595179191+595943276
1898+597001507+598466812+600069433+601363579+602356994+603279494+603750591
1888+603185530+601971201+601064860+600791323+600827909+600857543+600730958
1878+600406689+600043031+599937116+600398397+601715348+603761628+605284920
1868+604407359+600892177+596721934+593791203+592347667+591475777+590277667
1858+588444863+586133644+583746510+581726023+580344621+579667914+579711206
1848+580629560+582483279+584306022+583956510+580677060+576572122+573798769
1838+572476025+571399562+569939440+569068343+570086635+572406208+573394013
1828+571595050+568472002+565611819+562996637+560387918+558352980+557354809
1818+556894809+556138285+555220785+555204200+556469626+557874138+558108772
1808+557323834+556633590+556918468+558549199+561197735+563652125+564771271
1798+564854685+565374441+567597002+571498769+575030537+575529012+573436269
1788+571800355+572407793+574636634+577154195+579649499+582248584+584491205
1778+586235046+588654497+593280228+600085958+606208822+608082053+605848578
1768+602258457+599437299+598794190+600882848+604184859+606016932+606083212
1758+606233639+606988639+608005651+610519187+616160161+623751196+629183939
1748+630201560+628784488+627723451+628298573+630503573+633315950+635224242
1738+636494425+639857412+646844971+653432592+653410518+648280459+643277472
1728+640905826+641581985+644246740+646869971+648956251+652887836+661129541
1718+672187404+679611244+679336305+674850696+670780758+669244356+670930636
1708+675722708+682060268+687323864+691186241+696559533+704880263+712123371
1698+714284895+713293614+711037578+707879835+705912214+707005811+710433066
1688+714836358+721454466+731921415+741648974+743408546+739683120+736719341
1678+737331231+741849766+748465435+753986593+757792628+761860981+765813480
1668+766669821+765026773+764768419+767078053+769111711+768516772+767200614
1658+768222565+773148722+782686769+794854998+801371582+799955058+799106033
1648+802528837+806183715+803863959+796708778+790265121+787339695+788491097
1638+793671583+801029204+804544752+800181460+793096827+789182926+789258962
1628+790761767+791506767+791818047+791874023+790084572+786755975+785036463
1618+786226463+786870670+783003537+776818904+772220125+769810735+768415919
1608+767232260+766182870+765458724+765110980+764534151+762888664+760762018
1598+760248542+762467078+765910187+767909089+767265858+764811651+762068908
1588+760228542+759933177+761252445+763519883+765505187+766717260+768450797
1578+772167747+776215002+776133417+771982015+768594943+768171223+768704150
1568+767622138+765692870+765101346+766954943+772429881+783404878+797778534
1558+803312740+795373839+784694390+776900368+772216954+770126833+769903784
1548+770919820+773541405+778609697+786144390+795288412+803646947+805771520
1538+800732618+795718229+795206888+797779326+799572497+800064692+802426459
1528+808370238+816535298+824803405+832753525+840393036+846332913+849882424
1518+852028094+852709618+851563033+850604497+852785594+859286934+869446261
1508+880722905+886468818+882093514+875074186+872702114+875789186+882580831
1498+890374183+895871864+897375218+897160157+898965156+903813204+908262044
1488+908007045+904436680+902628570+905327472+911660946+918657774+923866126
1478+927601979+932343563+939980574+949354596+955711180+955331180+951293986
1468+949114596+950457035+952385144+951363437+948552950+947802157+951077644
1458+957046301+960980752+959739350+955683192+951315876+947189779+943746487
1448+941765024+941533744+942775451+945210938+948323864+951488559+955027704
1438+959623679+964077946+966142702+966968372+969454652+973266603+975253004
1428+974586358+974629468+978072272+983432332+987238002+988074038+987112392
1418+986239831+986832758+988861782+990933489+991717696+991240867+990368306
1408+989939830+990534586+991756293+992014037+990176842+987075807+984845197
1398+985045075+987472087+990422147+992276720+993149586+994277390+996065926
1388+997640316+997954097+996897390+995272634+994275012+994876780+997250499
1378+1000593486+1004219766+1008489155+1013145130+1016453788+1017302446
1370+1016492446+1015495251+1015546959+1017861958+1022577872+1026943419
1361+1027609761+1025718907+1024993664+1026108054+1027149761+1028095980
1352+1031163418+1036982929+1043456952+1048475731+1051588657+1052630608
1344+1051611950+1049625853+1048058902+1047655488+1049280609+1053615608
1335+1059457680+1064117557+1065838410+1065140118+1063971825+1064019142
1327+1065597069+1067542190+1068336824+1067450605+1065014142+1061096582
1318+1056569144+1053740242+1054329998+1057311583+1060068046+1061202314
1310+1061485972+1062123777+1063451338+1065370727+1067751580+1070252312
1301+1072418043+1073741823+1073509506+1071189994+1066851093+1060672680
1293+1053255608+1046606220+1042652318+1040837197+1039073416+1036515246
1284+1033435003+1029305492+1023446957+1016565983+1009965740+1003748059
1275+997003731+989912513+983757271+978650077+973346054+967311482+961168496
1265+955114899+948730267+942458683+937230208+932709905+927598808+921603261
1255+915728140+910669117+906159972+901712351+897120767+892034304+885778452
1245+878239856+870215529+862354738+854554130+846673949+838943768+831515843
1235+824566332+818848224+815303225+814016701+813906152+813529018+812150177
1225+810111092+808326458+807472678+807515666+807916580+808347860+809076580
1215+810421945+811993530+813077372+813906152+815654566+818932248+823235662
1205+827926697+832566330+836293342+838554073+840550231+844363401+850403399
1195+856546935+860202848+861053458+861279433+863142482+867025957+871589248
1185+874967540+876254735+876588393+878234673+882427721+888960708+897476376
1175+907734667+918854603+929502283+938541915+945216487+949778315+953650510
1165+957316362+958964899+957450021+955335814+956562094+962221727+969825140
1155+976063126+979492699+980568552+980550869+980762028+981424710+980838064
1145+977314041+972245932+969031238+968829286+969363311+968285689+966565446
1135+967315262+971785505+977678187+981599101+982842393+983152515+983496966
1125+983903246+984924771+987027392+989751233+992483061+995547878+999269950
1115+1002758425+1005610436+1008276228+1010094216+1010713484+1012460069
1107+1016970617+1020912262+1019650311+1013706715+1006655741+1000379035
1098+994047146+986367209+979580503+979016662+987520075+1001102328+1011451289
1088+1013323544+1007535558+997874768+988533611+982893003+981193003+980312028
1078+977682455+974483310+972734590+971294835+967772275+962553922+958218557
1068+956688923+957522094+957539350+953909656+947875633+943247829+941943622
1058+942579597+942823927+942297037+942282098+943001305+942852341+941244659
1048+940086427+940693744+941901671+942807219+944530390+947720877+950931059
1038+952382766+951958864+951014656+950804169+951209534+951154230+950168010
1028+948729901+947370999+946320877+946127889+947525694+949666852+949870571
1018+947216548+944775634+946003133+950544169+954298314+954074839+950727949
1008+946019719+939764476+931593502+922965578+915964665+911014300+906675581
998+900927595+892694121+883211684+875092357+869454066+865151018+861131019
988+857874678+855616203+853211509+849893704+846364803+843418096+841014743
978+839035963+837502915+835634927+832292306+827744502+823569625+820506821
968+817780724+814690054+811362555+807907922+804295239+801156460+799594692
958+800069448+802132069+805206276+809220482+814449018+820768223+827199807
948+832394806+835472732+836723951+837978585+841545048+848053827+855682606
938+862074555+866832176+871468577+877760405+886824610+897976864+908383813
928+915726860+920348993+922973626+922383566+917605457+910561617+904358814
918+900366376+898596071+898727230+899326559+898469669+896486803+895726438
908+897080889+899250949+901127778+902510582+903524485+904645948+906355216
898+908798630+912121983+916255945+919736554+920192347+917500335+914868262
888+915686067+919960212+924729663+927700333+928547710+927261613+924506126
878+922964175+925040272+930164905+935844904+940287403+943191366+944491365
868+943877951+942142280+941421183+943337097+947236060+950961913+952941546
858+952924717+952218193+952615998+953891546+954009290+952649168+952040144
848+953448253+955494960+956450204+956472582+957188192+959814411+963879288
838+967976238+970938432+972736725+974163188+974840566+973737822+971551420
828+970868981+972350505+972464712+968308555+963480141+964332641+972397030
818+982431295+987253489+985240441+980561906+977758309+979540199+986887941
808+998823670+1010751960+1015609885+1010918484+1002231474+996660743+996141658
798+997138975+995149402+989321843+982465137+977346053+973515566+968120384
788+959831667+950674474+944846792+945098804+949265511+952140144+950732949
778+945613560+937942038+928799113+920784968+916446860+916073872+918808688
768+923903504+929639357+933845453+936729294+941165147+949428376+960373191
758+970191054+975143431+973854651+968278677+962510995+958914960+956387826
748+953952827+953070083+955707338+961031179+965921787+968458738+968799591
738+967643494+966228799+966050446+967450323+970403798+975303248+981151479
728+984457210+984825014+986233612+989599708+991316964+989597879+987510807
718+988086477+989492696+987806538+983621783+981485930+983788856+988544465
708+991534952+989423672+982760076+975240322+968736055+962841117+957819411
698+954736119+953644473+953727095+954716302+956696850+958585143+958505569
688+956486058+954924412+954030327+949693986+938091916+922155090+909546861
678+904255277+904159302+906175399+909872715+914101311+914796677+910478995
668+908505886+916398445+925930455+925742162+917868750+911655031+912047470
658+915415031+914711067+908789483+904302533+906358874+912164483+916169543
648+918569786+923187712+929024905+930080515+923061492+911668141+902101802
638+897596559+897104303+897468693+898212108+902083326+907936374+909252715
628+904849118+901331375+902174668+901163327+891852353+878244308+868924676
618+867301444+870141200+872077358+868722054+858890166+847468949+842489987
608+850123278+872118089+904200155+933990636+945646914+938599842+927419723
##END=
