##TITLE=<SNM>
##JCAMP-DX=4.24
##DATA TYPE=INFRARED SPECTRUM
##DATE=29/4/2025
##SAMPLING PROCEDURE=Instrument type and / or accessory
##ORIGIN=Admin
##XUNITS=1/CM
##YUNITS=ABSORBANCE
##RESOLUTION=4
##FIRSTX=4497.3318
##LASTX=599.83466
##DELTAX=-1.4281778
##MAXY=2.0999634
##MINY=0.38125944
##XFACTOR=1
##YFACTOR=1.9557433e-09
##NPOINTS=2730
##FIRSTY=0.38937613
##XYDATA=(X++(Y..Y))
4497+199093677+199178356+200126243+201312641+201934336+201713730+201000727
4487+200141040+199219637+198566749+198771507+199894453+201169781+201686438
4477+201148204+200081488+199313658+199060884+198833985+198391950+198193623
4467+198586056+199224452+199734572+200284859+200915301+200923941+199778534
4457+198244717+197671008+198390518+199557014+200344761+200693019+200970052
4447+201398662+201798379+201607183+200296959+198030633+195839875+194943494
4437+195815601+197866745+199877081+200809912+200563264+199989769+199921059
4427+200272791+200487133+200576232+200971378+201479242+201297586+200141969
4417+198577919+197261828+196582608+196834468+198001574+199493242+200590922
4407+201031173+200865258+200138190+199042506+197953329+197107737+196519841
4397+196143561+196046614+196433592+197258780+197948910+198051754+198029506
4387+198692954+199941006+200790575+200661110+200015399+199657176+199774786
4377+199847351+199349514+198299499+197240540+196904381+197641598+198921940
4367+199623088+199104511+197828542+196770391+196350894+196163523+195782381
4357+195549219+196190632+197750659+199387716+200251061+200156888+199418223
4347+198442648+197518472+196660263+195754754+195047069+195083169+195905796
4337+196795549+197072156+196762467+196442156+196772158+197964179+199373697
4327+199976359+199404615+198105256+196753826+196107324+196768775+198343477
4317+199472259+199368059+198704306+198491289+198760536+198859356+198541667
4307+198214759+198376956+199202783+200432321+201452514+201726667+201251093
4297+200441418+199760751+199609815+200146053+201001276+201592981+201815431
4287+202009369+202351684+202698814+202901880+202923458+202675042+202009598
4277+200955835+199845873+199107727+198995389+199564466+200571234+201383484
4267+201516789+201293166+201404407+201835561+201963670+201712374+201717463
4257+202274441+202977859+203469890+203787793+204002318+204209530+204675077
4247+205367340+205708040+205386388+204972377+205093339+205429726+205124410
4237+203908130+202333291+201125651+200705347+201161324+202358770+203930927
4227+205288131+205986962+206111445+205977576+205587626+204815818+204034029
4217+203962242+204824596+206034979+206759258+206610333+205841299+205073316
4207+204860832+205300611+205972730+206374977+206411336+206370725+206476068
4197+206602943+206535193+206375449+206452053+206810154+207118898+207225506
4187+207374811+207660424+207767565+207523538+207274802+207456900+208084950
4177+208823583+209366282+209649655+209808972+210064611+210563118+211150511
4167+211336557+210735342+209589966+208593057+208301228+208890007+210128962
4157+211362782+211925336+211747261+211204425+210520939+209845361+209620641
4147+210192476+211210276+211939691+212017498+211576317+210950432+210551964
4137+210714420+211504651+212812346+214346087+215459341+215577575+214920848
4127+214250482+213963040+213862650+213597884+213079414+212659810+212841528
4117+213617800+214410149+214846942+215132707+215433801+215484316+215170757
4107+215027470+215603160+216627544+217341598+217442217+217177847+216719797
4097+216015937+215223862+214757736+214760738+214936513+215037817+215125895
4087+215272625+215467722+215839782+216488707+217202091+217779610+218381007
4077+219130475+219735316+219867204+219548829+218919637+217965365+216781070
4067+215913017+216007876+217056473+218311718+219031517+219049864+218724083
4057+218630306+219088570+219812529+220328408+220592642+220793803+220956031
4047+221147958+221560278+222007539+221861753+220839823+219457475+218463401
4037+218089451+218040871+218058502+218200859+218585033+219154171+219784582
4027+220376044+220804318+221030943+221251792+221707541+222311803+222700884
4017+222728237+222611892+222509612+222325167+221994068+221594670+221269987
4007+221333119+222072911+223239773+224179493+224563560+224570402+224420198
3997+224204377+224066790+224143820+224378186+224551278+224421158+223944197
3987+223458185+223466048+224094097+224820205+224952382+224424937+223903511
3977+224022446+224731624+225451362+225710628+225567570+225422288+225500019
3967+225714681+226038816+226623878+227406810+227985791+228050112+227687180
3957+227187057+226722135+226363637+226326212+226994277+228465403+229975540
3947+230230798+228878439+227203332+226725152+227510004+228397578+228601817
3937+228310140+228063217+228257781+228896786+229487699+229579343+229377709
3927+229346927+229523570+229579617+229323293+228987226+229098557+229965331
3917+231136962+231696134+231367961+230773223+230426870+230191712+229896758
3907+230026284+231317004+233722988+236203275+237910779+238873935+238975941
3897+237608603+234942042+232374607+231310664+231704988+232050426+231663661
3887+231797012+233512074+235807108+237066407+237387555+237358587+236521193
3878+234844136+233618819+233777420+234966362+236740214+238981549+240603078
3868+240468493+239494197+239253675+239740922+239796283+238904183+237375410
3858+235890279+235844702+239165674+245261947+248779281+247063289+242860793
3848+239124774+237261519+237419281+238881204+240709975+242618640+244868341
3838+246963524+247571748+246453496+244720666+243305388+242439773+242193246
3828+242564316+243135449+243674659+244966506+247677365+250276115+250795088
3818+250173241+249963393+249660790+248321627+246570907+245621497+246217667
3808+248217747+250087586+250497193+250480964+251656177+253385258+254052958
3798+253839103+253373753+252355465+250915455+250103129+250434563+251359836
3788+252189702+252746314+253152706+253753097+255106675+257288961+259288416
3778+259996665+259797652+260089924+261706440+264405062+267190695+269055901
3768+270081686+271323003+273379725+276021538+279132998+282893155+286825018
3758+289872172+291931149+294200750+298121580+304261390+310901689+314889537
3748+315942569+316766446+319569360+323508049+326196553+327987944+331201288
3738+337248662+345114246+352010123+356360217+358823316+360384272+361590358
3728+363156801+365917473+370223225+375745302+381609145+386661210+390357579
3718+393358561+396869174+401988410+409404707+418238720+425513117+429452264
3708+431465769+433511245+436688230+441457227+447484882+453572181+458200132
3698+460316283+460366387+460455836+462454103+466278840+470413190+473170602
3688+473741980+472727897+471370220+470628021+470858730+471951320+473927400
3678+477485344+482669495+486709825+487310947+486605686+487490425+489862580
3668+491452642+491353715+490555956+490440724+491777494+494372343+497870583
3658+502371568+507453195+511502454+513593889+514774191+516615351+519527280
3648+522619631+525072397+526464940+526578557+526002608+526185834+528142500
3638+531365353+534634103+537400475+540038174+543631684+548998696+554479447
3628+556257885+553540276+549218677+545652291+543750117+544059090+547098168
3618+552469141+558156585+561669941+562226568+561813974+562973431+565812947
3608+568642589+570501425+571640157+572495760+573346366+574612186+576656382
3598+579171930+581543689+584054545+587338716+590626301+592487758+593037132
3588+593682202+594545303+594319836+592946250+592203471+593245105+594696833
3578+594760285+594055603+594205914+595095529+595794726+596998557+600140341
3568+604717823+607976333+608221426+606878927+605781033+604998452+604014359
3558+603513992+604674850+607733250+612275745+617606001+622431259+625223780
3548+625467533+625000324+626797476+630855268+633100123+630445661+625174103
3538+622040669+622983741+625929560+627841181+628146680+628244084+628826738
3528+629086521+628413169+627619555+627576217+627892199+627872572+627428710
3518+626462780+624816855+622710669+620368838+617983852+616163477+615461233
3508+616065159+618397421+622651727+627161672+629317779+628448948+625808201
3498+622735660+620842995+622068830+626461805+631419149+634651388+636612504
3488+638622687+640164383+639736672+637955186+637302314+638201621+637811336
3478+634391787+631078053+632747812+639896980+647032434+648655197+645904429
3468+643391563+642102580+639693456+635880514+633339670+633710632+635767628
3458+637046980+636093973+633668879+631973825+632408362+634510585+637018941
3448+638951287+639375950+637580201+634338270+631593902+630662533+631441701
3438+632799439+633504792+633400257+633146996+632842411+631884223+630242381
3428+628624738+627075119+625543420+625400667+628084020+632562574+636320476
3418+638507241+639913681+640479024+639542840+638214970+638312190+638991212
3408+637606289+634252508+632113043+632499914+633154188+632529111+631922502
3398+632574033+633883191+635253912+637270191+640100930+642300679+642248198
3388+640171636+637693330+635712892+634173391+633325772+633403610+634096528
3378+635495593+638438547+642508104+644918751+643658661+640756911+640070027
3368+642743689+646317206+647733155+646624472+645337075+646006953+648472581
3358+650562370+650533234+649170071+648630938+649716092+651015315+650534940
3348+647979589+645469709+645562663+648520978+651855070+653103336+652783879
3338+652994290+653962901+654197816+652960705+650822092+648538289+646857924
3328+646503297+647293193+648393768+649513483+650590835+650648619+648567302
3318+645170184+643219308+644870049+649507204+653887746+654939436+652766507
3308+650429003+650929980+654394208+657660642+657680391+655501000+654894453
3298+658084512+664111101+669534128+669992925+663824498+655281751+650443937
3288+650564442+652117414+652280038+651603211+651327457+651534882+652375186
3278+654463085+657600298+660605729+662298955+662148339+661022712+660932988
3268+662682291+664727645+665387649+665033022+665032900+666041191+667683277
3258+668523703+667349435+665168765+663912880+663822852+663992242+664181868
3248+664371067+663593118+661261832+658945723+658915612+661183568+663312489
3238+663496080+662203502+660763355+660034900+660291575+661431161+662846926
3228+663702164+664130850+664470421+663700884+660583420+656191725+653584380
3218+654542325+658093899+661960907+664009796+662798956+658605481+653865558
3208+651212987+651205916+652201103+652152462+650404256+647805019+645668905
3198+644999454+646050535+647779967+648704326+648699754+648507080+647963010
3188+646453803+644641657+643923564+644556749+645751802+647023535+648040908
3178+647574737+644346703+639293175+635262202+634040025+635019668+636576602
3168+637350711+636260132+633177960+629749939+627786262+627227563+626924381
3158+626665024+627238413+628780535+629883305+628834479+625781077+622715911
3148+621006655+620060414+618927106+617910464+617678658+618164335+618952097
3138+619704872+619948015+619473493+618581805+617315131+615184138+612361384
3128+610344496+610395697+612053874+613826888+614458853+613624157+612195652
3118+611246790+610696807+609490111+607269334+605003329+603643335+602863497
3108+601594081+599715069+598589442+599435414+601710684+603624135+603895926
3098+602654061+600989788+599847277+599162282+598305216+597193730+596280586
3088+595695128+595286375+595408281+596623144+598475337+599142350+597216161
3078+593825381+591358047+590551572+590218157+589415888+588611241+588573755
3068+589433442+590897544+592484345+593499463+593263756+591759547+589887484
3058+588669025+588149397+587539802+586690111+586601911+587815982+588932588
3048+588084238+585682428+583937087+584113365+585469457+586182673+584978721
3038+582288601+579750378+578554289+578528932+578761713+578664127+578349181
3028+578164126+577966393+577022590+574902385+572267490+570274800+569433520
3018+569397192+569567069+569627109+569690317+570054331+570642837+570767669
3008+569901826+568493253+567408281+566720970+565751567+564236142+562704687
2998+561616607+560721628+559597159+558497559+558017489+557983416+557546441
2988+556610928+556175903+556736553+557333409+556724545+554765623+552323402
2978+550466699+549875755+550472977+551374113+551616524+551171016+550825166
2968+550893251+550770917+550100978+549286274+548483518+547378493+546123583
2958+545215621+544549400+543765233+543028123+542588527+542339106+542313932
2948+542750359+543426881+543757005+543574754+543089138+542276750+541013612
2938+539520558+537974595+536053221+533548156+530884857+528627446+527215886
2928+527196808+528563689+529933800+529710223+528011329+526311886+525687235
2918+526199670+527054725+526928491+525400632+523974138+524127314+524927816
2908+524287805+522084216+520106338+519361060+519236776+519013442+518756463
2898+518663204+518558303+518230495+517664604+516856605+515813691+514732012
2888+513833863+513049026+512136248+511148345+510524853+510545242+510819044
2878+510649746+509965331+509467646+509592295+509716641+508849639+506985500
2868+505353776+505156256+506128098+506595489+505317204+502974580+501159874
2858+500490362+500558325+500982744+501583287+501966441+501686482+500762031
2848+499797687+499415874+499405390+498830691+497363420+495883592+495234316
2838+495096561+494622648+493533562+492082352+490509601+489042391+488093894
2828+487929473+488256762+488612883+489004905+489571162+489827715+489082315
2818+487451415+485734966+484497154+483780402+483392982+483079072+482612108
2808+481944332+481237028+480702406+480328243+479787220+478880843+477906959
2798+477120416+476234884+475110445+474327163+474188951+473830758+472353643
2788+470339040+469208964+469415443+470058777+470167274+469771107+469496390
2778+469514127+469378536+468801033+468116617+467835835+467954389+467821511
2768+466750925+464847714+462998387+461848317+461200047+460654453+460252587
2758+460135068+460152867+460066283+459660333+458679256+457187055+455799633
2748+454989897+454509919+453934092+453310447+452835284+452269271+451179758
2738+449640745+448243631+447396927+447000120+446828658+446789434+446716351
2728+446401191+445924505+445592979+445573352+445745180+445698002+444928038
2718+443441383+441958569+441128109+440839433+440651697+440450520+440250501
2708+439836597+439111921+438408945+438057945+438007201+438018691+437767136
2698+436793862+434992627+433055709+431844382+431473175+431430690+431349348
2688+431264074+431250299+431138754+430672521+429814906+428738194+427586357
2678+426502970+425747757+425416445+425234194+424940703+424536521+424003209
2668+423331532+422856126+422905773+423197709+423217458+422974437+422754730
2658+422464317+421824733+420922195+420068969+419385772+418858190+418537605
2648+418424872+418264716+417681148+416613792+415513187+414955767+415085598
2638+415517301+415730425+415508036+415048325+414669652+414396641+413930500
2628+413093884+412166020+411621370+411579160+411664586+411494983+411122466
2618+410759001+410332449+409722701+409154645+408908363+408880568+408796696
2608+408625082+408488577+408391661+408259971+408117309+408077324+408197158
2598+408407996+408565805+408501590+408103229+407470593+406847893+406312356
2588+405762343+405226531+404833107+404539525+404297906+404301624+404677341
2578+405186363+405526148+405640222+405557966+405261671+404827256+404420757
2568+404103159+403813082+403518585+403261209+403088437+402980062+402805826
2558+402435717+401961895+401639482+401535435+401481796+401407768+401426938
2548+401582552+401782814+401983412+402196048+402340142+402292446+402092061
2538+401915388+401799698+401583710+401213357+400863758+400634451+400437846
2528+400307680+400419225+400703694+400887865+400962777+401187238+401656427
2518+402221892+402746701+403144727+403271754+403033701+402542995+402003679
2508+401524554+401165173+401009833+401052409+401157310+401258919+401426023
2498+401690531+402063810+402657100+403468969+404169050+404389519+404092401
2488+403482288+402764378+402102485+401649722+401531320+401783911+402257245
2478+402650517+402767487+402691325+402649298+402763403+402932183+402913470
2468+402567559+402056587+401754471+401912249+402396250+402786169+402815853
2458+402662769+402656887+402842520+403060063+403270840+403496947+403594472
2448+403384579+402943855+402551498+402379487+402391130+402490788+402613305
2438+402691691+402685352+402652193+402692361+402806101+402895428+402938766
2428+403083043+403443155+403824602+403848740+403429380+402927093+402732012
2418+402898476+403269987+403723724+404154695+404404056+404383850+404230217
2408+404231710+404554824+405041568+405357368+405361269+405240215+405267888
2398+405531268+405913080+406243936+406423901+406480648+406576802+406843017
2388+407126298+407036940+406255243+404586642+401782296+397644350+392317598
2378+386263580+380025483+374072374+368563462+363172191+357488770+351649796
2368+346314115+342136031+339367678+337719740+336711997+336455170+337757593
2358+341136729+346189374+352416956+360141495+369395263+378122212+383051151
2348+382280334+376614010+369219199+363594629+360990149+360404295+360623271
2338+361260082+362309761+363500426+364463795+365358469+366813946+369107594
2328+371683608+373722653+375042234+376160425+377579696+379397998+381555506
2318+383952866+386345806+388523002+390511395+392384190+394082901+395633953
2308+397323034+399423093+401814632+404048576+405808332+407143456+408232054
2298+409205237+410260707+411559716+412877346+413723167+413955460+413976520
2288+414219724+414687146+415083221+415206073+415071731+414787841+414490997
2278+414360039+414492095+414709729+414633141+414079226+413322368+412792225
2268+412584069+412482277+412369482+412339371+412483282+412808591+413311579
2258+413976367+414743436+415522543+416192726+416633084+416836059+416967932
2248+417238200+417648843+417925328+417831734+417496977+417203944+416947391
2238+416516115+415908378+415315667+414780039+414189217+413554722+413035734
2228+412747607+412730327+412970422+413301278+413442415+413278481+412975481
2218+412769367+412788537+413098577+413747640+414669804+415603276+416253649
2208+416639637+417115409+417864344+418569667+418836185+418767186+418876811
2198+419527824+420590304+421611883+422274782+422633981+422921194+423288255
2188+423783868+424401204+425080835+425724382+426247271+426674737+427144566
2178+427669132+428012940+428008033+427782353+427530066+427372227+427459208
2168+427846262+428396520+429076821+429998681+430988412+431630343+431872908
2158+432098009+432560584+433169113+433788309+434463063+435337288+436487205
2148+437855945+439306515+440660474+441713018+442403224+443005444+443920478
2138+445205102+446558603+447834298+449272342+451119414+453306454+455630822
2128+458004380+460385252+462675303+464834914+466975721+469222008+471499350
2118+473521511+475038459+476073083+476875474+477736198+478922474+480671411
2108+483122257+486311646+490279593+495073551+500521113+506033376+510896669
2098+514928587+518528070+521786154+523977186+524305908+522702528+519529657
2088+515021053+509364939+502958793+496307249+489809764+483721125+478239643
2078+473548209+469700401+466550479+463963981+461978727+460564577+459432885
2068+458324995+457294821+456505657+455935315+455442202+454977523+454631613
2058+454538537+454758243+455231212+455849706+456510777+457084562+457459761
2048+457676664+457952509+458608490+459973359+462206541+465225991+468977737
2038+473645521+479373773+485993957+493214349+500801895+508454295+515817958
2028+522708745+529063812+534695788+539267723+542500267+544395614+545218851
2018+545177281+544273219+542550553+540149902+537044080+533172927+528898018
2008+524861925+521319860+517971565+514515505+511081754+507974926+505226322
1998+502712694+500602120+499262759+498744076+498715276+498877686+499123207
1988+499410358+499818594+500521539+501414843+502110839+502612243+503504906
1978+505097528+506908546+508411018+509744892+511316120+513211528+515302963
1968+517456570+519408604+520848507+521866185+523009428+524709664+526785311
1958+528690899+530253257+531915640+534173478+537010068+539954546+542513859
1948+544573049+546541358+549031184+552193632+555378449+557725278+559142812
1938+560312325+561845061+563870970+566309900+569057743+571820396+574187097
1928+576071655+577831503+579785305+581772326+583443791+584869005+586340908
1918+587656588+588338718+588664149+589583936+591495436+593692991+595132284
1908+595537015+595525617+595824472+596716281+598124062+599796503+601295104
1898+602106029+602024899+601444135+601202211+601960655+603543920+604974193
1888+605441279+605047764+604282554+603451941+602908968+603012101+603501740
1878+603524354+602631874+601375623+600713120+601112853+602191363+602824304
1868+601941393+599779192+597638141+596280464+595409013+594438878+593121247
1858+591413210+589316960+587085333+585253316+584248316+583991458+583936539
1848+583638781+583137927+582475972+581256843+579361739+577508937+576417566
1838+576056661+575704715+574628887+572923654+571424687+570627720+570030681
1828+568948209+567444853+565755468+563731935+561476292+559692490+558907410
1818+558812200+558689318+558365655+558350478+558998718+559906315+560325674
1808+560033768+559508593+559427099+560235829+561871149+563612589+564587478
1798+564711518+564788746+565739315+567942234+570744507+572681668+573210805
1788+573338320+574140894+575848505+578097626+580409468+582391430+584006818
1778+585722718+588034561+591138676+594932479+598512214+600356482+600250667
1768+599542266+599366476+600056835+601583109+603437069+604636084+604976387
1758+605396966+606577268+608368385+610604036+613479148+616939293+620331291
1748+623074927+625234995+627145520+629022398+630956573+632796574+634137306
1738+635270736+637714054+642531632+647721208+649449603+647898216+645944171
1728+645098259+645632455+647402970+650007510+653210736+657366602+662738429
1718+668251607+671695172+672463856+672220225+672448313+673703832+676144103
1708+679700919+683716410+687042151+689543315+692647552+697393082+702501590
1698+706101622+708448269+710172276+711409875+712878182+715212638+718099576
1688+721163035+725055095+730422290+735793934+738965890+740568661+742304737
1678+745113228+749394232+754396742+758187741+760221331+762009278+764461008
1668+766651858+768007523+769633396+772511861+775900080+778116042+778883629
1658+779480058+781234055+784995004+790840683+796458213+799321928+800672229
1648+802228980+803949513+804695888+804273115+803571480+803185645+803360642
1638+804171932+804819441+803717402+801153944+799208189+798235494+797006855
1628+795262246+794515871+795612362+796824056+795783520+793013612+791176354
1618+791435223+791892374+789816726+785982815+783026513+781646100+780578135
1608+778742644+776556670+774697042+772852956+770607310+768556165+767648264
1598+767909327+768503745+768853435+769117059+769585974+770186914+770569031
1588+770318025+769271637+767690383+765893048+764109063+762994651+763459482
1578+765455708+767231342+766819967+764992827+763902370+764150877+764868238
1568+765026656+764207015+762381094+760379505+760260889+763946074+770400617
1558+773523079+770456937+765664351+762190249+760536338+760426927+761443752
1548+763257178+765561218+768014960+770626388+774087264+778555517+781640858
1538+781303481+779791957+779891372+782058938+784797393+786942954+789304534
1528+792997216+797575307+801524968+804533142+807873513+812271852+816871643
1518+820890364+824370501+827352344+829898064+832408858+835609280+840675791
1508+848552195+856975717+860370397+859016560+858109329+860287073+865114464
1498+870773138+875905235+879988689+882839420+885037645+887898373+892268552
1488+897287032+901091197+902920288+903982463+906253344+910124619+913722335
1478+915330043+915512599+916304750+919386983+924848960+930833551+934929501
1468+936603526+937456326+939245492+941977669+943901665+943972736+943065444
1458+942832297+943770554+944201068+943213378+941727699+940758174+940868865
1448+942192774+944476151+947544060+951713824+957055722+962197450+964980401
1438+965089142+965118461+967270361+970106403+971191740+970327176+969588664
1428+971292435+975896431+982179939+988283207+992122725+992586093+991390126
1418+991582495+993139429+994155157+994949380+997021188+999722644+1000634386
1408+999177660+997212582+996273228+996535450+997804196+999823096+1001494744
1398+1001086782+998790362+997678876+999590254+1002557589+1004441721+1005533519
1388+1005954890+1003909719+999567274+997111338+999164250+1003467746+1006900766
1378+1009290933+1012046455+1015963141+1020353373+1022912747+1021668200
1370+1017993561+1016114183+1018916944+1025416105+1032367967+1037083326
1361+1039030300+1039579979+1039965326+1040435399+1041092233+1041946801
1352+1042856348+1044241454+1046881835+1050058485+1051328267+1049423716
1344+1046341300+1045406152+1047996674+1052462123+1055559533+1055997179
1335+1056281344+1059635612+1066020729+1071795580+1073741823+1072314050
1327+1069582970+1067172261+1065460323+1063734974+1062204434+1062729852
1318+1066092532+1070001720+1071409622+1069703901+1066752779+1064324882
1310+1062754112+1062137507+1062738629+1063920882+1064008899+1062193462
1301+1059783363+1058699611+1059598552+1061492132+1062169202+1059532113
1293+1053901843+1048342767+1045323865+1043657398+1040084673+1033264714
1284+1024900439+1017060120+1009876391+1002707169+995709592+989695803+985394928
1274+982785207+980738085+977555645+972502300+966715563+961789062+957553712
1264+952310192+945448785+938280965+931804540+925632028+919274767+912582933
1254+905396583+898303674+892891679+889955064+887900324+883780968+876030555
1244+865772152+855444261+846821056+840346703+835356445+830581352+825129311
1234+819352448+814488790+811432280+810088500+809510418+808484205+806586298
1224+804665533+803897825+804468897+805364060+805496085+805034484+805415443
1214+807792993+811770876+815937227+819485144+822879946+826602555+830074768
1204+832703263+835079351+838173713+842050961+845990017+849252672+851620774
1194+853795105+856896782+861109640+865218390+867796476+868695235+869416558
1184+872099972+877648869+884631634+890619457+894731437+898147207+902258151
1174+907561832+914195639+922240274+931341964+940422137+947646096+951342739
1164+951858527+951408386+951631597+953066320+956548529+962573411+969107376
1154+972410565+971372589+968881848+967681675+967676799+967834181+968218553
1144+969030392+969515886+969824859+971205820+973497609+975374487+976483901
1134+977533031+979019686+981263809+984042920+985989346+986042071+984516528
1124+982108562+979676459+979036631+981458372+985684274+989577553+993083535
1114+997655043+1002907218+1005540955+1002617689+995222269+988205370+986692322
1104+992253836+1001158890+1006828536+1005898630+1000695644+994939811+990429134
1094+988243100+989698729+994648941+1000536312+1004143537+1004648292+1003499624
1084+1001548505+997666502+990117845+979688589+970073366+963987653+960563532
1074+957748641+956016405+957149713+959875855+960264799+956362560+950772885
1064+947938367+949180842+952319213+954813611+955065410+951734670+945448480
1054+940444690+940641753+945069837+949187182+949851208+947796346+945925014
1044+946146702+947512181+947427029+945326390+944218866+946943424+951393026
1034+952057235+947722897+943361800+942323580+942313035+940940790+940151748
1024+942043011+944354549+943494496+940331500+939445298+943035394+948472198
1014+952092527+952919848+951314518+947087335+940553004+932803932+924207546
1004+914531431+904790584+897490373+894079784+893073869+891266539+886683815
994+879958395+873022076+867282700+862742156+858325652+853329116+848521596
984+845559807+845004400+845158185+843556999+839566255+834724662+830712097
974+827992355+825902383+823180690+819206708+814992997+811780080+809174808
964+805998890+802594823+800949689+802376000+805743007+808361506+808886498
954+808798481+810270934+813586801+817651237+821924257+826591462+831696678
944+837125679+842813428+848638870+854663570+861181199+868075887+874615643
934+880340024+885634197+890948179+896352799+901571023+905934984+909287668
924+912293769+914692714+914623349+911439934+907128514+903652827+900908337
914+897886387+894629401+892473600+892416120+893497313+893766788+892973905
904+892799883+894015905+895242410+895813909+897470502+901287467+905328681
894+906826733+906132413+906744873+910988208+917206190+921860168+924020298
884+925959287+928766559+930328735+928865060+926067053+925014448+926730288
874+929542679+930771806+929157454+925952156+923551809+923274898+924981289
864+928043225+931829104+936085910+941004730+945657368+947313838+945091903
854+942791581+944574835+949396800+952132635+949977809+945547651+943319742
844+945555819+950573933+953590092+952349080+950834570+954126544+961084989
834+965452547+964336916+962024647+963992102+970825532+977890828+979787455
824+976438917+972680223+972601593+976817316+983523901+990184406+994045136
814+992829237+987056519+981866699+983020426+990316858+998315534+1002911668
804+1004143354+1003199124+1000583856+996957492+993213365+988993254+983534081
794+977865410+972821696+968082871+963849532+960798142+958102842+953016703
784+944278174+934678677+928210664+926090703+926117584+924931491+921817928
774+919493651+921197909+927360119+934588649+939459561+942160591+944425864
764+946631343+947944158+947601478+945486759+942611219+940567755+939782797
754+940076836+942546974+947821398+953674147+956702863+955678784+951337497
744+945202716+940234035+939073421+942030943+947799333+954936615+962118332
734+967980103+972361437+976548877+980546326+982604602+981662018+977240333
724+969038682+958568587+949446782+944596351+944277930+947604403+953581681
714+959706405+962104496+958553287+951453735+945743861+945315358+950311407
704+956706886+960677515+960463568+955531825+947879913+941401903+937870870
694+936475890+936903295+939328511+942340586+944769276+947485179+952401013
684+959925837+965470650+961140152+945963293+928648188+916754038+910550501
674+907192088+904225058+898420583+888542834+882080001+888005834+899799838
664+907340754+910772006+912286394+909311561+898421071+883051477+872430462
654+873392978+885689542+901621614+912330951+916528388+916776042+914234161
644+910965533+909082315+907016116+902640512+898499823+900603692+911072933
634+919990117+916812187+906070362+896466964+890233926+886371611+884966452
624+886300174+890929771+900124293+911173140+916666935+910833874+895414055
614+880388300+875951498+885038742+901731757+912225806+906030681+888683271
604+874127284+869972210+874302586+877281564
##END=
