##TITLE=<SNM>
##JCAMP-DX=4.24
##DATA TYPE=INFRARED SPECTRUM
##DATE=29/4/2025
##SAMPLING PROCEDURE=Instrument type and / or accessory
##ORIGIN=Admin
##XUNITS=1/CM
##YUNITS=ABSORBANCE
##RESOLUTION=4
##FIRSTX=4497.3318
##LASTX=599.83466
##DELTAX=-1.4281778
##MAXY=2.179647
##MINY=0.61315769
##XFACTOR=1
##YFACTOR=2.0299544e-09
##NPOINTS=2730
##FIRSTY=0.61843568
##XYDATA=(X++(Y..Y))
4497+304654958+305681267+307611649+308960007+308988577+308192000+307290599
4487+306026013+304079452+302738787+303645092+306308627+308664385+309753648
4477+310145902+310175940+309778371+309369762+309181137+308496226+306709955
4467+304490880+303207501+303557767+305044217+306667497+307856974+308487799
4457+308479107+308073199+308044424+308840032+309950230+310575183+310335643
4447+309198167+307506355+306038609+305293652+304988193+304811901+305108228
4437+306278267+308208414+310460992+312266289+312618758+311293802+309483747
4427+308466658+308137592+307687229+307042603+306735647+306878555+307016118
4417+306761780+306124466+305371845+304980912+305407315+306469857+307359807
4407+307589833+307495403+307599993+308023401+308716093+309662271+310465807
4397+310331297+309059723+307520919+306806881+307329240+308650291+309835393
4387+310180198+309652552+308381594+306326509+304115333+303232342+304308979
4377+306128870+307381946+308199605+309045570+309638635+309539595+308704671
4367+307359161+305908798+304802211+304224473+304028185+303910940+303587394
4357+302991099+302396772+302166951+302386789+302929409+303654311+304300053
4347+304505825+304159612+303577675+303248462+303452003+304205417+305351379
4337+306438381+306837036+306278795+305117565+304061364+303725604+304142082
4327+304588011+304324482+303424403+302499100+302054904+302503828+304140585
4317+306569631+308643273+309388055+308878790+308081891+307844406+308101740
4307+308118623+307487005+306675689+306480780+307178875+308302110+308974953
4297+308463310+306812430+304947174+303803033+303527671+303929204+305227586
4287+307381212+309197844+309265701+307725312+306251840+306095367+306756025
4277+306992364+306705316+306797866+307486271+307986609+307710631+306872359
4267+306068853+305877703+306454765+307117948+306984994+306166718+305699883
4257+306345507+307894000+309410194+309928267+309139501+307694452+306824851
4247+307317231+308731067+309851161+309983410+309514284+309163637+309285198
4237+309817687+310361981+310414012+309773820+308608332+307259681+306192440
4227+305812165+306033735+306269810+306099595+305767945+305831662+306424345
4217+307011215+306927678+306084621+304975597+304127724+303852068+304352377
4207+305639044+307298468+308559355+308775699+308098011+307566872+307928383
4197+308495844+308205360+307537392+307832838+308971371+309497136+308876676
4187+307874268+307056139+306498133+306443695+307064977+307958245+308476553
4177+308199370+307091286+305686729+304836095+304911880+305573947+306363271
4167+307127050+307838857+308318142+308296149+307790908+307185012+306730978
4157+306346153+306153035+306640982+307912234+309205331+309584608+308972457
4147+308130868+307617316+307187860+306536481+306122440+306511552+307368968
4137+308041723+308667674+309638723+310352291+309672167+307605131+305557974
4127+304769472+305152389+305768356+305976449+305895438+305949670+306319169
4117+306847283+307275213+307474409+307461783+307190179+306503977+305455998
4107+304504122+304200837+304862815+306498574+308599318+310023402+309723257
4097+307882020+305861700+304826406+304809581+305107317+305240359+305392516
4087+305993626+307087763+308330650+309473969+310339049+310558857+310052412
4077+309367237+308910972+308379921+307443901+306343393+305548402+305355431
4067+305691926+305923156+305350175+304296588+303907710+304512696+305122615
4057+305018437+304836301+305332969+306009041+305883516+305074696+304662592
4047+305313854+306725488+308115951+308790292+308575417+307968727+307482777
4037+307030036+306354727+305592534+305085618+305079159+305733738+306908534
4027+307939893+308247261+308024311+307897053+308134949+308509967+308726252
4017+308708106+308423553+307688198+306504329+305417826+305040723+305353493
4007+305916314+306539153+307265465+307979827+308471268+308640425+308425697
3997+307862993+307298146+307120913+307252927+307241623+306910795+306655311
3987+306940627+307704934+308493319+309094018+309641101+310134010+310484717
3977+310975218+311843175+312543149+312259184+310937575+309191472+307651553
3967+306922422+307504212+309099098+310435329+310472179+309627976+309106262
3957+309267991+309541445+309726370+310419238+312023814+313930765+314853307
3947+314087795+312473295+311616790+312070353+312749685+312424965+311181813
3937+310042605+309912382+311042018+312941158+314619316+315263472+314934406
3927+314452889+314486275+314936080+315386090+315865052+316664301+317595123
3917+317893094+316822917+314342486+311338580+309089819+308394543+309437530
3907+312405086+317334677+322933265+326780229+327848850+327014483+324666154
3897+320774823+316766629+314721586+315205980+316622400+317031245+316920078
3887+318158238+320634177+321979070+321545032+321518841+322305992+321475238
3878+318632297+316700387+317754415+321250790+325560244+328685389+328601823
3868+326135691+324339173+323898030+322616678+319409817+315983324+314154683
3858+314816369+319190567+328103805+336813942+336419015+328333390+320123444
3848+315569812+315229881+318248734+322869724+327199115+330427792+332341085
3838+332113614+329750427+327174803+325751071+324769334+323153895+321332771
3828+320242921+319909098+320466017+323123710+327839424+331003827+330117430
3818+327922109+326847968+325497320+322314596+318860091+317595329+319541009
3808+323519517+326888929+328905432+331339881+334327991+335186317+333175481
3798+330379314+327554930+324301677+321393140+320113872+320608220+322360959
3788+325105330+328200261+330292343+331139482+332493800+335663165+339539609
3778+342352336+344250067+346569914+350195074+355364410+361407018+366608330
3768+369898727+371777930+372894442+373876824+376002380+379863585+383793498
3758+385548058+385777849+387589636+393713637+404044558+413495659+416989773
3748+417530250+420741573+427102941+431333527+430596674+428834745+430581053
3738+438037732+450219639+462025118+467779561+467036513+463828595+461901795
3728+462603237+464959318+466824075+466976466+465723067+463572142+461001745
3718+458983921+458683395+460735191+464268299+466205963+463909841+459417635
3708+456779028+457512739+460653710+463948570+464912690+463225664+461544893
3698+462242753+465139809+468706567+472195190+476058392+480303689+482962380
3688+481977501+478648140+476129802+476268393+478664759+481477075+484002636
3678+487503328+491405964+491791465+488916342+488456025+492097158+493762514
3668+488388051+479974241+474093509+471883419+471515388+471756543+473208374
3658+475931604+477952247+478372161+479766442+484944734+493321195+499638548
3648+498334264+490750562+482137175+475953186+473022187+472106163+471440807
3638+470780649+471218004+473111595+476046441+480858817+488826551+497019232
3628+498818452+494352760+489576588+487637574+488553010+491021402+492746393
3618+492324777+491702584+493603663+497779546+501532315+503175679+503240159
3608+502432219+500615851+498253693+497116070+498605515+501871746+504849227
3598+507348744+510636292+513800108+514125386+512021324+511326489+513989790
3588+517116432+516503048+512540454+508633766+506473446+505918435+506867374
3578+509491388+512996866+515470484+515689059+514605464+514324288+515941988
3568+518536170+519999247+519135049+516650331+514046342+512265092+511313980
3558+510750571+510533347+511207746+512903962+514762260+516337384+518683570
3548+522373562+525206579+524053863+519125829+513913212+511067159+510358288
3538+510071944+509306932+508686854+509151252+510639992+512250469+513371943
3528+514153868+514679340+514290462+512097902+508125677+503847259+501185367
3518+500712454+501227708+501646477+502172419+502914352+502901961+501595445
3508+499994540+499157120+499008839+499018059+498989225+499200165+500193794
3498+502173476+504540979+506384419+507463845+508210534+508685151+508396341
3488+507191360+505894651+505588576+506328512+507009665+506390467+504182521
3478+501146785+498313357+496245764+495026689+494630941+495035909+495940569
3468+496610858+496519423+496064597+496006107+495959420+494295679+490544290
3458+486890208+485989101+488135885+491138089+492572626+491815336+489993214
3448+488543907+487997999+487799802+487152592+486051320+485263699+485244878
3438+485453822+485003165+483969838+483437407+483835475+484181278+483531749
3428+482208702+481062534+480390308+480042656+479809781+479293206+478144043
3418+476828043+476485529+477651839+479481919+480621509+480810105+481083323
3408+482186122+483427776+483452030+481794954+479412770+477832477+477873526
3398+479031086+480043184+480024539+479005100+477707364+476950808+476800119
3388+476589707+476345763+477123812+479181599+481195312+482139435+482538825
3378+483152620+483951575+484661033+485150507+485315348+485076219+484375188
3368+483353078+482849804+484011210+486632699+488606508+488288365+486883807
3358+486951870+489214519+491935811+493091286+492416652+491159582+490580846
3348+491058105+492172884+493231991+493638721+493221597+492599522+492722727
3338+493648529+494462106+494626067+494471091+494204127+493651758+492940539
3328+492233224+491193702+489693187+488564138+488657541+489565020+490183835
3318+490163869+489956305+489743015+489256537+488576412+488259355+488616110
3308+489468035+490544554+491503653+491728922+490886393+489578203+488727629
3298+488554155+488565313+488357103+488079421+488094602+488458081+488877437
3288+489245467+489943943+491160346+492230523+492465541+492395041+493125405
3278+494691310+496075637+496698476+497005902+497552397+498120798+497987551
3268+497192354+496908477+497716769+498430338+497788061+496258155+494897905
3258+493730568+492328329+490932639+490075517+489581463+488702113+487298025
3248+486273977+486426985+487475874+488946233+491004989+493367705+494593944
3238+493829167+492223828+491276093+490820915+489826669+488285488+487191733
3228+487060335+487276267+486928116+485911055+485017054+484942238+485442840
3218+485844109+486084676+486478252+486704989+485945351+483986487+481509697
3208+479300223+477751437+477009357+477113976+477908233+478960381+479771287
3198+480047970+479736727+479021514+478245286+477472052+476288829+474466677
3188+472488023+471039862+470515359+471063088+472296638+473066788+472432675
3178+470707713+468931895+467704863+466919444+466262105+465746762+465629019
3168+465685277+465166412+463899094+462644080+461978930+461735691+461650539
3158+461599830+461181884+459948715+458064227+456224751+455136105+455190748
3148+456163177+457093501+456901939+455343111+453243189+451765842+451436746
3138+451740120+451733337+451118338+450432723+450164114+450138011+450025875
3128+449863647+449635177+449049952+448200082+447598561+447181907+446320967
3118+445076347+444279418+444239191+444391701+444183608+443476147+442240894
3108+440618231+439238778+438900815+439706582+440754033+441055322+440659603
3098+440304228+440151777+439721322+438921721+438226181+437890303+437740612
3088+437629093+437593359+437657282+437736707+437651409+437196994+436440615
3078+435827349+435587574+435203541+434021082+432321137+431155414+431146752
3068+431959214+432849457+433306045+433212731+432807733+432509850+432540181
3058+432733651+432815338+432733945+432589187+432305105+431536657+430045627
3048+428174410+426755259+426426956+427038901+427787118+428044363+427927442
3038+427802210+427588040+426993037+426106171+425366792+425150537+425599784
3028+426557679+427506441+427878171+427450065+426305630+424680178+423017171
3018+421882720+421524643+421667580+421859670+421770731+421170237+420076159
3008+419064355+418946846+419879313+421045652+421342184+420298052+418462716
2998+416958355+416438315+416503177+416354368+415785909+415100587+414413385
2988+413643382+412924440+412527810+412545868+412898395+413386107+413696763
2978+413661410+413406367+413059654+412567479+411929137+411348728+411102317
2968+411282251+411506874+411091776+409902328+408694000+408200093+408366109
2958+408699902+408813418+408549302+408073276+407786874+407849181+407991589
2948+407871614+407347522+406529129+405754956+405344731+405301657+405424392
2938+405607820+405801965+405806810+405354039+404404131+403289529+402481031
2928+402236177+402575432+403372302+404216505+404478859+403844657+402651804
2918+401544395+400920441+400680666+400411411+399904232+399414200+399259195
2908+399367866+399424536+399233885+398763967+398071245+397371271+396980544
2898+397006119+397220730+397348427+397332572+397232416+396970531+396337827
2888+395384278+394661372+394673528+395172515+395457773+395261190+394854167
2878+394511506+394360876+394473628+394714782+394777383+394533821+394108622
2868+393691263+393474596+393536493+393659874+393528770+393103043+392600972
2858+392268030+392312984+392781846+393302326+393239079+392338765+391078318
2848+390221079+390124300+390543538+390946657+390943750+390569730+390221842
2838+390188868+390273667+390070742+389532439+388987793+388670472+388514145
2828+388369828+388206191+388092969+388042495+387916089+387623638+387358230
2818+387360872+387483901+387294660+386666272+386008433+385776821+385916117
2808+385969058+385675080+385189864+384718654+384298828+383980890+383821217
2798+383619378+383024963+382017475+381070709+380731601+381052416+381459792
2788+381317618+380625161+379952847+379720677+379790120+379745547+379347802
2778+378715480+378248850+378284790+378625014+378638520+378084243+377441615
2768+377155711+377067418+376862145+376589161+376474118+376556216+376666561
2758+376616380+376349445+375902929+375289105+374580028+374002966+373681387
2748+373401474+372909270+372299498+371868338+371709956+371650497+371525236
2738+371360043+371257039+371253457+371330856+371389875+371240185+370842586
2728+370433889+370179551+369934814+369534837+369095926+368863873+368846256
2718+368732916+368284814+367696007+367348942+367345007+367495020+367550281
2708+367320254+366878612+366671283+367077485+367899284+368503565+368405524
2698+367653901+366729480+366071788+365739081+365566106+365445544+365352963
2688+365342921+365503681+365642537+365238420+364075399+362677448+361790111
2678+361642711+361900603+362176288+362419821+362783623+363217190+363405991
2668+363169241+362693538+362252248+361936630+361767590+361800506+361997793
2658+362202890+362305189+362287748+362140025+361862666+361529842+361284341
2648+361247315+361324539+361140758+360444836+359578964+359186181+359408867
2638+359694741+359477663+358837736+358367318+358441106+358781154+358898781
2628+358764329+358684405+358676917+358453204+357969896+357559555+357515687
2618+357834359+358297935+358614522+358586216+358280728+357960735+357812953
2608+357829015+357890970+357854384+357633284+357346588+357278584+357531278
2598+357835533+357905798+357821057+357802001+357805026+357659417+357442251
2588+357381911+357489407+357549571+357440489+357282313+357259910+357405548
2578+357604303+357747123+357815802+357846104+357851712+357766737+357480569
2568+357016494+356628468+356558585+356723926+356824610+356744509+356633783
2558+356582134+356466534+356218831+356002106+355975680+356081297+356167740
2548+356173906+356152090+356216864+356420111+356620276+356605154+356383437
2538+356204590+356256856+356448740+356519445+356339922+356065470+355936833
2528+355999963+356139141+356293441+356457314+356516978+356308446+355877785
2518+355494868+355335782+355318340+355317489+355339511+355404549+355477104
2508+355564252+355707042+355897282+356122992+356390162+356606916+356609647
2498+356411831+356296671+356517066+356921301+357053902+356736052+356318987
2488+356202594+356400526+356728330+357055781+357241499+357186973+357041305
2478+357053109+357219419+357305686+357166155+356897635+356699966+356634223
2468+356570477+356398001+356161603+355920331+355656303+355428743+355435908
2458+355792692+356331290+356701581+356680322+356359536+356002899+355764798
2448+355650313+355694386+356001372+356570066+357186415+357549894+357506702
2438+357163659+356784324+356573413+356532129+356488585+356298785+356057073
2428+356024245+356270157+356517947+356482830+356265840+356256621+356678149
2418+357350992+357925676+358267662+358499509+358683113+358688603+358471996
2408+358266840+358334814+358650696+358970807+359141814+359250485+359509669
2398+360061185+360858555+361690748+362361741+362986165+364159845+366734560
2388+371397245+378525944+388364866+401157191+417099765+436262883+458503285
2378+483357893+510088916+537893844+565960921+593287358+618680446+641189603
2368+660192636+674872680+683934962+686520100+684133923+679344538+672437996
2358+661721721+646115406+624909653+597556086+567574922+542578639+528374681
2348+526781468+536945257+555121970+574488923+589246189+598209402+603050818
2338+605971393+608496867+610842700+612670284+613693099+613174615+610272949
2328+605215131+599020925+592280516+585028200+577290228+569056498+560158763
2318+550584281+540690862+530990473+521807334+513017302+504047453+494380420
2308+484181484+474241760+465210455+457092767+449582736+442562179+436033268
2298+429895760+424116770+418876405+414339538+410512717+407325206+404541196
2288+401737278+398737540+395900971+393689971+392148055+390978104+389962483
2278+389152340+388661046+388399162+388160914+387881265+387569376+387096374
2268+386342315+385447990+384676225+384131960+383721883+383242011+382532083
2258+381735712+381256721+381226888+381247912+380923221+380378075+379960951
2248+379739822+379628772+379724113+380144966+380700594+381005553+380887574
2238+380529821+380211707+380022113+379879587+379716625+379494145+379138271
2228+378645391+378127260+377610684+376992309+376308778+375805563+375611916
2218+375551224+375374755+375058403+374795109+374760344+374929883+375103798
2208+375104678+374974925+374976658+375342075+375996860+376595503+376872774
2198+376880819+376845760+376934200+377240099+377819423+378567962+379189450
2188+379458470+379457236+379456267+379634997+379976954+380376431+380784277
2178+381219489+381676165+382114254+382516345+382841153+382969791+382833490
2168+382556366+382380748+382474327+382803452+383170484+383413958+383555251
2158+383688292+383815784+383911741+384051830+384331068+384683419+384922136
2148+384980597+384998449+385139683+385457592+385951705+386575130+387203812
2138+387808916+388582531+389696693+391080344+392584294+394159830+395749754
2128+397217030+398519112+399826597+401344289+403029964+404615601+405962138
2118+407221586+408547129+409844836+410937270+411766116+412321744+412551183
2108+412408745+411897602+411084406+410157548+409356713+408706333+407940117
2098+406847566+405604061+404578016+403886528+403328493+402693645+401977375
2088+401322972+400870054+400657352+400596396+400522314+400338651+400153696
2078+400200735+400540254+400919178+401058650+401021536+401149028+401663049
2068+402441245+403168056+403642173+403895924+404033194+404081554+404073597
2058+404140221+404419136+404928605+405574464+406234211+406833237+407404955
2048+408097207+409070575+410329348+411615663+412520558+412821348+412752669
2038+412861281+413536062+414705337+415993179+417113037+418052463+418928906
2028+419836708+420874087+422100208+423372546+424494959+425634579+427221360
2018+429266609+431181811+432503478+433416154+434366796+435596676+437168982
2008+439042460+440983442+442704381+444201431+445730839+447368153+448815110
1998+449829381+450723941+452136573+454225895+456376027+457935237+458975288
1988+459928631+460894542+461778619+462689357+463764643+464965542+466338300
1978+468113560+470346025+472722131+474812774+476483797+478151502+480463245
1968+483484358+486478105+488794546+490540179+492084121+493539652+495013300
1958+496808527+499082598+501589396+503949206+506077756+508237313+510681511
1948+513412698+516428996+519932418+523818493+527183266+529158602+530167969
1938+531435433+533506257+535932308+538211841+540491667+543151444+546131097
1928+549130012+552219658+555546259+558579117+560725285+562578297+565139005
1918+568021292+569890160+570493325+570688292+570983327+571412902+572140506
1908+573310368+574800988+576550702+578613187+580745026+582458859+583615156
1898+584541428+585443386+586148851+586649248+587428530+588854552+590582714
1888+591952595+592672917+592735107+592204408+591437047+590905467+590692178
1878+590620357+590711087+591135083+592127713+594190432+597582982+601037780
1868+602011677+599712472+596242405+593708945+592352689+591336862+590071042
1858+588698989+587795914+587663489+587874136+587723447+586973528+585982013
1848+585570174+586556462+588319155+588231420+584938233+580780496+578389092
1838+577884232+577713401+576874043+576114375+576806920+578789832+579900265
1828+578641023+575950884+573014042+569884639+566698391+564096282+562248203
1818+560744840+559456998+558858707+559412602+560834631+562004728+561879057
1808+560605250+559380773+559391226+560986964+563335263+564856713+564675546
1798+563580029+563149927+564503247+567568228+570330598+570088239+567270374
1788+565031597+565228972+567193738+569519193+571856276+574245625+576034450
1778+576893128+577952353+580829649+585743765+590430029+592046203+590773982
1768+588743326+587387364+587650511+590053718+593440454+595511689+595951657
1758+596357213+597123810+597747882+599111538+602710329+608055665+612339250
1748+613684408+613165865+612773581+613570598+615528963+617725106+618974130
1738+619658160+622052618+627323372+632423765+633050773+630418127+627640253
1728+625630210+624735650+625286903+626775995+628955871+633203752+640804014
1718+649601681+653846508+651372243+646302035+642389298+640823393+641897534
1708+645621058+650792626+654932335+657307296+660206965+665151913+669810282
1698+671605861+671174701+668647466+664153997+660405867+659822727+662392185
1688+667206117+674520975+683903485+689921164+687748864+681739759+677340896
1678+676216310+677975890+681050032+683889802+686789824+690368885+692971640
1668+692557217+690747661+690603256+692606252+694575423+694496790+693218873
1658+693369561+697329513+706523398+718630636+724102054+720599806+717668601
1648+719540346+722900714+722073219+717300512+713154402+712399726+715671066
1638+722291911+729510753+732209290+728772990+724170057+722734933+725276556
1628+730443660+736440375+742486007+748229557+753000326+757337175+763341876
1618+771903586+779898421+782575817+780804844+779010968+779440424+781722130
1608+784103198+785038395+784506992+783762827+783849682+784675591+785596284
1598+786506699+787930959+790182714+792817299+794943030+795984638+796235746
1588+796797158+798735204+802017761+805481838+807893032+809142350+810667147
1578+814113430+818725524+821083337+820769804+821567760+825464641+830569438
1568+833910779+835113822+835297162+835702541+838776918+847821524+862624009
1558+872447134+869657574+862708514+858125020+856396505+855887769+855057455
1548+854104582+854840936+858457932+864409428+871594386+878161967+879410992
1538+873994893+867537950+863319843+860032822+855918424+852377711+851763270
1528+854033407+857483918+861258239+865661565+869802272+871902458+872900433
1518+874834016+876544972+876068770+874749216+875550403+879891657+887904756
1508+898511802+905706098+902577283+894819755+891123890+894098963+901896776
1498+908882773+909439194+904934685+901827011+903785434+909952158+916439403
1488+919868714+921017494+921913640+922328004+921436263+920135209+920071844
1478+921704754+924556974+928801331+934890655+940415454+941125206+937631825
1468+934214788+932895469+932436004+931167777+930049063+931433801+936549874
1458+943837836+947610924+944139213+937213879+930514519+924930525+921106874
1448+919178165+917465213+914446214+910906088+908316957+907264779+908254415
1438+912247839+918423783+922556327+922133741+919778160+918849481+920019226
1428+921698882+922314380+921567749+920221887+919407487+920196811+923136649
1418+926764862+927809464+924946968+920137205+916382146+915326503+916631258
1408+919171353+921626885+922461486+921547489+921162369+923254216+926973865
1398+930123703+931869718+931959567+929295209+924359070+920023631+917841934
1388+916497188+914886359+914651693+917554181+922764390+928245968+933072173
1378+937677690+942905516+949331804+956027935+960146150+959944782+957443562
1368+956483994+959146414+964491045+969765440+972503498+972491225+971188937
1358+969501647+967513215+965717284+965659792+969110009+975669075+981647761
1348+983555739+982317168+981650638+983608063+987733267+992691428+996881934
1338+999391728+1001162172+1003616882+1006893743+1010915825+1016164793
1330+1022406449+1028190167+1032579282+1036767204+1042236508+1047350408
1321+1048230345+1044459841+1040732676+1041118265+1045324039+1050788763
1312+1055027541+1056474528+1056792348+1060110551+1067170484+1073105125
1304+1073741823+1071401275+1070631389+1071599179+1071184345+1067725318
1295+1061633763+1054897406+1049989397+1047704285+1046518625+1044282373
1287+1040681350+1037752846+1037581839+1039851564+1042155233+1041914460
1278+1038361826+1033722542+1031006271+1030639239+1031169997+1031734110
1270+1031493102+1028106191+1020390299+1011702389+1006417952+1003883259
1261+999919901+993783010+988862903+987017878+986293328+983511167+977624034
1251+970450292+964612195+961323354+959839605+958171225+953961340+945919758
1241+935383359+925068470+915666169+905325970+893246627+881636614+873110258
1231+868050502+864875941+861542762+856995853+852071929+848405369+846454051
1221+845467645+844561223+842960612+840279634+837194452+834928838+834083137
1211+834589230+836204523+838697698+842060004+846259260+850506964+853719286
1201+856022661+858538386+862008100+866613205+871892123+876104357+877498550
1191+876987994+877468130+880028427+882898323+884699070+886533407+889901703
1181+894785988+900233446+905662171+910613344+914059157+915530397+916288831
1171+918607710+923644503+930333704+937334500+945517550+955924226+965836965
1161+970778566+970579488+969577344+971221881+975062445+977927114+977194988
1151+973982431+972985925+977260408+984235424+988161256+986047622+981079478
1141+978403257+979075601+980332436+980838411+982877875+987589861+991548990
1131+991349089+988891561+988533221+991139441+994650498+998167427+1002932617
1121+1009348452+1014034011+1013681190+1011067806+1011293545+1014103541
1113+1014897857+1012233734+1009515819+1009588638+1012049220+1015187020
1104+1018507337+1022379553+1026320595+1029515711+1031702751+1032410389
1095+1030874844+1028148825+1027379526+1029000809+1028674650+1023544777
1087+1016734896+1013482230+1015570494+1020553202+1024658087+1025620122
1078+1023310111+1018883648+1014457419+1012495296+1013677667+1014624081
1070+1011114316+1004754504+1000737942+999455738+996727957+991948555+988697416
1060+987793402+986247287+982517127+978860843+977916133+978413123+976619365
1050+971955534+968201767+968581190+972327264+977235391+982922800+989355607
1040+994570749+996293509+994857092+992836127+991567195+989942741+987661740
1030+987020814+988054728+986591651+981314965+975839730+972939062+971920123
1020+971692916+973090573+977011179+982676625+987657042+989011713+985413273
1010+978365967+971143249+965749935+961572231+957186464+951780876+945578448
1000+940188775+937083803+934959539+930434594+922492023+914250777+909150736
990+907100525+904781706+899373417+891873634+885872515+883375289+883146202
980+882702123+880468455+876542094+872022199+867975687+865151420+863596966
970+862126020+859089110+854493400+850470143+849110422+850396502+852192727
960+852292795+850483004+848046382+845688804+843621387+843292409+846478774
950+852417351+857901629+860844814+862222740+863852244+866260679+869321549
940+873177615+878181288+884502869+891070509+895627225+897777680+900550092
930+906687218+915274473+923550132+929632350+931872948+929134714+923536273
920+919800593+920772435+925059191+929027482+930302580+928970636+926313501
910+923648673+922142080+922273918+923197077+923881400+923899429+923015323
900+921468562+920243791+920638424+923468622+928440876+934114074+939144114
890+943907425+949552435+955308963+958665984+958449934+956091534+953315481
880+950332128+947743878+948421800+954722887+963847476+969317074+968667985
870+965895397+964482941+962974351+959218059+954799993+953441035+956848266
860+962726708+967262517+969617805+971768906+974655832+976521881+975049878
850+970462566+965066786+960550296+957540282+956702393+958125596+960872815
840+964473427+968870469+973121874+975568244+976042508+976516537+977843255
830+978370019+976089429+972377826+971828159+976986455+986169887+994701001
820+997958013+996046863+993976921+996074699+1002283704+1009503839+1015189838
810+1018559955+1020646693+1023972765+1029765292+1036999403+1041584894
801+1040059451+1035189378+1031577666+1028772486+1022398580+1012730548
793+1005214087+1002759730+1002651676+1000552018+997021348+993885309+990021667
783+985225353+982077746+981422021+979739665+973621683+964377294+956028346
773+951150169+949319179+948975930+949085453+948588873+947011576+945710403
763+947469220+954192658+965024151+976502795+983864927+984906534+983835858
753+985564667+988607919+988869950+986179166+984704109+986802239+990633465
743+993663446+995319142+996109699+994775699+988431156+977827047+969969862
733+971830508+983327710+996807471+1002736592+999148019+993412925+993504653
723+1000982473+1011008728+1016628838+1014131964+1006742584+1001347039
714+1000438209+1000126614+996117333+990502743+989267284+994167190+1002301909
704+1009026521+1009501020+1001738383+987731858+973594141+965974089+966717313
694+972042036+976032818+975957709+975151648+977054459+980863252+983356779
684+981180779+975594670+969740776+964576783+961099905+960924258+964926726
674+970224670+971804376+967663727+955963631+935783746+917774929+913500563
664+921097184+932904161+940174094+937504979+930311154+927713037+929940422
654+930978095+930031505+931429632+936347507+941656257+945329747+947054562
644+945587903+942246797+940237869+941515493+947867494+954943869+953773595
634+943564294+931368969+924781656+923993037+922392836+915072106+906254355
624+904230453+908513804+908168970+893356384+870928679+856297142+854615431
614+862944061+878457824+899184322+918698851+927016147+924269515+918345561
604+916134796+920143782+924803678+925626006
##END=
