##TITLE=<SNM>
##JCAMP-DX=4.24
##DATA TYPE=INFRARED SPECTRUM
##DATE=29/4/2025
##SAMPLING PROCEDURE=Instrument type and / or accessory
##ORIGIN=Admin
##XUNITS=1/CM
##YUNITS=ABSORBANCE
##RESOLUTION=4
##FIRSTX=4497.3318
##LASTX=599.83466
##DELTAX=-1.4281778
##MAXY=2.0778465
##MINY=0.5126875
##XFACTOR=1
##YFACTOR=1.9351454e-09
##NPOINTS=2730
##FIRSTY=0.52523929
##XYDATA=(X++(Y..Y))
4497+271421101+272061672+272997779+274056013+274169361+273119259+272014885
4487+271773404+272247248+272823260+272930818+272193901+270854083+269784175
4477+269628198+270291593+271406285+272653854+273482404+273200235+271694584
4467+269709575+268281635+268131171+269298411+270973807+272062996+272262895
4457+272161005+272161252+272091487+271929720+272035183+272501142+272756114
4447+272057575+270321347+268344377+267203750+267412304+268704904+270481759
4437+272059238+272794831+272655425+272316612+272113017+271555671+270427826
4427+269571463+269986169+271566728+273047954+273073088+271394458+269078676
4417+267484779+267153821+267662286+268247877+268429234+268267805+268093810
4407+267998911+267840409+267511545+266978748+266510879+266784485+268007813
4397+269252486+269657275+269757317+270433370+271463575+272260647+272960263
4387+273703402+273832520+272775826+270908077+268886045+267018081+265645860
4377+265311421+266203483+267795408+269181921+269715335+269398083+268785202
4367+268560970+269013223+269637192+269439233+267996109+266079940+264934878
4357+265161174+266529698+268391718+269889854+270329817+269813282+269119579
4347+268792318+268693846+268460836+268079333+267883407+268031191+268159663
4337+267773324+266871560+265920452+265361935+265402439+266001089+266816210
4327+267480221+268052721+268735428+269182198+268823180+267817924+266937474
4317+266615910+266797760+267371523+268049025+268203831+267534831+266596999
4307+266154109+266314337+266570479+266489071+266314029+266831949+268359007
4297+270052515+270770458+270362713+269493936+268716208+268422365+269025420
4287+270384859+271539439+271643947+270768764+269490425+268299500+267560827
4277+267414152+267607830+267891939+268380260+269025020+269166921+268295465
4267+266931252+266131409+266411453+267506340+268814587+269765725+270115318
4257+270142977+270266428+270448063+270308503+269737542+269126602+268947155
4247+269227938+269608948+269904546+270364314+271144691+271796998+271717962
4237+270875428+269785222+269090996+269266809+270233841+271186581+271201427
4227+270087443+268440846+267014138+266335682+266733047+268240269+270357754
4217+272131744+272751216+272208131+271338153+271098705+271730036+272658720
4207+273287803+273602682+273712488+273274866+272059670+270688989+270077340
4197+270336686+270779359+270943160+271093931+271592324+272242259+272576112
4187+272498401+272292526+272189465+272225780+272321171+272313101+272178777
4177+272215893+272644891+273124187+273031352+272239548+271288871+270709102
4167+270554111+270707162+271150574+271762192+272265051+272456881+272233326
4157+271634737+271084598+271098675+271603043+272068571+272248419+272275986
4147+272300411+272353574+272288460+271768722+270706238+269654687+269375660
4137+270037360+271014742+271525948+271284036+270471903+269630416+269663681
4127+271155841+273379836+274703699+274337597+273091384+272233603+272166765
4117+272352835+272257782+272084464+272391983+273173623+273707683+273391818
4107+272420720+271524562+271197361+271304672+271446204+271472354+271522775
4097+271800601+272422322+273335791+274249167+274643083+274007594+272393369
4087+270786197+270408421+271411768+272707078+273241940+272996978+272587015
4077+272406798+272485064+272775210+273161395+273294178+272779769+271641945
4067+270495897+270178430+271038828+272502097+273516470+273585495+273150183
4057+272860653+272779461+272570383+272236745+272128695+272300904+272490146
4047+272721955+273163150+273429611+272979237+272067462+271409673+271204168
4037+271205708+271350289+271733147+272234743+272499787+272258244+271663783
4027+271268050+271526163+272340483+273159947+273520505+273464355+273403399
4017+273576902+273804830+273904564+274021978+274326755+274710537+274982973
4007+275086249+275019226+274870980+274972932+275654283+276711686+277395594
3997+277180417+276350358+275559200+275078918+274806144+274747622+275036136
3987+275537054+275856986+275778905+275434979+275100479+275046393+275470185
3977+276270121+276955200+277024132+276498635+275926873+275744839+275814110
3967+275812478+275853567+276382576+277530441+278801757+279378324+278777579
3957+277393253+276238765+276053404+276888207+278449423+280219441+281300036
3947+281083042+280168465+279716150+279958894+280104121+279671458+279036955
3937+278663676+278783369+279682639+281319195+282677401+282664865+281723521
3927+281296125+281919478+282707555+282688458+282178176+282295867+283476197
3917+284845861+285096952+283966274+282372593+281199717+280594383+280584372
3907+281826489+284950308+289145574+292379384+293644879+293486469+292062317
3897+289133285+285845296+284365364+285626854+287846660+288152115+286637131
3887+286052218+287712675+290152617+291745281+292539088+292308942+290365237
3878+288012186+287791896+290431983+294199176+297361804+299498970+300022466
3868+298646580+296852908+296206238+296268549+295620617+294217379+293074319
3858+293070623+295266434+300618529+306357671+306071868+300046029+293580196
3848+289668393+288788959+290165245+292527999+294945764+297390018+300038144
3838+302104406+302447870+301305949+299754558+298153362+296398129+294944994
3828+294354229+294389219+294889983+296800145+300386628+303058286+302681896
3818+301128504+300215435+298799323+295922344+293179474+292637836+295135869
3808+299507502+302886570+304237199+305795736+308696678+310369302+309103653
3798+306994700+305675119+304603332+303432366+302943552+303705602+305616720
3788+308480639+311852776+314817969+317102118+319699792+323288770+326923086
3778+329507054+331601314+334473550+338775018+344561070+351240201+357593117
3768+362840611+366814633+369157643+370374965+372587872+377311223+383326189
3758+388163782+391489872+395216992+401377986+410603291+420813431+428477089
3748+433138099+437352370+442887732+448179272+450877912+452361047+455322051
3738+460644978+466770427+471123149+472553245+471657025+469746770+468186663
3728+468005953+469701831+472801718+475696807+476696273+475458930+473135325
3718+471152995+470478143+471780784+475049091+478709496+480451884+479766282
3708+477882147+476261823+476504752+479440529+483455579+485441604+484641607
3698+483113809+482798776+484670036+489252811+496372891+504106189+508769109
3688+508489959+505673227+503193029+501867810+501630149+502563515+505194978
3678+510296044+516652410+519359551+516198802+511443663+508855599+508052552
3668+507121989+505577744+503769472+501997452+500698169+500513454+502226027
3658+505976926+509763000+510815967+509943371+511151792+516725008+523327413
3648+525011803+521537128+516925030+513849415+512507842+511755586+510706654
3638+509712455+509805351+511488017+514400663+518006458+522097154+526156188
3628+529137490+530670954+530778758+529894396+529658829+531765071+535842832
3618+539802439+542292525+543368654+543339147+542553657+541873321+542206651
3608+543492536+544502567+544192153+543127666+543088857+545217953+548642237
3598+551565756+553682471+556082124+558561738+559402855+558349210+557160595
3588+557042318+557174270+556714348+556858805+559396202+563972570+567784702
3578+568605983+566907116+564293025+562132820+561987007+564977734+570050309
3568+574015892+574630374+573201756+572303473+572220310+571334593+568883747
3558+566065260+564782332+566010126+569092949+572178605+574166016+575956793
3548+578976412+583245694+587149366+588704083+587281688+584179460+580957663
3538+577968415+575434530+574494972+575882932+578945857+582660965+586117960
3528+587956417+587009467+583394278+578366488+573349109+569043359+565885566
3518+564847569+566434011+569656917+573300874+576974278+579952007+580897047
3508+579804592+578550864+578896329+580808586+582598808+582695647+581277564
3498+579700300+578900395+579139535+580522012+582848544+585673376+588837637
3488+592000419+593633002+592080194+588163955+584940063+584050280+583891531
3478+582360716+579873525+578334455+578693966+580484620+582294001+582500430
3468+581073291+580056915+580856636+582216320+581969788+579636172+576414375
3458+573560774+571357016+569215783+566614691+563935301+562294402+562566561
3448+564659435+567563919+570101069+571416770+570721157+568320641+566345735
3438+566109614+566055465+564495327+562717856+562935990+564841162+566080291
3428+565011800+562097583+559166487+557787090+557894154+558021671+557405464
3418+556867676+557231253+558072739+558345083+557444088+555471030+553206840
3408+551929764+552258781+553359552+553948839+553713580+553120782+552143092
3398+550394513+548279954+546630370+545487833+544378931+543643770+544375851
3388+546738913+549121811+549807628+549275508+549433148+550611599+550987311
3378+549426742+547512822+547661037+550150014+552956304+554302620+554250382
3368+553599739+552745377+551971653+551756970+552029991+551798551+550373260
3358+548484967+547557730+548292583+550208967+552081059+552791641+552330425
3348+551812104+551952433+552352971+552769094+553926908+556277280+558479745
3338+558445864+556153953+554044815+554142701+555901507+557279734+557320453
3328+557098993+558040891+560053806+561744787+562089513+561384907+560510956
3318+559998856+559980807+560289989+560573544+560744182+561122420+561890723
3308+562929460+564119061+564973360+564683830+563338314+562231938+562461960
3298+563831748+565465809+566937733+568215856+569185475+569710141+569649463
3288+569011818+568384276+568581896+569652913+570885943+571714432+571977905
3278+571710058+571288822+571408515+572381892+573551596+573688414+572232507
3268+569995237+568390991+568182344+569123380+570567583+571996201+573002720
3258+573383853+573440958+573999937+575626852+577511880+577723299+575355864
3248+572052320+570259510+570622902+571919198+572980481+573625210+573812727
3238+573242414+572138317+571225926+570662943+569971027+568861078+567258434
3228+565072848+562695618+561158457+561051084+561873905+563037387+564529023
3218+566106780+566825185+566003473+564243928+563005354+563167676+564246947
3208+564953648+564444628+563069420+561871749+561533183+561832447+561721871
3198+560057009+557091415+554914454+555351152+557792634+559871833+560122430
3188+559192175+558318717+557748403+557049403+556051508+554863078+553484851
3178+552002762+550620716+549255980+547898020+547152941+547384812+547903626
3168+548016050+548028432+548195498+547734282+545899890+543134134+540471378
3158+538565774+537696690+537972791+538857522+539100789+538070738+536573065
3148+535486340+534517398+533174408+531915566+531480100+531893327+532603478
3138+532941305+532375919+530922106+529299627+528358652+528259042+528343745
3128+527902057+526924552+526045550+525802344+526057070+526224628+526129452
3118+526178672+526262082+525486325+523761277+522314117+521907050+521974504
3108+521825365+521294169+520230052+518702378+517490908+517312755+517789371
3098+517657173+516127035+513979858+512831099+513324749+514673068+515763243
3088+515995052+515381155+514505695+514020084+513830627+513324564+512472143
3078+511951265+512108351+512519639+512664743+512463858+512132715+511962477
3068+512154152+512372224+511703008+509724314+507311939+505920622+506373213
3058+508507947+511315438+513180292+512931542+511050949+509098866+507983527
3048+507476664+507101106+506657446+505981238+505000592+504035809+503446984
3038+503037976+502235299+500898006+499641598+499214571+499665068+500176151
3028+499833335+498537686+496996521+495828327+495032056+494459433+494215642
3018+494289934+494299883+493899900+493137849+492257183+491478500+490923618
3008+490481714+489986833+489596521+489617219+489968414+490207523+490042152
2998+489512773+488743885+487739891+486473226+485117422+484031252+483408638
2988+483093758+482799823+482455620+482284458+482377755+482283380+481494133
2978+480314788+479578765+479549535+479704279+479427839+478538549+477373651
2968+476529023+476370736+476830627+477599824+478202016+478075362+477052827
2958+475715627+475017643+475352790+475993699+475789026+474390039+472488778
2948+471134237+471102697+472411498+474025354+474542751+473586592+472061936
2938+470917213+470249752+469724871+469290575+469072718+468905715+468462055
2928+467786156+467175462+466566555+465642613+464444881+463297940+462331462
2918+461613396+461432224+461904251+462554586+462695439+462140249+461320477
2908+460736057+460460263+460211175+459764250+459149799+458592884+458362307
2898+458464844+458476486+458052263+457463284+457012910+456334546+455059872
2888+453724058+453218889+453598698+454064072+454018794+453655526+453432187
2878+453334732+452943034+452055654+450935079+450053920+449788630+450081949
2868+450286746+449756474+448634451+447607202+447037659+446804618+446703097
2858+446529810+446093481+445587265+445582214+446252138+447002114+447187229
2848+446741383+445833150+444530448+443091974+442026132+441664558+441903143
2838+442325796+442476906+442135969+441400469+440507606+439680781+438989357
2828+438155140+436877355+435571018+435198448+436033651+437136115+437446190
2818+436981740+436499487+436310923+436011936+435273510+434352895+433759296
2808+433682263+433738167+433318871+432372383+431509120+431022031+430438905
2798+429448248+428480816+427963973+427700747+427292139+426729557+426355508
2788+426421361+426769998+426978060+426799075+426283926+425555695+424765739
2778+424135794+423757557+423455336+423050825+422611077+422235180+421772979
2768+421041914+420260120+419896205+420025262+420180376+419930025+419278242
2758+418405492+417383388+416296971+415347003+414705754+414428267+414469202
2748+414640425+414641750+414298625+413717808+413184980+412998571+413261705
2738+413677089+413732624+413199056+412258082+411210104+410289490+409577183
2728+408916807+408162457+407504976+407269409+407491762+407865164+407950145
2718+407479842+406675779+406095455+406027107+406241083+406293722+405841685
2708+404869940+403814509+403222481+403210191+403434054+403495348+403163805
2698+402393592+401441067+400856339+401033599+401735064+402239863+402024440
2688+401179412+400176712+399454795+399174721+399184177+399241190+399242483
2678+399142010+398809974+398171836+397394016+396792932+396586780+396719810
2668+396851207+396626883+396020286+395293995+394668856+394188635+393853242
2658+393681957+393611145+393510888+393408197+393515231+393853673+394033398
2648+393667327+392838160+391909691+391110372+390538703+390322387+390482922
2638+390776025+390852197+390529924+389923728+389409380+389344975+389661086
2628+389860092+389573950+388965166+388477707+388330509+388283044+387916727
2618+387225211+386717916+386756849+387099696+387321680+387310191+387110353
2608+386756202+386417113+386271762+386211946+386027109+385730278+385365901
2598+384825311+384204360+383892745+383956719+383939778+383601151+383303212
2588+383383510+383692599+383949481+384062120+383987828+383718010+383434609
2578+383331333+383315501+383130725+382728986+382369599+382362453+382745465
2568+383191742+383279556+382904892+382386170+382107882+382126763+382233304
2558+382291303+382308305+382263797+382103539+381846996+381584417+381475720
2548+381718802+382298325+382837160+382899378+382377484+381524324+380773146
2538+380494458+380706308+381072225+381317956+381510094+381826236+382231733
2528+382518954+382598667+382610125+382657928+382584622+382221076+381725024
2518+381416150+381425914+381684828+382021608+382154238+381851894+381204793
2508+380565916+380243213+380335462+380737386+381187175+381408727+381314168
2498+381051896+380830929+380744994+380795292+380971136+381204793+381374107
2488+381467157+381614972+381894861+382236569+382523605+382663842+382613975
2478+382417525+382177277+382022409+382091619+382396981+382771954+383106824
2468+383428973+383628071+383469846+383014420+382633749+382552681+382684048
2458+382854686+382939266+382879820+382758925+382730095+382760989+382605166
2448+382171301+381784347+381842746+382273284+382608831+382603841+382479497
2438+382517568+382672990+382687343+382436622+382097779+382023949+382425965
2428+383103651+383556366+383494949+383191588+383169566+383608636+384210520
2418+384595257+384689755+384731860+384955137+385298878+385490522+385398088
2408+385176474+385081545+385257050+385651520+386036657+386191956+386170919
2398+386299822+386816203+387582103+388246237+388641600+388910617+389216626
2388+389434729+389229871+388425869+387159111+385569527+383491006+380711575
2378+377486821+374451555+371905473+369414679+366324248+362602303+358980892
2368+356275691+354777617+354286740+354333927+354334327+354122169+354418630
2358+356208760+359703363+364386180+369782906+375433064+380343779+383282606
2348+383606418+381782992+379388451+377995224+377696453+377627736+377523536
2338+377801300+378655169+379670435+380272782+380379323+380449858+380876176
2328+381544067+382081208+382345697+382600084+383292616+384674724+386589938
2318+388583694+390202047+391302109+392149632+393102311+394206747+395268092
2308+396223142+397177299+398085131+398710702+399029524+399396612+400083539
2298+400804531+401016720+400687579+400429096+400776133+401589128+402319453
2288+402723595+403103558+403780505+404499434+404630585+404015178+403267204
2278+403023690+403235078+403446651+403462175+403434392+403512319+403610606
2268+403440399+402795331+401891688+401269413+401264946+401691911+402029861
2258+401879028+401328982+400852088+400750783+400899707+401111526+401419691
2248+401874993+402398643+402930301+403449639+403874848+404195550+404589650
2238+405130487+405522554+405431660+404962128+404499464+404211073+404009295
2228+403843185+403692413+403401712+402815044+401998136+401177440+400544570
2218+400171691+400018825+399998589+400066444+400213797+400382556+400471879
2208+400468522+400506838+400705968+400994081+401231866+401440482+401725916
2198+402066915+402363900+402611140+402899469+403337400+403982468+404741992
2188+405386105+405760462+405951922+406202520+406669557+407252037+407688489
2178+407864579+407900308+407879271+407741436+407553149+407593745+408023605
2168+408672800+409259623+409678334+410008029+410329593+410580437+410643333
2158+410595160+410675890+410918202+411083943+411087762+411162886+411486883
2148+411942617+412324858+412552571+412648886+412665272+412655016+412683568
2138+412819278+413056323+413321891+413630918+414057791+414500218+414748937
2128+414838784+415036928+415492353+416146107+416884625+417590556+418154525
2118+418529528+418731738+418875055+419220090+419974193+421012653+421962960
2108+422536693+422719097+422751869+422933165+423335396+423815863+424314348
2098+424889898+425474319+425905965+426211759+426567666+426976150+427229705
2088+427232878+427154150+427163698+427209715+427191851+427163144+427197210
2078+427264202+427380446+427653313+428087085+428548825+428939475+429266060
2068+429611279+430065564+430570364+430894792+430911394+430784062+430805407
2058+431165719+431847163+432629172+433320596+434053508+435092492+436326970
2048+437325943+437912488+438272030+438538860+438757271+439161351+439970773
2038+440988843+441846592+442532164+443322058+444304244+445258063+445957587
2028+446458259+447081150+448116561+449587899+451358871+453328141+455360707
2018+457160478+458445531+459278455+460112272+461421228+463250260+465173882
2008+466785581+468139075+469573945+471238438+472961976+474503326+475759518
1998+476801767+477882486+479340303+481263925+483264273+484811752+485762120
1988+486325319+486773321+487454211+488717858+490508327+492344351+493954572
1978+495631323+497739598+500172702+502534470+504675179+506785733+508996668
1968+511122623+512941706+514605706+516519349+518796753+521099814+523161148
1958+525242195+527784581+530777772+533744228+536201911+538007288+539473791
1948+541265554+543955785+547553048+551405282+554572931+556617694+558101939
1938+559958445+562483521+565212624+567635624+569756220+571890245+574113654
1928+576236468+578409671+581180602+584596138+587985185+591021436+593902573
1918+596158509+596869029+596447670+596470278+597839695+600252039+602878697
1908+604988451+606297745+607054097+607666731+608346758+609163542+610173696
1898+611387876+612697540+613908701+615074647+616650494+618720637+620343548
1888+620659875+620300550+620416978+621121831+621809866+622117384+621995350
1878+621550644+621168956+621350991+622389358+624388413+627176653+629751750
1868+630388717+628392189+625111253+622409441+621081235+620784066+620750985
1858+620336957+619315468+617994347+616797538+615739335+614607024+613484139
1848+612837438+613100049+613948065+614012008+612325893+609652602+607113913
1838+604889517+602801448+601214697+600855987+601924910+603398127+603487512
1828+601716201+599463654+597617003+595533000+592672192+589690150+587437048
1818+586066460+585365796+585322059+585981634+586917310+587308485+586843018
1808+586111491+585776622+586002825+586782401+588043461+589282713+589737276
1798+589278031+588817062+589641977+592177156+594918332+595507127+593925243
1788+592288594+591929885+592697818+594045121+595692180+597301169+598545226
1778+599785772+601912281+605450344+610032750+614246590+616555749+616971010
1768+616543244+616111166+616409198+617829191+619553006+620289708+620409524
1758+621252489+622731497+623941858+625276779+627939043+631890149+635380593
1748+636906665+636802250+636427893+636940608+638679701+640975001+642659391
1738+643711002+645904104+650649201+655959314+657629228+655525388+652532320
1728+650430451+649893526+650855938+652511006+654405706+657511444+663218522
1718+670846666+676208833+675932485+672072612+668378449+666809686+667813988
1708+671074656+675429503+679179108+682019341+685339270+689400706+692077323
1698+692489689+691961203+690380613+687722661+686225172+687528552+690842137
1688+694849609+700150605+707505296+713280321+712679823+708043638+704088774
1678+702937121+704551346+707517555+710569330+714009877+718129896+721116865
1668+721008014+719345740+718975387+720465052+722180551+722724499+722760413
1658+723849972+727388466+734835561+745564330+752125770+750209940+746372921
1648+744629640+743688850+741459034+738704921+736924616+736464632+737717930
1638+741287164+746083822+748124951+745221391+740797549+738306478+738144279
1628+739006526+740029061+741470369+742807014+742356271+740451529+739802488
1618+741792117+744489371+745116174+744449761+744832496+746588036+748471833
1608+749717061+750894772+752806105+755324343+757504569+758530863+758613102
1598+758980189+760872733+764517923+768976693+772945725+775872756+778417790
1588+781608478+785379829+788552160+790456963+791895313+794384413+799012774
1578+805705303+812065735+814060723+811803617+809639962+810006249+811531705
1568+811013384+807655507+803525138+800900205+801315651+805657931+812487525
1558+815103587+809800497+801793007+795707937+792922223+792198335+791229147
1548+789844205+790351623+794158456+799945309+805348380+808296109+806654224
1538+801622677+797870053+797939232+800867618+803363556+803747338+804164385
1528+807071703+812372021+818213022+823804904+829505082+834386813+836883429
1518+837370148+837201296+837158360+837647790+838974702+841583002+846515986
1508+854462798+862203181+863777735+860856680+859183070+860795016+865090540
1498+870714948+876035102+879723043+882266230+885366671+889409872+892606721
1488+893586874+893796937+895202824+898276036+902707147+907821981+912500733
1478+916245718+920316886+926712554+935291097+942280118+944685808+945287662
1468+948557078+956120847+966027596+974077038+978441988+981152055+984291244
1458+987456182+988455062+986800857+984035101+981124272+978654885+976669568
1448+973857241+969517363+965584984+964163759+964844094+965952195+967101077
1438+968723680+970060757+969699459+967986794+966497437+966063141+966447416
1428+966944484+967312126+967957533+969348819+971834039+975556970+979408527
1418+980632687+978129788+974541580+972701029+972931667+973608799+973319700
1408+972163734+970761112+969048817+966746433+964702224+965044856+969038406
1398+974369525+976489505+974432914+971960200+971715701+972540185+972848689
1388+972451724+971342822+969548226+968212751+969442886+974484290+981887031
1378+988611101+993787906+999302293+1005957860+1011533787+1013854405+1013503950
1368+1012270303+1010816737+1009047520+1007977798+1009489455+1013727997
1360+1018571165+1022493934+1024693196+1023940108+1020981907+1019470311
1351+1021791792+1026072162+1029325869+1031626713+1034687481+1038346778
1342+1040571851+1040426100+1039883630+1041431202+1044780639+1047948103
1334+1050015720+1051656681+1054028613+1057048478+1058935601+1058154731
1325+1055205093+1051535201+1048121698+1046243199+1047936645+1054006806
1317+1061639324+1066191360+1066593006+1066353250+1068300744+1071536216
1308+1073691679+1073741823+1072049979+1069412664+1067238228+1067310549
1300+1070038050+1072689164+1071651413+1067828624+1065931521+1067844764
1291+1070786271+1072037043+1071657942+1069256071+1063165088+1054245084
1283+1046510183+1042586367+1041094607+1038972040+1035143831+1030827485
1274+1026674570+1022061856+1017316574+1013834939+1011395243+1008030960
1265+1003428657+999842051+998213966+996280210+992361322+988382433+986650733
1255+986009145+983421913+978152519+972269566+967227731+962049693+955251085
1245+947203430+939464772+932835139+927176234+922041564+917034411+912251367
1235+908375477+905648839+903021750+899054689+893429726+887144881+881367515
1225+876636278+873212549+871328198+870557739+869605799+867676294+865688267
1215+865146845+866266588+867871204+868706099+868678994+869008874+870752340
1205+873125320+874454327+875184190+878034957+884287030+891598477+896719040
1195+899373357+901756008+905282305+909467500+913157536+915577949+916606522
1185+917091516+918641798+922101195+926109345+928483803+929587592+932397394
1175+938651376+946859751+954644734+961449195+968030347+974653881+981123348
1165+987678874+994143659+999350096+1003012226+1005415144+1005181733+1001477776
1155+997620428+998242980+1003939032+1010916409+1015001131+1015612471+1014899487
1145+1013968369+1013251997+1014415293+1018371143+1022765477+1024626788
1137+1024999482+1026908843+1030622165+1034559842+1037573423+1038820376
1128+1037912236+1036176284+1035478824+1035160956+1033731168+1032685593
1120+1033992608+1036884587+1039903343+1043674632+1048580881+1051239018
1111+1047587114+1039667160+1035189417+1039531882+1050177488+1057952553
1103+1055299221+1044890291+1036549717+1037435188+1046887805+1056583628
1094+1057044290+1048899365+1041970961+1042704767+1048944827+1054901271
1085+1056972215+1053869926+1045763318+1035821948+1028837055+1027769673
1077+1031686775+1035777841+1035057095+1029589465+1023204085+1018077423
1068+1013775308+1010059707+1007981987+1007916380+1009320110+1012110137
1060+1015333043+1017489060+1019181027+1021294169+1020999341+1014547184
1051+1003850940+995051738+992502206+996554155+1004091066+1010226649+1011608079
1041+1008798586+1004878650+1002274169+1001345885+1001052967+1000126777
1033+998230598+996240107+995598088+996331217+996579720+995329071+994068751
1023+994260396+994708983+993474782+990905476+988909933+988357176+988785928
1013+990452823+993584311+995989509+994972210+990711429+985368420+980439810
1003+975979561+971313253+965277651+956933504+947764812+941127170+937921266
993+934994298+929243913+921859283+916463974+914590712+914481553+912971867
983+908375970+902188086+897696113+896900027+898812222+900399281+899203643
973+895408144+891351760+889207879+889032251+888676806+885685093+879399077
963+871582554+865251199+862306550+861908600+861792787+861626646+862940930
953+865600853+867741469+869489186+873312776+880071958+887722649+894131499
943+898758259+901858761+904182336+907055341+911370024+916516459+921130714
933+924619310+927228165+929723364+933313665+938828791+945831548+952539848
923+957252789+959234101+958158403+954801820+951092503+948366665+946681105
913+945793478+945326656+944515355+943223741+942201698+941511445+940690164
903+940325663+941128895+942525356+943891817+945517931+948127279+952135059
893+956762373+960098750+960989704+960162694+958742392+957411661+957389114
883+960564710+967403852+975302122+981438752+986308286+990411919+990800506
873+986329723+981373946+979504811+978285333+974277799+969824943+970053919
863+975905084+983454131+988691307+990961041+991623820+991051905+988552948
853+984999793+983066714+984389684+988069432+991237081+990942314+986934780
843+982659708+982310485+987134557+994825658+1001415434+1004448975+1005381756
833+1007133539+1009292636+1009070190+1007342124+1008527659+1013242079
824+1015851365+1012109029+1005578021+1002439140+1005131404+1011459926
815+1016427161+1016543035+1013726149+1013118012+1016819813+1022188079
807+1026293191+1029180118+1031221801+1031351905+1029774888+1028236249
798+1027654847+1027983187+1029089994+1028836193+1023891566+1016879568
790+1014715912+1018916630+1022119393+1015521916+1000948428+988522886+985002380
780+989382361+995394986+997088739+992633912+984693137+978076440+974899613
770+973078589+970575875+968670271+969571512+972899449+976250611+978539689
760+981125012+985090841+988649787+989796821+990361282+993471579+999369131
750+1004192032+1003294179+996873316+990490893+988426417+989506243+991265603
740+993052992+993498438+990548737+985831300+984337507+988202801+993446260
730+994238588+990626603+988137564+989653041+992447811+993683367+994551466
720+995747042+995629690+994242223+993294534+994153885+997292643+1002769513
710+1009799869+1014446033+1012842588+1006630125+1000642880+996970894+994525778
700+992901204+991745176+987823085+979912310+973184237+972168785+974061144
690+972596243+966537663+959583509+954753278+952946361+953978075+956270171
680+957149297+956289021+956033372+956500071+954883998+950232104+944488250
670+940772341+942659834+950446911+957967436+960879990+959515069+954992233
660+948369992+941842434+939377112+942915483+948262558+949619532+945139755
650+938119256+934480905+937001360+941420274+940914950+935716769+930431050
640+926257806+921642875+916078899+910421164+906743202+908082805+914829975
630+921586878+921279606+916221385+911865675+906777946+901478305+901728842
620+908859609+916788557+918487731+912883344+903943011+894987216+884954675
610+873361442+865032326+866222050+877046734+888009469+888602575+879659593
600+869539885
##END=
