##TITLE=<SNM>
##JCAMP-DX=4.24
##DATA TYPE=INFRARED SPECTRUM
##DATE=29/4/2025
##SAMPLING PROCEDURE=Instrument type and / or accessory
##ORIGIN=Admin
##XUNITS=1/CM
##YUNITS=ABSORBANCE
##RESOLUTION=4
##FIRSTX=4497.3318
##LASTX=599.83466
##DELTAX=-1.4281778
##MAXY=2.1487958
##MINY=0.41037539
##XFACTOR=1
##YFACTOR=2.0012221e-09
##NPOINTS=2730
##FIRSTY=0.42659286
##XYDATA=(X++(Y..Y))
4497+213166175+213075423+212802005+212261944+211563536+210867407+210415463
4487+210257428+210221657+210419022+211190952+212408557+213438268+213838075
4477+213618790+213041961+212524432+212499100+213116853+214062409+214706253
4467+214583155+213856839+213171968+212981156+213188379+213493592+213869468
4457+214501904+215252896+215429947+214377436+212246040+210068016+209103829
4447+209908552+211889047+213864360+214905345+214632984+213391522+212239055
4437+212093470+212782318+213328112+212946473+211521630+209676295+208532481
4427+208754685+209809058+210691264+211146693+211534705+211858086+211704371
4417+211013334+210270623+209864114+209680301+209505066+209531276+210134301
4407+211281957+212513709+213477464+214147652+214440727+214007234+212768885
4397+211440856+210943714+211334541+211790789+211600558+210795880+209915194
4387+209470666+209520867+209568879+209107538+208333746+207948920+208259896
4377+208885229+209255118+209074135+208413344+207641980+207209664+207321205
4367+207855309+208489755+208752109+208180522+206791688+205374023+205062392
4357+206344643+208432361+209889684+210087629+209727703+209693659+209915075
4347+209779527+209252914+208979004+209340524+209944635+210194271+210034017
4337+209855893+209941806+210322253+210937608+211520201+211555956+210883610
4327+210048418+209547390+209141998+208445600+207738123+207676485+208484856
4317+209705573+210652529+211050758+211114302+210910609+210120257+208790188
4307+207686314+207423558+207811958+208353582+208857008+209398275+210076251
4297+210854421+211442658+211453171+210809924+209968120+209604918+209971843
4287+210648866+211068018+211070445+210759320+210179885+209445677+208885169
4277+208770218+209020642+209340330+209593227+209827584+209942238+209789237
4267+209674538+210216415+211513722+212797552+213102184+212230105+210989671
4257+210416252+210816506+211682241+212405370+212823137+213078178+213169422
4247+212831268+211952443+210939738+210359692+210367108+210758382+211354511
4237+212053292+212745638+213388916+213965358+214338449+214377838+214201114
4227+214094412+214215500+214439759+214504808+214334219+214180191+214336155
4217+214730929+215009708+215009604+214921741+214984645+215200774+215328235
4207+215095382+214538866+214048113+213927294+214067026+214208501+214323363
4197+214518345+214752686+214953580+215289932+216000939+216933122+217528879
4187+217451798+216897173+216135399+215261801+214533460+214377287+214893208
4177+215705212+216315459+216453345+216256680+216178914+216467224+216817069
4167+216807567+216468460+216141892+215969308+215858109+215922056+216531796
4157+217637308+218406707+218106736+217114940+216412258+216318080+216426867
4147+216537128+216861253+217393496+217774971+217849208+217830980+217981494
4137+218438829+219124162+219617938+219414155+218432232+217142996+216224737
4127+216081639+216494581+216862236+216938647+217009563+217233838+217287226
4117+216863949+216269845+216247641+217155535+218429149+219081794+218801257
4107+218161703+217698425+217400927+217144217+216948238+216771856+216631588
4097+216821194+217489341+218220601+218508613+218328166+217905812+217399706
4087+217039243+217085513+217506243+218039900+218552455+219018085+219323834
4077+219371876+219190044+218810535+218212723+217495461+216937143+216746927
4067+216809801+216814537+216660374+216625780+217026615+217733377+218246423
4057+218382745+218545397+219026008+219453827+219344519+218834451+218390549
4047+218192633+218263445+218766782+219648392+220278758+220015958+218960677
4037+217671069+216458021+215552732+215487207+216511394+217961494+218885248
4027+219056567+218973692+219177311+219808511+220581856+221108320+221281738
4017+221209795+220840948+219983940+218765635+217754598+217448403+217846914
4007+218640333+219544996+220288319+220575646+220315348+219728630+219185294
3997+219027333+219370164+219917149+220177269+219962793+219523090+219195137
3987+219048629+218927691+218813737+218959217+219525041+220302570+220977106
3977+221414293+221613251+221697346+221919193+222357094+222683394+222536424
3967+222062395+221798210+222027712+222485047+222757557+222725896+222510348
3957+222260802+222089439+222054890+222238062+222790811+223617394+224047090
3947+223379047+221905954+220780099+220756480+221510153+222297958+222827356
3937+223110052+223067207+222742933+222495858+222655367+223216143+223950828
3927+224616637+225017010+224983190+224463874+223794208+223665838+224513628
3917+225940452+226975614+226994006+226192455+225181895+224315311+223631855
3907+223472718+224535252+226800856+228902334+229631181+229458165+229364732
3897+229306370+228737702+227786784+227300603+227830686+228680234+228843957
3887+228576957+228712415+229197331+229452968+229635679+230003691+230008710
3878+229363094+228833935+229116452+230067236+231355518+232700673+233390742
3868+233143176+232824039+233058023+233241002+232592482+231265555+229734070
3858+228358103+228118073+230847192+236501530+240340926+239356993+235688855
3848+232001417+229693907+229179684+230167444+231966137+234027645+236067143
3838+237578360+237962813+237362708+236586176+236208186+236094708+235822452
3828+235388125+235144907+235407916+236545670+238613790+240251187+239959883
3818+238581504+237798837+237675530+237209960+236337047+235904730+236795365
3808+239088400+241328032+242156164+242533916+244045431+246032181+246716069
3798+246116157+245199595+244388589+243992222+244612089+246471214+249030459
3788+251666518+254311735+257053096+259705580+262449353+266146159+271096131
3778+276180579+280316313+283821755+287699588+292459478+297547500+301776369
3768+304854916+307576529+310245693+312549316+314825210+318115165+322894742
3758+328405013+333616163+338497125+344223808+352341888+362565913+371780674
3748+378122756+383366907+389477030+394939766+397433918+398469155+401041997
3738+406755217+414811941+422016185+425612737+426291040+426531398+427565950
3728+429227338+430967088+432145259+432394284+432078304+431828236+431723903
3718+431221802+430059089+429027188+429327591+430831600+431709576+431191899
3708+430542694+430534414+430721012+430753029+431178615+433101418+436967576
3698+441639424+445372596+447579808+449082030+450795004+452885582+454742205
3688+455605140+455378781+454431437+453507861+453452969+454258183+455210292
3678+456461523+458895303+461614355+462541148+462046552+461721399+461636217
3668+460705165+458502450+455761447+453726447+452956081+452805403+452524509
3658+452016689+451428721+451271342+452633340+456258782+461334384+465043014
3648+464817697+461510796+458175331+456995880+457853692+459000083+459263881
3638+459163777+459568632+460326073+460703854+460899447+462432018+465972695
3628+468942202+468744614+466946219+466749495+469763768+474988469+479149787
3618+479564680+477554282+476607444+478358155+481740708+484970975+487165231
3608+488020601+487880377+487811904+488424474+489525325+490665312+491615247
3598+492599702+494136860+496312471+498386816+499900058+501527463+503863610
3588+506136020+507081487+506882350+506987726+508319315+510636520+513035690
3578+514584763+514659640+513139041+510854480+509340076+509578707+511271100
3568+513171149+514174933+514083019+513282243+512361974+512008615+512246113
3558+512058831+511037831+510376504+510788061+510959618+509826272+508834461
3548+510093555+513602780+517241209+518984414+518731785+517794062+516890828
3538+515439210+513022943+510712469+510214419+512074319+514749290+515465181
3528+513019071+509458081+507633029+507956187+508632942+508320745+507340668
3518+506416288+505499771+504394542+503721480+504246515+505637612+506902186
3508+507396543+506562528+504296135+501975178+501321297+502004009+502263309
3498+501755430+501757575+502778932+503719753+503923476+504380246+505968216
3488+507748889+508008964+506311389+503502329+500540000+498203316+497156464
3478+497556882+498886713+500362665+501356204+501618721+501280016+500515458
3468+499437541+498441828+498079146+498314709+498467561+497972281+496886322
3458+495764801+494990443+494108208+492395591+490359995+489584208+490684970
3448+492464541+493335578+492862725+491673892+490486786+489456970+488251220
3438+486879571+486177828+486768030+487929730+488412620+488053066+487648925
3428+487607078+487631531+487379647+486772319+485950396+485183038+484496603
3418+483542469+482161200+480667169+479453228+478748625+478708863+479367658
3408+480445367+481397267+481855198+482070299+482652936+483705596+484406893
3398+483822142+482114529+480573796+480359737+481370045+482485222+482770196
3388+482040009+480700885+479607152+479401523+479780436+480208136+480957684
3378+482499905+484552151+486441060+487676356+488108107+488332113+489352815
3368+491246043+493169055+494840421+496553574+497786785+497542198+496164206
3358+495209357+495193720+494830890+493197945+491486401+491418553+492912018
3348+494563905+495678099+496625562+497680396+498281470+497693472+496350982
3338+495818561+496907677+498564866+499294398+498984881+498473637+497988811
3328+497045727+495576714+494223711+493392585+492712077+491772984+490848753
3318+490399161+490262244+489842764+489046009+488706083+489661528+491327056
3308+491948353+490776169+489052264+488154183+487813304+487048418+485903158
3298+485277900+485884156+487894168+490764344+493197856+494122385+493673836
3288+492855607+492810931+494308476+497012666+499397213+500299761+500159895
3278+499960877+499958256+499919894+499686655+499239536+498697703+498213026
3268+497774127+497261006+496618831+495766558+494530993+492927386+491397227
3258+490591447+490777390+491457480+491920504+492147400+492533432+492846255
3248+492420401+491448605+491041515+491605567+492061383+491391211+490164284
3238+489488452+489268467+488726723+487991859+487866349+488437609+488941794
3228+488763685+488086603+487616401+487826319+488546857+489179769+489151713
3218+488280736+486925498+485649398+484578361+483432953+482205638+481274021
3208+480822374+480606231+480419901+480454540+480853737+481068004+480247749
3198+478394432+476466387+475232460+474721841+474700992+474863435+474744835
3188+474094111+473143372+472235165+471499437+470980270+470639183+470131006
3178+469026283+467526771+466539041+466634022+467177255+466934484+465487333
3168+463570963+462129233+461532061+461530781+461473506+460744837+459456287
3158+458409285+458069389+458034363+457711295+457037816+456296191+455584112
3148+454756531+453827743+453201621+453217794+453547087+453464913+452627979
3138+451259220+449879530+449044919+448854717+448669371+447888044+446842651
3128+446287177+446289024+446283454+445901949+445165954+444096823+442719426
3118+441408538+440662833+440500241+440525409+440566481+440706913+440725082
3108+440234984+439473612+439183217+439510366+439554119+438430066+436495021
3098+434879739+434056476+433610846+433368999+433807540+434999173+436010463
3088+435899398+434798428+433582491+432956310+433171500+434024309+434792591
3078+434747229+433974361+433143771+432460196+431521102+430220043+429119162
3068+428787545+429136139+429463317+429063942+427866978+426467392+425524099
3058+425281865+425598798+426102000+426315165+425979052+425275253+424531722
3048+423849129+423182710+422553937+422036110+421753578+421893087+422366237
3038+422530616+421733950+420184759+418885099+418593483+419099008+419542792
3028+419271369+418364770+417403398+416736413+416128876+415303528+414499268
3018+414074308+413938730+413880562+414015722+414386028+414542127+414022424
3008+412961632+411847230+410936401+410185246+409525557+408983218+408602994
2998+408428727+408524543+408804811+408901342+408533329+407939702+407541250
2988+407311852+406957153+406504732+406176660+405875900+405363554+404844536
2978+404820976+405371417+405951343+405933830+405136658+403837296+402463593
2968+401277797+400294504+399488040+398938374+398650361+398430167+398161395
2958+398032132+398262423+398741143+399115202+399143080+398831449+398315409
2948+397753502+397310701+397124044+397189748+397246070+396887499+395966663
2938+394799006+393782980+393010767+392451124+392156767+392056841+391958345
2928+391916141+392149649+392517542+392509381+391803915+390593071+389403136
2918+388670268+388409120+388343714+388330282+388432054+388624132+388674437
2908+388379843+387894987+387675508+387862165+387966856+387587108+387077800
2898+387004739+387330578+387550921+387277443+386510025+385634312+385089442
2888+384887386+384728190+384522828+384365628+384164585+383758627+383189929
2878+382562080+381883359+381159307+380441808+379842849+379565112+379684368
2868+379929164+380030251+380173572+380663193+381270134+381392338+380834660
2858+380035672+379471858+379162788+378902981+378750308+378938365+379334166
2848+379403533+378855237+377989711+377275487+376879329+376700803+376580713
2838+376353460+375905924+375354590+375010167+374948901+374773383+374080604
2828+373010729+372036371+371430234+371230264+371439527+371927659+372326587
2818+372282775+371750771+370981298+370350351+370173076+370492958+370962147
2808+371051380+370576443+369954044+369715324+369806880+369609561+368676990
2798+367279668+366165444+365872666+366281155+366770776+366779324+366185876
2788+365243863+364317309+363687524+363446779+363478201+363518499+363281298
2778+362674447+361958853+361516351+361367489+361120281+360473191+359547054
2768+358669227+358072710+357858682+357974155+358111459+357873216+357210966
2758+356528910+356222908+356308418+356570310+356786751+356691918+356069400
2748+355070888+354161578+353628621+353356007+353111122+352850868+352701769
2738+352758538+352934085+352988173+352716840+352142781+351535274+351170329
2728+351013367+350760231+350272129+349751652+349355791+348935865+348380152
2718+347925974+347856488+348089400+348311053+348361448+348234300+347837545
2708+347068609+346081027+345223006+344724032+344572193+344644181+344842841
2698+345096363+345269439+345159148+344653593+343857612+343048943+342542911
2688+342471548+342612755+342611504+342414005+342256924+342240811+342170788
2678+341826811+341271963+340878157+340926527+341140436+340940942+340281045
2668+339738617+339649235+339742161+339758423+339784037+339789160+339440120
2658+338627043+337760206+337307845+337300697+337439729+337513385+337535991
2648+337533013+337399342+337067487+336653518+336278804+335902362+335495839
2638+335180514+335016999+334884341+334696433+334500721+334288331+333982001
2628+333652589+333488061+333543162+333717994+333935151+334167675+334368182
2618+334497773+334528599+334384801+334066379+333799454+333802790+333943996
2608+333906707+333654078+333471888+333580302+333878084+334060869+333930474
2598+333582983+333283831+333214434+333376103+333617235+333687734+333423936
2588+332944114+332519869+332297977+332277068+332408089+332577411+332648357
2578+332606123+332525408+332415594+332249339+332064320+331911022+331795787
2568+331718914+331646777+331475965+331184348+330952271+330974907+331219255
2558+331478824+331633076+331747268+331899614+332002697+331886479+331535831
2548+331173209+331099583+331452912+332066852+332578573+332727553+332528238
2538+332170382+331845943+331649547+331570470+331599867+331778959+332016845
2528+332017827+331638586+331185450+331109620+331496575+331993672+332155132
2518+331826494+331276292+330947267+331055830+331465153+331903814+332208476
2508+332386287+332530382+332655416+332641864+332416816+332098066+331823516
2498+331575652+331330231+331202964+331291899+331534610+331817410+332070992
2488+332234001+332262564+332160851+331954953+331736904+331696189+331923471
2478+332219168+332280494+332053211+331749711+331575831+331602786+331828490
2468+332152898+332339555+332232005+331992392+331928207+332124603+332409965
2458+332610948+332675431+332579526+332281923+331853717+331561684+331630157
2448+331915787+332028848+331814759+331501907+331345540+331350842+331403560
2438+331495533+331708489+332052407+332413450+332639273+332634716+332444247
2428+332297887+332460658+332951530+333489312+333768836+333764190+333743192
2418+333974078+334428048+334831265+335004281+335039546+335119248+335272219
2408+335391028+335449614+335575064+335856643+336219950+336570509+336911984
2398+337255633+337553117+337760713+337914131+338177869+338783619+339770694
2388+340827405+341574719+341971205+342253201+342514378+342557654+342240126
2378+341828420+341837683+342523254+343695765+345067503+346528682+347958677
2368+349124487+350060096+351109778+352159430+352374561+351281841+349540155
2358+348052408+346987357+346270930+346390007+347880822+350199396+351897538
2348+351921336+350577655+349527705+350326753+352708679+355249860+357226216
2338+358892608+360579699+362184766+363428044+364271322+364939470+365594780
2328+366051311+365910075+365073379+363979110+363158379+362768803+362734313
2318+362949056+363107806+362783367+361942085+361056603+360546639+360384226
2308+360321501+360239267+360142856+359990838+359732222+359441946+359243286
2298+359159950+359174008+359315721+359593130+359960934+360374576+360751524
2288+360957541+360944317+360785746+360539193+360228545+359936452+359730882
2278+359520070+359150717+358664193+358291326+358162599+358166441+358111162
2268+357888376+357488792+357007809+356620228+356436907+356416534+356459364
2258+356499304+356482953+356378738+356243608+356189877+356281285+356554435
2248+357083311+357850461+358617075+359137552+359431462+359634143+359731031
2238+359652818+359434321+359109496+358666129+358197893+357864489+357657251
2228+357411413+357061003+356725574+356553482+356608046+356922954+357534928
2218+358362242+359157954+359738238+360204598+360811271+361661072+362651692
2208+363688536+364804875+366044639+367376645+368798450+370374387+372085485
2198+373786933+375386757+376927311+378445587+379905723+381304654+382671507
2188+383926223+384961280+385903263+387003071+388224965+389268035+389998967
2178+390514441+390840696+390931091+390873757+390818030+390765878+390598611
2168+390262735+389840664+389436107+389053202+388628689+388104667+387428270
2158+386563607+385535637+384449947+383494144+382815245+382351059+381983762
2148+381783642+381845534+382222511+383338880+385904663+390103539+395432425
2138+401408401+407793670+414241069+420412905+426347690+432265080+438164243
2128+443839726+449189878+454342621+459403867+464245395+468712835+472788464
2118+476387489+479352230+481713843+483669439+485468310+487555433+490515528
2108+494642297+499740117+505437046+511531652+517897949+524142190+529572312
2098+533482134+535380693+535222896+533565410+531213179+528673368+525942402
2088+522489231+517592661+511032649+503149804+494337843+485062412+475952462
2078+467326741+459108259+451328527+444205624+437901993+432526882+428048720
2068+424216516+420909139+418250429+416182934+414430496+412907128+411711474
2058+410869060+410337115+410056042+409962669+410057263+410355462+410886394
2048+411878384+413664568+416384245+420121914+425161209+431738675+439790039
2038+449135075+459607769+470918915+482578774+493949369+504400201+513502765
2028+520971670+526564116+530348248+532862207+534755643+536364641+537559878
2018+537928367+537301233+536020515+534439753+532392213+529404747+525304962
2008+520495005+515610707+510960631+506387993+501607820+496513186+491199758
1998+485902682+481003819+476971525+474048035+471930056+469980358+467883168
1988+465887989+464402268+463572542+463219868+463090784+463188893+463738231
1978+464795240+466135942+467532192+468916916+470358288+472054256+474141736
1968+476348501+478127596+479329207+480434257+481966323+483984138+486250739
1958+488600706+490950048+493163009+495142968+496987647+498958284+501278825
1948+503922523+506678627+509474522+512344520+515027236+517136607+518843475
1938+520766457+523217929+526016803+528871432+531612346+534192068+536661887
1928+539081251+541477920+543935289+546515964+549070965+551366249+553308233
1918+554872257+556073867+557140794+558399888+559927337+561483856+562735265
1908+563473078+563805647+564219468+565211994+566768631+568392521+569748831
1898+571131767+573035032+575203257+576573922+576682694+576483676+577089604
1888+578350605+579352959+579733720+579774941+579757428+579759036+579916177
1878+580486126+581367379+581869837+581558652+581040528+581196001+581866144
1868+581966576+580996983+579582357+578393791+577391496+576133117+574497730
1858+572904816+571797204+571108952+570361907+569264958+568080920+567210806
1848+566611371+565964460+565132411+564059467+562635012+561043110+559739638
1838+558908899+558215822+557261241+556189311+555517977+555319793+554898467
1828+553680594+551935840+550111384+548309623+546615443+545217078+544134961
1818+543187826+542189224+541136296+540306212+540051618+540371380+540851321
1808+541120153+541155477+541178053+541432529+541948509+542452516+542624668
1798+542406827+542087482+542280602+543565251+545631316+547236680+547905572
1788+548445022+549467630+550799635+552188588+553719611+555371200+556870176
1778+558165964+559576004+561510721+564258664+567519668+570132212+571293435
1768+571476369+571580316+572170280+573429314+575063688+576385091+577269739
1758+578356502+579780659+581009493+582164104+584082499+586785945+589028570
1748+590105385+590777613+591916379+593769726+596329076+599256498+601522891
1738+602503324+603334837+605796197+609739258+612508764+612930984+612365622
1728+611974735+612132055+612986800+614450034+616076843+617590651+619253379
1718+621282631+623068666+623897439+624174550+624601118+625263756+626150965
1708+627772591+630422783+633139393+634918219+636604299+639813657+644082735
1698+647016173+647949071+647750590+647013492+646298554+646341860+647509398
1688+649582194+652368975+655845676+659114901+660972060+661831868+662669159
1678+663894418+665584667+667422050+668818628+669971154+671815208+674370269
1668+676192342+676711897+677248487+678994254+681577788+683589289+684390244
1658+684669917+685746910+689009106+694510174+698501425+698402780+697294692
1648+697491028+698463957+698601023+697968349+697894365+698856035+700501310
1638+702638321+705346770+707868591+708829725+708473983+708253700+709111721
1628+710984368+713353695+716287610+720259621+724951513+729477926+733834747
1618+738607534+743407484+746904795+748907777+750237400+751078921+750788704
1608+748882818+746280818+745027382+746313163+749340302+752625789+755828356
1598+759445340+763400553+766975839+769870737+772521821+775266905+777780864
1588+779645886+780953409+782149122+783840563+786486405+789683552+792359120
1578+793896040+794358885+794073851+794102503+796115672+800904482+806897524
1568+810933333+812267483+812786024+813851879+815826626+819159886+823817349
1558+827502896+829076450+830799998+833442148+835723135+836672712+836656272
1548+836319354+835878489+835598042+836138504+838225537+841371634+842760885
1538+840698156+837451091+835319203+834994913+836103776+837632595+838930051
1528+840051245+841282937+843135093+846570632+851744908+855763620+855301430
1518+852064373+850170698+851171802+853971688+857374941+861072164+865102968
1508+869874861+875498997+879978470+881936716+883164716+885455770+889060185
1498+893091466+895829759+895750771+893522562+891384538+890755557+891458998
1488+893154609+896582225+901938125+907693669+911962984+913969183+914286265
1478+914515663+916359538+920152844+924081668+925416532+923398420+919820394
1468+917171036+917430873+920215450+922299505+922420965+923176230+926188060
1458+929114529+927596611+922302126+917667657+914926088+913447723+912954796
1448+913456301+914409929+914947830+915199923+916046924+917266584+917556860
1438+916591020+915608204+915669797+916431675+917042965+916963500+916362338
1428+916119001+916790574+918178752+919944891+921757732+923073416+923513089
1418+923402649+923216856+922633325+921124402+919312217+918943668+920915615
1408+924082382+926666334+927704608+926741271+923778704+919711324+915626253
1398+912069552+909807686+910335342+914097970+918983877+922424777+924055755
1388+925045661+926159587+927311041+928472384+929901783+931438644+932615415
1378+933686213+935647319+938940371+942778115+945872387+947413180+947452256
1368+947176515+948371335+951714186+956382787+961628069+967106978+971234819
1358+971977099+969960178+968399311+969601160+973335791+978290499+983198208
1348+986805006+988415612+989173022+991479385+996687318+1004400334+1012893098
1338+1019336714+1021623658+1020484475+1018904844+1019723669+1023560341
1330+1028943523+1034251769+1038945866+1042947899+1045667309+1046356394
1321+1045756661+1046471718+1050672590+1057036266+1061378314+1061311955
1312+1058766485+1057529133+1059778430+1064930607+1070510603+1073741823
1304+1073506409+1071266762+1069289573+1068857942+1070067534+1071189800
1295+1069135530+1062484497+1053179579+1044773308+1040286032+1040866942
1287+1044701588+1047635801+1046539507+1041691605+1035647215+1031075233
1278+1028867753+1027812442+1026181106+1023445613+1019982791+1015872106
1270+1010988582+1005574900+999919253+993622889+986741327+981517490+980449610
1260+982300931+982150462+976658806+967660188+959122331+952930629+948482608
1250+944126740+938767921+933044961+928415794+924573523+918720347+908882830
1240+896742821+885341280+875610986+866490492+857503013+849721613+843993114
1230+839770142+836313933+833632706+831665823+830019654+828992936+829256525
1220+830082796+829566757+827260512+825098185+824883739+826101434+827189388
1210+828143254+830117286+833041432+835549017+837006235+838127786+839798735
1200+842446245+846399611+851991104+858824833+864956073+868254665+869358703
1190+871076770+874374825+877625048+879793987+881531474+883460591+885984915
1180+889888422+895428507+901793732+908077348+913867143+919138158+924405838
1170+930355991+936771968+942552172+947020565+950484399+953681904+957002893
1160+960114678+962567103+964367911+965224026+964492051+962965257+963096784
1150+966732711+973027526+979128386+982399576+981732889+978548132+976416006
1140+978677693+985594579+994245139+1000970275+1003340972+1001604081+998862750
1130+998112012+998885267+998198922+995339170+993890470+997506024+1005411922
1120+1012337445+1013425757+1009626494+1006210732+1006755900+1010368238
1111+1014230286+1017347254+1020999145+1025752929+1029224566+1028069538
1103+1022517658+1016991155+1016171377+1021058594+1027640885+1030311687
1094+1026389356+1018204560+1012010296+1012723328+1018800004+1024292196
1085+1026407584+1028004490+1031392731+1033638454+1029757345+1018941181
1077+1006268632+997997522+996504682+998681365+998738848+994468758+989274229
1067+986587224+985776441+983731522+978800284+973265560+971370575+973498472
1057+974652726+971487150+967774798+969097927+975986936+984605210+991097255
1047+992461725+986292719+974462644+963449666+958131771+958213975+960890674
1037+965025961+971074700+977218390+979879065+978338571+974951580+971670442
1027+968938523+966809375+965649581+966035286+967712966+968874427+968219058
1017+966849524+966124995+966496880+968847681+972702581+974493857+971187522
1007+964221016+956612900+948540270+938648784+927332009+916596679+908006581
997+901601684+896517594+892430854+889882108+888768301+887485022+884628189
987+880596431+876366371+871874687+866866605+861841130+857757370+855604156
977+855485735+856182147+855895326+853528382+849684740+846063706+843503344
967+841282580+838505032+835399084+832758483+830878628+829785253+829457211
957+829664866+830401308+831910886+833832439+835479263+837333384+840806391
947+846059715+851377372+854848712+855915877+855966569+857469119+861880028
937+868438016+875470226+882888200+892076662+902800435+911872619+916451571
927+917938811+920116329+924131586+927278457+926798337+923389127+919830044
917+917567820+915468397+912508094+910043279+909875773+911733349+913767902
907+914765254+915078046+915906164+918134434+921283926+923368874+922525626
897+919248181+916584051+917784410+923670051+931785510+937915082+939467193
887+937601872+935599962+935541764+936796450+937403153+936933219+937359489
877+939919733+942078307+940604112+937571552+938289707+943936955+950209254
867+953038030+952853607+952293546+952178163+951476687+949978188+949135715
857+950118174+951681781+951523031+949558232+948163501+949713467+954016796
847+958892457+962953582+966348674+969130273+970529650+970822428+972482476
837+977775055+985112791+989357148+987894926+984086430+982244878+982735065
827+984141590+987324739+993486240+999348887+1000094503+996650684+995555879
817+1000696023+1008927163+1015045179+1018419840+1022316556+1027958860
808+1031758719+1029787367+1022662528+1013564789+1003107465+991486593+983789065
798+984972567+992780594+1000740818+1005744551+1007431047+1004837326+998009971
788+989750358+983062750+977685584+972227881+967260545+963736904+960271998
778+955006701+949477636+946989590+947176098+946179760+942988033+940901000
768+941660793+943097520+943348719+943999264+947247401+951879190+954924378
758+956113241+957447987+959612578+961371628+962145300+963296278+966378697
748+970705555+974117029+976740474+980819410+986800538+990961320+988593185
738+981369463+975983481+975492757+977974549+981861913+988638338+998548945
728+1006189526+1004979814+996357846+987834941+984385820+987059362+994735445
718+1003624040+1008426671+1006855975+1000194101+990543926+980873081+974378593
708+971406852+968826177+964270576+959940084+959669048+963012733+964729490
698+961760370+958219872+959702883+966473231+974292338+976410704+967176137
688+952410122+945319296+951423731+962602546+966067572+960172758+952626056
678+947153522+942654511+940721164+942744995+944834530+941080956+929908574
668+919023013+921627873+935966188+946757393+945633400+936343136+928380887
658+927547884+933716295+945237688+959617760+971373434+976973445+975396257
648+964680704+946064078+926282833+915173058+917084484+925532929+928873576
638+921858819+909583531+902123025+905332562+915796320+926443668+934789239
628+938932925+934665337+923831898+915832597+917582951+924872913+929132042
618+925427195+914083912+903478917+901364662+907623140+920183343+935766396
608+948249280+954033654+955061504+954704273+949827183+936740754+918111261
##END=
