##TITLE=<SNM>
##JCAMP-DX=4.24
##DATA TYPE=INFRARED SPECTRUM
##DATE=29/4/2025
##SAMPLING PROCEDURE=Instrument type and / or accessory
##ORIGIN=Admin
##XUNITS=1/CM
##YUNITS=ABSORBANCE
##RESOLUTION=4
##FIRSTX=4497.3318
##LASTX=599.83466
##DELTAX=-1.4281778
##MAXY=2.1055272
##MINY=0.37407535
##XFACTOR=1
##YFACTOR=1.960925e-09
##NPOINTS=2730
##FIRSTY=0.39159304
##XYDATA=(X++(Y..Y))
4497+199698124+198662738+197478898+196840928+196733614+196585508+196313751
4487+196303553+196552620+196732322+196838541+197102973+197543566+198021956
4477+198511684+199114106+199883388+200701639+201390082+201878001+202064619
4467+201622309+200370183+198837076+197926178+197917925+198244061+198363944
4457+198527582+199279127+200413042+200967940+200302810+198887472+197802830
4447+197472104+197327236+196855654+196275756+195848629+195376074+194910891
4437+195175885+196580539+198271585+198872563+198083311+196943803+196571587
4427+197109934+197914718+198273393+197840537+196812310+195686769+194664560
4417+193664495+192995111+193230985+194237692+195023099+194803167+193814227
4407+192896369+192613167+192910792+193406037+193823908+194130423+194397515
4397+194632386+194708559+194498567+194116852+193984719+194506288+195521551
4387+196173488+195652695+194138813+192648974+191940667+191877397+191766846
4377+191230293+190764745+191101398+192007554+192558804+192616450+192865896
4367+193441889+193767630+193660042+193524399+193567896+193608506+193566529
4357+193679618+194242297+195330936+196775150+198180032+198933538+198545211
4347+197142382+195361591+193826553+192999716+193166576+194068795+194874431
4337+194989055+194696096+194699729+195196175+195637299+195464193+194799641
4327+194158783+193844076+193929793+194433838+195235735+196064077+196607470
4317+196596132+196079184+195565108+195508587+195889892+196514153+197204223
4307+197592656+197412224+196914410+196446370+196069700+195989105+196542224
4297+197360991+197483245+196758523+196281258+196985021+198541701+199977921
4287+200709861+200617791+199748353+198401650+197094143+196206969+195920212
4277+196295666+197054005+197600680+197647718+197489719+197502941+197715593
4267+197933549+198081305+198298835+198667085+198991503+199044180+198825723
4257+198396848+197786295+197241169+197191669+197836403+198991017+200227336
4247+201009263+200964277+200228096+199334707+198682192+198326070+198331861
4237+198926015+199991477+200760911+200529459+199567998+198857851+199032447
4227+199960853+201153767+202169227+202698957+202596826+201921772+200999020
4217+200415155+200631591+201471696+202213560+202382654+202192085+202025301
4207+201968369+202030469+202288958+202613969+202733213+202730219+202993086
4197+203570416+203972800+203751501+203052647+202469177+202443371+202928843
4187+203603547+204240545+204825155+205372256+205666947+205394111+204650453
4177+204032590+204023334+204540905+205242449+205981122+206766514+207422221
4167+207517558+206831182+205785675+205161094+205386269+206167025+206649519
4157+206080548+204649587+203448557+203334420+204171196+205308242+206315906
4147+207022982+207241196+206832535+205991974+205218467+204927697+205192387
4137+205817971+206449482+206686435+206442810+206163256+206409313+207276638
4127+208321401+208970876+208995117+208613660+208134160+207677488+207384590
4117+207530173+208173554+209008309+209746480+210373174+210907098+211176667
4107+210963073+210240145+209304459+208753878+209112461+210262653+211438378
4097+211956192+211776931+211294589+210927023+210995779+211633460+212659453
4087+213628636+214035079+213667847+212935952+212593813+212951272+213515152
4077+213529210+212781874+211781931+211204130+211241502+211555722+211855322
4067+212251628+212890936+213486853+213506884+212803790+211836036+211174432
4057+210994958+211173840+211589994+212079418+212357011+212281401+212038900
4047+211948775+212212888+212770202+213250416+213240583+212760886+212310475
4037+212308773+212682129+213100563+213397458+213581826+213603757+213373490
4027+213025925+212977078+213528632+214480687+215350413+215831584+215848074
4017+215477894+215047956+214922389+215038077+215031131+214838055+214751988
4007+214909759+215124873+215306733+215802450+217038359+218733037+219850052
3997+219676444+218571634+217383948+216656811+216585972+217110823+217840210
3987+218318677+218391931+218104870+217516764+216814096+216309048+216253651
3977+216814172+217987601+219321447+220105562+220083175+219555087+218771443
3967+217873661+217322062+217645583+218765181+220013340+220778990+220870604
3957+220440194+219854657+219539068+219775277+220584591+221661558+222472164
3947+222754104+222896267+223376921+223830189+223309807+221770574+220394508
3937+220172494+221052282+222548671+224333626+225863953+226321370+225593457
3927+224588088+224140215+224131689+224036792+224010348+224744355+226246990
3917+227304352+226648083+224572084+222703160+222296519+223277085+224965198
3907+227317255+230775278+234984846+238543206+240447497+240587790+238675323
3897+234663558+230182142+227866712+229008454+231742652+232618503+231551687
3887+231626569+233839654+235672347+235543467+235015485+234703924+233195483
3878+230962807+230539449+232833008+236463316+240206212+243184613+243442388
3868+240777128+238283759+238042307+238554620+237462895+234973949+232820865
3858+232541235+235920972+244431312+254163913+255521118+248041346+239002781
3848+233130937+231828293+234349307+238682314+242906533+246359814+249060713
3838+250275770+249098449+246121249+242754370+239861169+237911452+237350475
3828+237987837+238944937+240424335+244189526+250146449+253849252+252576032
3818+249776588+248101075+245950590+242150747+238674214+237799502+240270363
3808+244764911+248333940+249976580+251912301+255066665+256828914+255622885
3798+253049711+249988374+246075655+242040348+239420182+238841423+239910442
3788+241981820+244400643+246501597+248220912+250361381+253262970+255613979
3778+255939188+254889744+254446872+256053964+260174896+265985827+271280509
3768+274480589+276039670+276957817+278199897+281199028+286605537+292608997
3758+296681144+299458778+304290374+313850705+327395520+338948229+343173269
3748+343945819+347803520+355154930+359889045+358958982+357032685+359162545
3738+367334561+379764231+390575061+394415102+392167061+388733933+387681617
3728+389816311+394092842+398578924+401683013+402995034+403146103+403357479
3718+404536364+406954685+411428305+419409371+430014996+437979679+439443955
3708+437233088+436001951+438293277+444252936+451249318+455327574+455522809
3698+454433531+454547182+456463206+459973327+465170650+471299221+475186680
3688+474163180+470234807+467095641+466301875+467582496+470060090+473584558
3678+479193445+486447891+491329944+492218425+492836440+494707629+494396737
3668+489837643+484074009+480326980+479490842+481091930+484229698+488262574
3658+492626828+496212028+498625455+501923958+508761945+518784024+526206226
3648+524596505+516211777+507793735+503035638+502107065+503344949+505024491
3638+506501776+508052437+510198196+513674547+519745760+528964437+537756960
3628+539711678+535275598+530745350+530198583+534275138+541013973+546653134
3618+548845733+549214074+550067234+551420047+552792374+554884057+557233622
3608+556908261+552996697+549097839+548437512+550292896+551867357+552648904
3598+555106801+560498112+566075508+568393218+568766848+571787682+578753941
3588+584748799+584272977+579212923+574515010+571562446+569664751+569161208
3578+570996773+574312328+576454044+576267654+576192454+579729962+587391990
3568+594601176+595155967+589386102+583547481+581703648+582952870+584461008
3558+585171488+586078267+587829574+589769337+591276866+592680562+594710359
3548+597587054+600277056+600563388+597347472+592466695+588724498+587685192
3538+589552004+593388976+597218227+599252948+599290031+598103486+596240503
3528+594110581+592131972+590401335+588967972+588287766+588774287+589924175
3518+590512645+589954267+588989736+588756171+589684228+591449699+593283015
3508+594458557+595606439+598247016+601972312+604053357+603171442+601195082
3498+600195594+600420344+601262865+602312871+603583371+605512009+608130276
3488+610273633+610641488+609481691+608015622+606631440+604892474+602952589
3478+602093958+603703011+607543326+610799001+610014414+604865665+599020964
3468+596775233+598841566+601853889+602458651+601233077+601005470+602558898
3458+604229655+604681038+603948490+602173961+599670287+598133578+599648341
3448+603873655+607385995+606993763+602857145+597585534+593842609+593294079
3438+596107793+600531108+604125396+605816822+605811169+604219442+601507068
3428+599546697+599947744+601694856+602162836+600259244+597002596+593760053
3418+591530127+590980139+592167475+594453998+596812012+598347871+598912571
3408+598944426+598527087+597422003+596287070+596638754+599108931+602686623
3398+605493893+606185528+605071812+603687387+603082624+602921585+602485218
3388+601497342+599837527+597888281+597101749+598664782+601818143+604973267
3378+608015500+611664927+615123162+616645343+616065383+614514084+612769707
3368+611464434+611270932+611976184+612700465+613467239+614988386+616973439
3358+618170198+618063872+617627261+617983687+618632098+618108433+616665951
3348+616440837+618374703+620673567+620937528+618844021+616222349+615212588
3338+616203990+617469566+617565131+617361720+618375615+620254039+621289272
3328+620674054+619321788+618491242+618473491+618929677+619621434+620475445
3318+621304531+621751781+621756036+621738954+621891968+621718345+620781109
3308+619392976+618145091+617486162+617697476+618813746+620605844+622453446
3298+623191405+621855493+619336621+617774744+617742098+618229288+619273640
3288+621981698+625903535+628541195+628051695+625439629+623376943+623293111
3278+624630178+626498571+628321248+629217632+628170909+625163449+621556576
3268+618774839+617391995+617482758+619160931+622337515+626098618+628941695
3258+630208183+630870880+631951830+633068221+633007793+630861093+626853538
3248+622926411+621445995+622718866+624938213+626455469+626940045+626868554
3238+627010078+627897890+629511563+631555281+633346468+633757242+632355491
3228+629991519+627202121+623615006+619688791+617338497+618129893+621818470
3218+626166706+627913453+625567475+621194011+617831402+616140888+615094712
3208+614638404+615635399+617473943+617864230+615807685+613006129+611492459
3198+611311116+611059739+609971312+608478252+607234561+606652231+606850961
3188+607503993+607832272+607279365+606267415+605598942+604967492+603198677
3178+600397486+598230177+597714901+598168473+598595904+598841444+598938043
3168+598513044+597481640+596495770+595990646+595562972+594749935+593708440
3158+592680137+591395594+589570668+587722579+586850756+587176846+587803068
3148+587905382+587507617+586680902+585073977+582793533+580506524+578411801
3138+576428450+575185732+575491275+577092120+578928901+580171497+580293143
3128+578936014+576443101+573832008+571851818+570465995+569529610+569514229
3118+570725517+572204292+572450805+571071304+568801864+566431083+564817836
3108+565109274+567472943+570078565+570611775+568833476+566733343+566053927
3098+566342022+565790271+563753361+561424223+559911405+559205544+559186273
3088+560004660+561167740+561548908+560716478+559604707+559576743+560931014
3078+562510400+563075648+562642502+561903996+561090169+560061015+558766806
3068+557115989+555189782+553600305+552849033+552728542+552877240+553113601
3058+552870614+551532999+549671172+548473684+547946006+547196253+546259382
3048+545973415+546217679+545978704+545039036+544149704+543753885+543723003
3038+544001796+544551056+545001588+544980615+544493181+543660508+542408307
3028+540740833+539109408+538054174+537524186+537018515+536338127+535718835
3018+535349643+535230004+535210489+534801478+533518151+531800767+530838484
3008+531048886+531424401+530880613+529603973+528420102+527547428+526783085
2998+526340821+526668674+527666277+528530380+528405877+527180667+525433251
2988+523523398+521362837+519317660+518272092+518351365+518574169+518096645
2978+516963961+515653582+514750450+514761514+515537043+516220714+516100345
2968+515084200+513389735+511442312+510045728+509960832+511068256+512369942
2958+513006378+512953184+512457970+511331122+509464067+507579777+506613847
2948+506558343+506505150+505732509+504472344+503624473+503735297+504358632
2938+504589521+504069807+503164062+502319048+501609175+500860365+499999849
2928+499198636+498728103+498687524+498852514+498809078+498270974+497329088
2918+496340361+495567234+495033264+494627748+494191016+493693825+493302930
2908+492963374+492167086+490555723+488646873+487631245+488297803+490158110
2898+491795887+492177420+491334108+489834452+488208316+486844379+485954469
2888+485559076+485477036+485292471+484720779+484081487+483802480+483623842
2878+483095677+482459789+482144611+481895666+481192329+480073962+479013013
2868+478283779+477717558+476931209+475773874+474559577+473738485+473369931
2858+473138889+472895933+472913684+473416619+474049164+474135611+473466439
2848+472572730+472082379+472004899+471826291+471151556+470058205+468921297
2838+468072787+467543255+467065974+466445010+465799547+465280076+464817629
2828+464289313+463619928+462795674+462062701+461759316+461686153+461143216
2818+459815632+458205364+457114596+456955959+457445307+457838269+457610115
2808+456857809+456008023+455340614+454835034+454319697+453724175+453179506
2798+452779522+452358900+451684652+450779362+449934986+449421352+449213229
2788+449067266+448894768+448821179+448717923+448114528+446972756+446056402
2778+445989409+446280939+445809737+444183480+442143714+440629285+439880778
2768+439553837+439381430+439387904+439463013+439069261+437690642+435561267
2758+433654362+432839106+433187021+434127449+435100400+435828328+436124691
2748+435838025+435035352+434040455+433156594+432341004+431281879+429907455
2738+428658202+428038788+428003498+427995078+427502873+426461013+425233737
2728+424285193+423734506+423270052+422680062+422280777+422435524+422805780
2718+422596959+421591909+420432051+419756526+419546640+419410982+419078995
2708+418495115+417758524+417087771+416661039+416399267+416006214+415318956
2698+414536011+413952435+413539381+413039880+412445483+412015590+411794336
2688+411505481+411005737+410478029+410084003+409735389+409312517+408858125
2678+408428475+407933807+407252993+406409165+405539378+404773880+404242251
2668+404119754+404474143+405024770+405260037+404958294+404418853+403988139
2658+403577820+402905730+402004423+401182236+400636503+400351295+400224665
2648+400078915+399682549+399006416+398384480+398164776+398199884+397926531
2638+397037138+395886369+395113455+394979256+395181208+395257533+395043057
2628+394698972+394464952+394459694+394576628+394572251+394376590+394125639
2618+393771220+393084327+392169736+391457766+391163075+391232561+391602209
2608+392026114+392032467+391483633+390807713+390463841+390539041+390838322
2598+391052220+390962521+390629379+390250369+389893305+389513747+389128506
2588+388852326+388816763+389055555+389395233+389494871+389107472+388356595
2578+387666176+387287774+387008402+386537444+386016787+385809182+385918061
2568+385990495+385836204+385624190+385560328+385635862+385765928+385932894
2558+386080650+386113113+386096669+386168829+386199347+385919216+385396280
2548+384993469+384868298+384827993+384671969+384478892+384504456+384837020
2538+385252080+385498684+385573976+385567562+385449108+385180345+384848936
2528+384605979+384613304+384983469+385598080+386083963+386121563+385730030
2518+385203142+384824436+384649476+384541144+384406793+384321653+384393236
2508+384617134+384886809+385020461+384851398+384452417+384143075+384141920
2498+384382962+384739661+385185330+385674222+386083689+386318834+386374429
2488+386326281+386258437+386109496+385744346+385312903+385226000+385579660
2478+385960798+386011012+385833620+385709300+385727568+385801704+385827054
2468+385742219+385514734+385129188+384657622+384314875+384322474+384713581
2458+385318617+385880430+386196642+386268893+386278559+386362271+386535742
2448+386798912+387095092+387231966+387073329+386754503+386545195+386556441
2438+386672403+386758667+386870860+387109804+387305920+387169016+386780188
2428+386558691+386723924+387115883+387480151+387667240+387681921+387688395
2418+387812473+387941808+387916336+387813780+387824753+387973755+388145007
2408+388259540+388314466+388365562+388514533+388774208+388969899+388974914
2398+388983455+389298816+389933093+390654456+391293748+391770786+391988605
2388+391934500+391729629+391420895+390832152+389681230+387793232+385263904
2378+382447059+379646111+376831576+373894727+371111348+368896195+367084856
2368+365139044+363264906+362432476+362849664+363406340+363326337+363491206
2358+365259626+368664728+372708181+376985776+381692261+386081136+388468483
2348+387842808+384837537+381372827+379095454+378134418+377945262+378373575
2338+379300750+380260783+380792929+380798917+380542495+380481216+380926490
2328+381728980+382459430+382931757+383375055+384063893+384978454+385895416
2318+386682707+387405377+388148989+388825821+389289849+389668555+390390738
2308+391731392+393406496+394768884+395479820+395900290+396648979+397836254
2298+398998179+399753281+400189770+400575498+401006425+401411515+401690278
2288+401783655+401706449+401535440+401343275+401156278+400975876+400810156
2278+400676930+400572337+400440903+400210561+399860458+399429440+398984288
2268+398632239+398525123+398727744+399088547+399367644+399514093+399740241
2258+400285579+401123359+401949831+402496142+402777580+402982390+403231334
2248+403514384+403722385+403674480+403265439+402614170+401939952+401329597
2238+400755656+400261414+399957422+399813800+399590631+399104170+398521688
2228+398222468+398344114+398626403+398747258+398670964+398613849+398789205
2218+399236120+399805502+400289561+400623858+400931650+401304338+401628756
2208+401761861+401808276+402065519+402699127+403573869+404426421+405142403
2198+405803217+406491964+407162595+407728754+408188679+408619211+409090686
2188+409590946+410033059+410384682+410774908+411381677+412185443+412895255
2178+413200615+413133288+413088879+413397856+413969092+414457011+414660818
2168+414663006+414706868+415016727+415627325+416357472+416999014+417470550
2158+417800136+418168568+418944431+420355969+422115057+423686328+424916613
2148+426080818+427388249+428793495+430221964+431701681+433336388+435275695
2138+437600456+440202644+442886171+445554075+448227328+450962226+453752900
2128+456449376+458920100+461363011+464200465+467543133+470951792+473827940
2118+475929229+477428095+478567740+479498410+480567778+482483802+485834374
2108+490610102+496554441+503839526+512925038+523602975+534416237+543309432
2098+548994978+551583700+551930034+550696922+548047225+543866898+538131381
2088+531089192+523082532+514305815+504929898+495388109+486296913+478106660
2078+471003344+465092289+460448785+456945867+454225317+451934113+449900304
2068+448091002+446539580+445296285+444316038+443421782+442501599+441722179
2058+441418795+441713517+442316425+442851155+443345822+444156124+445407565
2048+446862722+448415694+450401781+453292306+457311533+462482898+468941966
2038+477045103+487059857+498785947+511589915+524724655+537450202+549008170
2028+558771973+566378619+571611688+574415918+575200566+574767967+573587683
2018+571338791+567520908+562388025+556849718+551588259+546722255+542139422
2008+537654829+532886458+527472532+521511839+515499656+509890920+504937314
1998+500818509+497732020+495826391+494976514+494560360+493747323+492298671
1988+490806826+489981843+490015856+490672383+491674302+492852185+494078884
1978+495256159+496449635+497929747+499847230+501928244+503805208+505551409
1968+507378128+509012835+510096186+510947097+512195590+513917777+515687990
1958+517247680+518747306+520534784+522874379+525674719+528511777+531079891
1948+533516935+536254051+539647907+543536917+547047859+549364718+550753459
1938+552141470+553953205+555955037+557861668+559598993+561211936+562857829
1928+564808109+567346008+570505510+573754254+576304312+578059084+579607466
1918+581100283+582106884+582689275+583459271+584618399+585831085+586846683
1908+587674310+588333543+588779698+588967911+589023232+589393032+590577207
1898+592599769+594822156+596394794+597091657+597574409+598423193+599102304
1888+598566359+596802468+594919789+593976777+594153987+594689872+594656132
1878+593948266+593164105+592698679+592706521+593666128+595937271+598483256
1868+598948074+596326038+592414474+589359475+587484456+585912730+584139720
1858+582256129+580264145+578093675+575991231+574401450+573597288+573567865
1848+574281750+575792623+577431038+577318146+574546440+570840840+568108405
1838+566475705+565029940+563359244+562212822+562670345+564474480+565475366
1828+564063706+561212422+558379619+555630953+552783194+550495213+549348486
1818+548970114+548688828+548631865+549491834+551213414+552524219+552293026
1808+550991886+550038297+550333140+551923104+554227135+556169269+556874278
1798+556710564+557079939+559141895+562814848+566252657+567120955+565695495
1788+564517947+565240160+567515315+570190544+572763035+575139165+576951264
1778+578298910+580421233+584698037+590925122+596334792+597880438+596065786
1768+593312317+591062695+590360786+592136471+595732036+598820653+600256569
1758+600872578+601132830+601320071+603109555+608150824+615324324+620830351
1748+622424996+621452621+620042907+619542951+620765364+623442842+625823411
1738+627136769+629652905+635593232+642214859+643667858+640412852+636820448
1728+634811868+634543105+635748982+637785709+640561124+645458741+653744316
1718+663484045+669038827+667656408+662978860+659177695+658164773+660399987
1708+665368791+671439396+676592097+680985745+687046197+695198394+701291857
1698+702729232+701995772+700032847+696554490+693848986+694151367+697319319
1688+702688197+711196273+722770777+730994222+729548397+723217844+718803953
1678+718928881+723550439+730299061+735872081+739924440+744227811+748179498
1668+749224762+747998944+747740637+749785632+752520195+753733854+753659018
1658+754661849+759406512+769794713+783628566+790747535+788480101+786382217
1648+787798984+788518522+784476863+778343641+774245749+773604876+777049007
1638+784577535+792670337+793651952+785845360+776959764+772038499+770882289
1628+771482188+772522589+773891086+774884373+774111276+772404591+772448726
1618+774803884+775951765+772114976+765258873+759609315+756891045+756319050
1608+755896421+754492117+752847379+752138662+752315507+752401103+752136169
1598+752383959+753720479+755406495+756208407+755904567+755357010+755276096
1588+755561273+755970588+756672983+757581160+758073335+758322949+759933096
1578+763976579+768178548+768002068+764048557+761473392+762345398+764204611
1568+764141691+763211385+763641187+765710621+769799151+777784716+788771114
1558+793563803+788011331+780193128+774878537+772235770+771243639+770863869
1548+771149471+773550162+779363190+788394445+799304792+808846459+810278545
1538+802679681+794814059+792257132+794223947+796891152+798763193+802052486
1528+807793657+814024876+819462754+825991916+834403149+841081191+843396591
1518+843858795+844830440+846356997+848808024+853267084+860217902+869969546
1508+882259151+891473208+889444506+880935275+875401041+875702207+880239385
1498+885726201+889576729+891770665+894241693+898727137+905209610+911059721
1488+912894131+910792113+908193604+908264792+911787285+916983635+921283479
1478+924092634+927270799+932976650+941137358+947624877+947726826+943587594
1468+941087569+942666590+946051935+947419520+946516875+946279542+948494329
1458+952158590+953743508+951207493+946825457+942764222+939609098+937813230
1448+937729215+938323704+938034272+937434737+938552527+942223717+947889688
1438+954307965+958679302+958466407+955996960+955610077+958396070+962197661
1428+965177946+968146012+972052774+975439942+976323742+975494108+975539277
1418+977035377+978333963+979115875+979885324+979833164+978130856+975738251
1408+974253214+973958311+973799217+973111290+972878091+974648669+978554640
1398+982865184+985714583+986198491+983771598+979068700+974531704+972628477
1388+973991746+976797983+978238945+977697650+977334719+979200012+983340945
1378+988373338+992739811+995619242+997394258+999065319+1000971038+1002772864
1368+1004570676+1007307671+1011178869+1014410227+1015289953+1014842886
1360+1015613733+1018497967+1021825377+1023040616+1021733580+1020996533
1351+1024231539+1030157823+1033218962+1030778270+1026614114+1025432918
1342+1027926864+1031923234+1035819174+1039933967+1044956633+1050411290
1334+1055310669+1059015356+1061040350+1060749884+1058054107+1054075611
1325+1050378340+1048433592+1049669258+1053850679+1057842550+1058403542
1317+1055913000+1053193149+1052501575+1054847309+1059671549+1064824676
1308+1067963264+1067800706+1064394266+1059996667+1058687320+1062700833
1300+1069522103+1073741823+1071265142+1062798952+1053885209+1049833884
1291+1050933374+1052673739+1050498101+1043751363+1034630197+1025883876
1283+1019710775+1015926692+1011848071+1005401465+997431949+990314499+985188365
1273+981073693+976460403+971263506+966612281+963092220+959667968+954197141
1263+945759584+936455494+929429232+925405446+922441939+918545695+913056265
1253+906219858+899072073+893129314+888788130+884177211+876694703+865987950
1243+854542083+845094035+838283344+832927779+827664435+822032812+816637671
1233+812497042+810049297+808742444+807667634+806469964+805325730+804254750
1223+803053979+801814909+800926915+800642650+801123882+802838410+806289167
1213+811204109+816426478+820643889+823161848+824355628+825560107+828184879
1203+832616035+838127351+843813079+849038974+853001239+854988907+855577437
1193+856450477+858482948+860852331+862488436+863792554+866077558+869913313
1183+874743997+879735902+884984351+891698201+900444157+909882781+918514387
1173+926493994+933759169+938560004+940578858+942498924+946239175+950992592
1163+955586064+959907369+963848782+966625291+968050690+968773633+968526269
1153+967162635+966514770+968410094+972309257+975713143+976337967+974105428
1143+970882885+968542318+968169478+970392777+974626297+978765650+981732683
1133+984562629+987304730+987947791+985762853+982988775+981977494+983075039
1123+985600111+988347015+989768949+988993238+986771520+985765953+988981931
1113+996924880+1005880691+1011164157+1012458062+1012038716+1009839552
1104+1004850808+999164714+996693565+998314594+1001278952+1002772012+1001975328
1094+998873093+993461234+986777660+980550636+976112063+974300693+975307050
1084+978378585+982106434+984622144+983708496+978590446+971567711+965860888
1074+962495726+960549397+959271359+958889887+960037160+962542232+964874531
1064+964647776+959669306+950801157+942735650+938951203+937657967+935134718
1054+931976554+931949745+935609628+939388483+940456179+939249086+937419661
1044+936051407+936164845+938969137+944421848+950452573+954749865+957279497
1034+959561703+961320609+960011020+954654907+948138694+944085666+943485585
1024+945190932+947500496+948424357+947366935+947160849+950833316+956949090
1014+960652744+958673223+951307618+941157905+932086285+927078938+925415233
1004+923057401+916896276+907510541+897474996+888724663+881853179+876553057
994+872156187+868155502+864391116+860775064+857058218+853250001+849743558
984+846388183+842538385+838498427+835446468+833515641+831456360+828509997
974+824964099+821152417+817561837+814724413+812000976+808041568+802985770
964+798717720+796739171+796686829+797069639+797156693+797731364+799955696
954+804120399+809611896+815518301+821191263+826370287+830723022+833897721
944+836600793+840550231+846623511+853923885+861082917+867824487+874662292
934+881279238+886554801+890947901+896898381+905527858+914113748+918274196
924+916325071+910373619+904223801+900781919+900436010+901664868+902969594
914+903793817+904035466+903364987+901451608+899038029+897495179+896304865
904+893455465+889642506+888802903+893070710+899606073+903814182+904526304
894+904138935+905123711+907842163+911015525+913917753+916722774+918748863
884+918982366+918198692+918276749+919461593+920710998+921959308+923751832
874+925569646+926527369+927375240+929627476+932984066+935491022+936077973
864+935796018+936380354+937994574+939187199+939468546+940453565+943146910
854+945596965+945825058+945236770+945841472+947300246+948926381+951251628
844+953772871+954940935+955548312+958001284+961463046+962327574+960062815
834+958106273+959394889+963294355+967284341+969719866+969654271+966569970
824+961502135+957564309+958542215+965426526+975197016+983259848+985925107
814+982670223+977996931+977051609+979847025+982663718+983999327+985738232
804+988196311+988102508+983981514+978550931+973639759+968928896+965085663
794+964442237+968081329+973529177+976582292+975239084+969680655+960558820
784+949768234+940574907+934651297+930044998+923573771+915074207+907812436
774+904988752+907511027+914117092+921783497+927059424+928211683+926832425
764+927055594+931227592+937690977+942938210+944760401+943357374+940571320
754+938601525+938727609+941665279+947322252+952749249+954938200+955604667
744+958607263+963484027+965781918+964186970+962287208+962317178+962288059
734+959900256+956620386+956004194+959290508+964559140+969212554+972235515
724+972659968+968348633+960361123+954094523+953242761+955821209+957403756
714+957068121+957897026+961331856+965164693+967213944+968055371+968802935
704+968539825+967034484+967635174+973205093+980295369+981276436+974376319
694+965953961+962571351+963400803+962792210+958751462+954641290+952250082
684+948654882+940678193+929306249+919659350+915483279+916076734+917804149
674+917625724+915473005+912696009+909472068+905244931+902563744+904353046
664+908126368+911923946+914453395+913145812+907991226+903552410+902938042
654+902290117+895429819+883674580+875295566+875796739+883834950+894544013
644+903587609+908787485+909580096+907261171+907408531+915428930+927936232
634+933878201+928186575+916975549+907381175+901815937+898418494+894066915
624+887818066+882159147+878589844+873306136+864902806+862901885+875687799
614+898225721+916005668+917893453+904971790+887324372+874188355+869320892
604+871796600+875011484+869782853+855044288
##END=
