##TITLE=<SNM>
##JCAMP-DX=4.24
##DATA TYPE=INFRARED SPECTRUM
##DATE=29/4/2025
##SAMPLING PROCEDURE=Instrument type and / or accessory
##ORIGIN=Admin
##XUNITS=1/CM
##YUNITS=ABSORBANCE
##RESOLUTION=4
##FIRSTX=4497.3318
##LASTX=599.83466
##DELTAX=-1.4281778
##MAXY=2.2078068
##MINY=0.52107024
##XFACTOR=1
##YFACTOR=2.0561803e-09
##NPOINTS=2730
##FIRSTY=0.52786595
##XYDATA=(X++(Y..Y))
4497+256721619+258681501+260865895+262200997+262652196+262424437+261566768
4487+260343936+259424986+259442147+260457193+261900333+262816471+262354547
4477+260503110+258308396+257048431+257157513+258081072+259154499+260253146
4467+261309992+261755973+261167660+260113133+259593610+259962222+260860126
4457+261761539+262156269+261626048+260261320+258850182+258229838+258444524
4447+258900853+259271031+259639672+259803077+259256508+258102117+257327325
4437+257854095+259565462+261373823+262205085+262003589+261634339+261750639
4427+262095597+262042781+261439684+260637208+259850995+258902071+257897056
4417+257603175+258602219+260489659+262270511+263242451+263152675+262001560
4407+260343414+259320281+259581493+260463309+260970165+261120787+261441771
4397+261787831+261664110+261153775+260687966+260387998+260212649+260349212
4387+261078725+262309731+263379651+263600627+263006285+262170589+261334690
4377+260258711+259049823+258224968+257873343+257709996+257732056+257908796
4367+257590478+256320280+255030631+255147366+256443160+257054431+256112812
4357+255130263+255936333+258247289+260033764+259904854+258407970+257004514
4347+256426318+256256071+255902707+255501252+255497657+255859312+256347934
4337+257051097+257999731+258740463+258701126+257643555+255826179+254128233
4327+253629494+254505281+255716894+256280595+256302104+256310308+256335962
4317+256287523+256557895+257319121+257688052+256703589+254867022+253591896
4307+253416606+253842498+254512296+255508644+256751564+257840065+258326803
4297+257988832+257226417+257034023+258035647+259641991+260577087+260241898
4287+259238622+258463743+258026110+257416086+256498411+255728547+255447769
4277+255561460+255891344+256363443+256915028+257561316+258326658+258949959
4267+259099509+258922768+258828036+258649208+257797829+256426550+255556677
4257+255794930+256736287+257821281+258892099+259734897+260066840+260098784
4247+260347357+260922538+261549143+262019706+262203490+261960049+261350111
4237+260615090+259872968+259164413+258746289+258962424+259781249+260732927
4227+261337183+261418639+261065883+260521575+260086464+259971875+260250653
4217+260880679+261636281+262131832+262124034+261637789+260706142+259377678
4207+258134352+257779828+258538648+259594276+259925784+259437654+258885142
4197+258773074+258855052+258814730+258853574+259332949+260190242+260950627
4187+261067072+260262683+258949669+258162209+258531952+259479977+259961033
4177+259803106+259670689+259957526+260403826+260683502+260912943+261379708
4167+261827052+261509777+260388578+259586305+259904391+260697040+261025358
4157+261092871+261543461+262157921+262318022+262172966+262349822+262754234
4147+262577059+261522967+260291120+259679414+259833457+260496558+261417074
4137+262260887+262540940+262047737+261268945+261052143+261705910+262643529
4127+263132035+263088205+262779338+262211781+261387448+260734811+260633614
4117+260839400+260957120+261089828+261427596+261639934+261338980+260773104
4107+260494587+260681328+261142818+261559695+261526996+260898217+260130816
4097+259764436+259671298+259364691+258887722+258734288+259028633+259455801
4087+259857343+260263929+260466411+260152789+259432755+258837833+258842703
4077+259474817+260244159+260569927+260459599+260454873+260729709+260787917
4067+260382954+260089247+260448554+261174705+261742117+262083277+262192417
4057+261816500+260945525+259981615+259354197+259320658+259779249+260152180
4047+260104495+260127888+260584218+260759364+260007965+259132584+259335297
4037+260454062+261325964+261464643+261437684+261769800+262290107+262577726
4027+262487747+262202070+262079074+262356779+262857142+263150993+263119454
4017+263139311+263536795+264062262+264169691+263776063+263400667+263437975
4007+263663357+263611642+263150269+262576132+262310746+262454092+262665125
3997+262715912+262875607+263346953+263765482+263795282+263826560+264510446
3987+265769570+266672055+266372898+265054406+263668836+262878390+262728783
3977+263129484+263921699+264612716+264771193+264546971+264337474+264325966
3967+264685331+265660025+267121747+268537378+269531436+270058902+270011014
3957+269181956+267830185+266848621+267013273+268263731+269828099+270804098
3947+270730729+269988954+269509144+269741396+270117342+269861262+268946225
3937+267947674+267569844+268392756+270361914+272425602+273360379+273056788
3927+272359248+271983157+271995912+272049511+272124706+272934371+275089719
3917+277744995+278742995+276985595+273811984+271350609+270539756+271041162
3907+272517146+275218774+279107317+283037864+285410506+285281944+282758419
3897+279133377+276355163+275781287+277292810+279059777+279098476+278113810
3887+278584228+280946492+282826860+282915157+282688964+282713488+281549936
3878+279330844+278253561+279357977+281723198+284340905+286526488+287021459
3868+285744593+284535647+284337050+283995716+282429144+280380269+279243155
3858+280122536+284264696+292120861+299241745+298360277+291045057+283484772
3848+278941969+278176598+280593824+284728852+289038041+292806226+295872378
3838+297617893+297388076+295640937+293268614+290656849+288144455+286468889
3828+285984440+286235129+287263567+290207505+294815474+297550699+296324562
3818+293795674+292054189+290087959+287142861+284695487+284494948+287218780
3808+291896697+295862087+297852812+299690190+302273576+303380426+301911660
3798+299813882+298153244+296277660+294289631+293582960+295014332+298084079
3788+301782054+305329930+308094867+310004658+312145541+315604597+319753105
3778+323062612+325535785+328414152+332521178+338259304+345670938+353679435
3768+360703006+366071389+369992457+373377275+377492127+382417544+386445432
3758+388317973+389270462+391649163+397206229+405914904+414330162+418666309
3748+420575085+423654601+427885406+429913786+429318169+429179142+431744845
3738+438129432+447972844+457398104+460772979+457759295+454141268+454938932
3728+460714597+468453361+474223692+476495658+476495079+475370140+473166845
3718+470270911+468265982+469174177+473650743+478726955+478887723+472900909
3708+465286939+460458632+459970763+462886265+466482782+468162466+467790259
3698+467100431+467835393+470977581+476421855+482925612+488331592+489724004
3688+485803400+479402116+474358834+472984279+475947031+482038723+488954140
3678+495198106+499795610+501093752+499484220+498060444+498275535+497750561
3668+493928372+488166650+483378203+480766409+479610772+479107452+479485108
3658+480694779+481363360+480849025+480946454+483799631+489576629+495181757
3648+496117433+491824536+485184071+478735159+473826961+470981350+469989060
3638+470185425+471031876+472103825+473176643+475253347+479999849+485969328
3628+487745512+484355650+480676314+480246682+483746612+489882859+495488450
3618+497673859+497287390+497224081+498491786+500064329+501176021+501759144
3608+501313946+499464914+497249590+496304116+497280839+499495236+502015978
3598+504572723+507036939+508691229+508922959+508771294+510617310+515369378
3588+520235775+521313029+518753790+515645228+513645053+512740105+513156721
3578+515279689+518004565+519065006+517923283+517004884+519059962+524262272
3568+529765304+531904100+530066432+527031152+524997235+523446607+520786722
3558+517406368+515819099+517474026+520873802+523418314+524465768+525441506
3548+527333092+529369386+530099015+529164672+527450435+525710573+523966826
3538+522136695+520567804+519774749+520144984+521710629+523687497+524965986
3528+525208094+524496843+522446635+519032887+515646330+513926991+514118892
3518+515458198+517303113+519150984+520576269+521469564+521611374+520527916
3508+518328652+515798749+513591252+512169040+511908264+512647227+514094020
3498+516341927+518767589+519755791+518899658+517616705+516714597+515801242
3488+515329549+516567338+519352799+521556818+521256328+518837334+516340826
3478+515015898+514147010+512590410+510649777+509374709+509123267+509453672
3468+509829763+510065262+510203535+510355954+510310675+509441613+507636122
3458+505767379+504689661+504388707+504424711+504606002+504973744+505572347
3448+506249044+506291251+504737318+501669223+498563792+496763403+496046064
3438+495225645+494064442+493627360+494367193+495036701+494514162+493555992
3428+493125403+492538917+490846885+488753368+487765398+488171868+488772617
3418+488344405+487023768+485952602+485747482+485996837+486239149+486611326
3408+487208074+487439514+486676317+485367130+484782267+485530652+486793893
3398+487325881+487096006+487253179+488299068+489151954+488722989+487725452
3388+487459226+487892482+488430210+489138736+489841290+489555178+488086991
3378+486756498+486645532+487242744+487453429+487326751+487962980+489823607
3368+491977998+493300665+493696236+493617156+493233818+492673538+492308056
3358+492294490+492415138+492650347+493285011+494421401+495919271+497496104
3348+498754012+499496975+499940550+500167642+499806741+498923186+498225849
3338+498078358+498193441+498115637+497433490+496080734+494655508+493771663
3328+493542541+494092966+495556109+497217645+497832887+497228951+496599620
3318+497042673+498452710+499727894+499807901+498792102+497870456+497866977
3308+498519672+499290058+499918461+500128856+499569561+498276057+496898023
3298+496314494+497065110+499108361+501931101+504654412+506305571+506541533
3288+505918464+505124598+504300178+503575535+503639482+504739695+505851386
3278+506045142+505771321+505744246+505560926+504313165+502126365+500402620
3268+500387836+501629509+502278610+501435811+500471089+501144482+503343167
3258+505313658+505567535+504360357+503378880+503734969+504444596+503776422
3248+501795611+500220227+500216400+501489787+503022501+503666673+502533415
3238+500000323+497917243+497720588+498719632+499134335+498365572+497140885
3228+496116331+495641565+496118361+497454941+498780565+499265940+498629711
3218+496859759+494311826+492041772+491136591+491720411+493077341+494359308
3208+494838133+493878397+491378062+488352754+486436528+486412816+487579179
3198+488707104+489168361+488910194+487956835+486508245+485214595+484843084
3188+485481343+486307270+486357159+485266832+483261613+480911117+478902217
3178+477592537+476839746+476488962+476627670+477048257+477051388+476185341
3168+474841021+473823628+473369182+472808089+471431447+469505916+467935373
3158+467151624+467033178+467537744+468537716+469227921+468641232+466911892
3148+465269575+464590878+464497797+464153941+463455735+462915195+462724599
3138+462468460+461759789+460791009+460027493+459586324+459209132+458671316
3128+457890350+456800602+455498343+454462658+454277338+455003691+456009518
3118+456538202+456353114+455738596+455039433+454423495+453967659+453594235
3108+452896782+451524923+449913420+448966148+448768363+448435609+447500600
3098+446507354+446016412+445967393+446081432+446126770+445843643+445150626
3088+444327859+443755345+443637827+443970030+444526311+444898285+444724357
3078+444077750+443583938+443733140+444031369+443465232+441917909+440378644
3068+439718354+439938721+440509901+440933446+441092590+441122535+440836829
3058+439769460+438149028+437097313+437285300+437988724+437951823+436801925
3048+435245499+434177695+433901265+434022406+433967300+433647881+433451516
3038+433525319+433531784+433321939+433285124+433601848+433639358+432667940
3028+430824069+428819255+427113831+425930191+425637441+426396899+427592365
3018+428276135+428196447+427825226+427461658+427002082+426590220+426692722
3008+427223406+427302862+426359040+424901927+423776119+423225752+422938422
2998+422533314+421898505+421276422+420962336+420873430+420675818+420312105
2988+420031559+419930101+419772928+419247027+418244127+416975379+415891719
2978+415430316+415713065+416381993+416811973+416690542+416266969+415830206
2968+415304392+414672829+414262446+414209137+414152552+413748372+413033005
2958+412166987+411247109+410468635+410181335+410565311+411232760+411416516
2948+410785156+409772835+408885454+408167797+407559830+407230816+407341202
2938+407811244+408378221+408729759+408665376+408135678+407143910+405916875
2928+405078222+405058655+405428803+405437297+404997809+404488808+403933687
2918+403143995+402347954+401941832+401872521+401831532+401735031+401577249
2908+401246988+400813037+400550869+400534114+400577944+400531099+400314385
2898+399920727+399549274+399333429+398984500+398171386+397071289+396158601
2888+395702271+395675457+395866952+396002008+395925479+395637164+395202488
2878+394792887+394626728+394658238+394536923+394037778+393331136+392772015
2868+392610319+392794857+392921738+392587390+391893793+391357862+391253969
2858+391378733+391503150+391623132+391675455+391476887+391073460+390752070
2848+390635016+390560198+390358528+389995801+389464885+388755489+387953738
2838+387221558+386630231+386126506+385681307+385312145+384963998+384597213
2828+384350032+384352467+384427951+384241037+383756212+383321594+383208077
2818+383220020+382918312+382206018+381507000+381288517+381525263+381715511
2808+381428849+380772762+380182537+379850363+379615443+379303155+378866711
2798+378294951+377650576+377112442+376813256+376698638+376598049+376388726
2788+376080439+375758468+375509519+375463138+375702203+375951703+375672171
2778+374712058+373496415+372428699+371579871+371051941+371102148+371688286
2768+372224101+372049912+371111598+370026750+369432060+369387940+369488065
2758+369373272+368981383+368452380+367999992+367798815+367840210+367912275
2748+367825108+367634105+367523052+367498702+367354052+366951379+366399157
2738+365884648+365410491+364796379+363957233+363095679+362542182+362421475
2728+362533340+362553893+362320075+361931085+361599606+361454666+361515947
2718+361726516+361897719+361755214+361195571+360432490+359799855+359468377
2708+359379760+359322712+359052775+358560964+358220963+358382339+358863048
2698+359146145+358992712+358554934+358032222+357504784+357007582+356604184
2688+356392716+356391673+356424951+356303520+356068775+355841682+355617199
2678+355457823+355597864+356045729+356321261+355900064+354835739+353726744
2668+353067382+352800286+352566120+352224467+351970764+352028392+352356363
2658+352645809+352575107+352066917+351307054+350600673+350235250+350288704
2648+350469792+350373958+349990127+349699783+349737554+349921744+349977140
2638+349885625+349785993+349700131+349530087+349240177+348900235+348581627
2628+348296703+348043203+347885044+347909394+348035492+348006910+347715522
2618+347379812+347274411+347400741+347485444+347262903+346790862+346419612
2608+346360389+346464659+346516838+346467558+346301254+345951687+345407813
2598+344793122+344387434+344471267+344963745+345399522+345450483+345234465
2588+345032215+344982587+345058072+345117353+345008880+344732653+344484863
2578+344514054+344862867+345213709+345192345+344895073+344823733+345232899
2568+345823734+346088133+345768279+345024736+344264438+343824718+343812021
2558+344125179+344510401+344703896+344645370+344475934+344325313+344216231
2548+344119671+344036157+344079900+344369084+344727927+344751785+344332270
2538+343819790+343526982+343419175+343389521+343490457+343748450+343971861
2528+343908059+343558057+343239565+343257712+343568609+343903594+344126802
2518+344258176+344283686+344205911+344129701+344090509+344032330+344089843
2508+344530838+345287919+345905770+346053232+345799818+345372332+344904813
2498+344469006+344181909+344180517+344479877+344921017+345306355+345545593
2488+345667198+345739987+345758307+345627919+345365664+345206114+345325139
2478+345593134+345778599+345813849+345703317+345382275+344861939+344408218
2468+344408160+345009140+345923452+346662879+346967283+346933599+346793384
2458+346713724+346762772+346873651+346826401+346459673+345964412+345766946
2448+346031143+346489560+346848519+347069958+347138080+346933831+346550116
2438+346374941+346628065+347086279+347430048+347614180+347735640+347760048
2428+347596497+347344620+347267019+347501793+347926787+348345809+348713146
2418+349110485+349545334+349851767+349859681+349664040+349605021+349893800
2408+350387060+350824954+351131299+351370683+351603341+351912179+352374828
2398+352900092+353257630+353341232+353285546+353290822+353423529+353586152
2388+353600095+353323462+352748861+351976562+351059612+349912120+348410076
2378+346543883+344414132+342077261+339467757+336587186+333767432+331527497
2368+330051484+329055484+328266052+327701713+327484274+327768415+328778735
2358+330575298+332979972+336035341+340186342+345404016+350400308+353472519
2348+353874583+352212843+350000882+348616297+348372681+348836693+349680970
2338+350896293+352363436+353497883+353833768+353804809+354199307+355139563
2328+356285199+357481855+358624129+359542760+360402110+361616912+363238909
2318+364885923+366228678+367241868+368065708+368806672+369495689+370207345
2308+371094495+372187141+373238306+373890102+373990748+373725102+373430178
2298+373281266+373191606+373032955+372885116+372990632+373472500+374163111
2288+374762700+375126384+375317038+375428237+375481256+375482270+375463457
2278+375431715+375340461+375180563+375067538+375119775+375269063+375334228
2268+375259932+375127225+374985473+374858708+374847403+375034666+375327648
2258+375510215+375431280+375097425+374627297+374160126+373804123+373658285
2248+373810733+374226856+374703709+375050435+375265469+375446673+375620311
2238+375760961+375887001+376041537+376217842+376332808+376277064+376046088
2228+375816589+375788790+375943557+376054987+375936252+375583844+375117833
2218+374702695+374484328+374455427+374396030+374083133+373577930+373229320
2208+373359041+373896827+374341678+374249032+373767657+373479863+373721160
2198+374290862+374783745+374990546+375007214+375094352+375402089+375818300
2188+376151401+376397046+376720205+377212943+377760846+378187492+378501926
2178+378897671+379491085+380182363+380773197+381112009+381178131+381123836
2168+381165927+381402730+381807403+382331565+382885788+383279996+383367105
2158+383274894+383339248+383694931+384059484+384112735+383954519+383928777
2148+384138158+384417661+384670292+384964723+385360294+385811377+386245734
2138+386672641+387149262+387588431+387741488+387537731+387292782+387392095
2128+387908343+388652901+389408503+390000990+390344498+390541762+390807263
2118+391226952+391686905+392062185+392397605+392863907+393562142+394388823
2108+395087928+395468396+395625105+395912782+396614525+397641600+398635658
2098+399344648+399791238+400138282+400563595+401207999+402066103+402929280
2088+403535942+403790312+403820170+403847042+403978242+404117094+404139763
2078+404139995+404368537+404911483+405547712+405983605+406187246+406414426
2068+406872640+407467387+407990911+408437472+408936472+409484810+409972418
2058+410381324+410773648+411158580+411526003+411969897+412628042+413449360
2048+414147798+414531976+414814987+415427011+416518730+417754403+418647032
2038+419094666+419476351+420138786+420982483+421759565+422558534+423673617
2028+425163428+426830908+428481458+429966834+431160301+432118269+433109225
2018+434284603+435455227+436409282+437337624+438672900+440551992+442647741
2008+444543385+446126306+447549590+448956611+450413174+451987224+453617570
1998+455037607+456219450+457685433+459859536+462330042+464275517+465438430
1988+466220093+467096430+468245719+469494872+470597229+471669671+473093825
1978+474964597+476992398+478889694+480569174+482152936+483998112+486426208
1968+489218221+491640925+493228369+494337393+495687888+497604868+499959972
1958+502591855+505352270+507925191+510138834+512324706+514895888+517754051
1948+520519510+523168727+526033731+529167745+532019820+534014372+535303644
1938+536585147+538430700+541010288+544089978+547115286+549629129+551732849
1928+553928520+556548923+559426798+562013111+564000531+565899016+568433905
1918+571347087+573594646+574938648+576266590+578198643+580352165+582030689
1908+583103304+583944769+584857197+585927783+587257407+588922480+590732261
1898+592383478+593837750+595241062+596676260+598275588+600113604+601720933
1888+602354612+602013596+601493725+601501841+602225151+603445142+604748966
1878+605810334+606585880+607256606+608169961+609731837+611924376+613879910
1868+614436190+613424971+611725055+610091868+608735634+607664989+606894429
1858+606415315+606169960+605999916+605677395+605223442+604982841+605151900
1848+605665278+606578575+607594084+607258577+604557355+600847059+598103167
1838+596880915+596534392+596402844+596569294+597504100+598915818+599362060
1828+597982519+595708697+593577844+591486182+589158037+586988514+585443161
1818+584480932+583792002+583287784+583198559+583594304+583869690+583120871
1808+581286044+579499337+579131536+580556589+582653989+583684804+583082781
1798+581972886+581756578+583079128+585694545+588065303+588182299+586368459
1788+585069505+585736926+587656572+589317123+590186532+590590278+590793542
1778+591176764+592607730+595945703+600980578+605531527+607053225+605910807
1768+604181380+602948461+602762995+604311131+607234865+609705689+610744215
1758+611273943+612121553+613439581+615812543+619832546+624430398+627107792
1748+627049004+626025900+625700596+626329868+627673870+629558093+631482609
1738+633363179+636548676+641903985+646494183+646060696+642201692+638944131
1728+637675093+638033559+639334079+640999500+643161138+646980255+653438791
1718+661045949+665236461+663757433+659978378+657663450+657934605+660147610
1708+663059633+665322555+666316787+667366734+670577218+675823126+679916296
1698+681300417+681447038+679929920+676064654+672531360+672101815+674749177
1688+679120342+685052223+692289146+696709997+694549576+689267201+685580849
1678+685520960+688992510+693668166+696962309+699448265+702634341+704909903
1668+703676925+700504242+698760727+699230507+700339010+700683388+700760960
1658+702026056+705842158+713188192+722252753+725735087+722090710+718484424
1648+717919794+718570286+717540863+714867933+712680669+712527960+715122622
1638+720237505+725718970+727348503+723902811+719601681+717924259+719059083
1628+721231968+722930726+724396013+726149036+727502952+728135587+729194404
1618+731342418+732919020+731783558+729043956+727212781+727266815+728623572
1608+729934469+730274788+729976328+730000620+730800863+732207537+734025725
1598+736104922+737986420+739194989+740014133+741364454+743567314+745821308
1588+747422839+748896128+751209895+754492849+758181984+761987708+766251965
1578+771293392+775964293+777692212+776706039+776445726+778513212+780690214
1568+779816224+776369604+773023920+771644611+773593999+779982558+788543828
1558+790555019+783771875+775643279+770051196+767501871+767361859+768346641
1548+769683570+772011425+776517849+783531216+791896122+797936244+796482494
1538+789633315+785058770+785367840+787870088+788515826+787260354+787776399
1528+792084718+798673584+804914130+810689940+817258630+823394066+826606463
1518+827028876+826024557+824722008+825137986+829281653+837270932+847731151
1508+858993354+867416642+868502592+864773744+861818761+862004342+865312226
1498+870150620+873999594+875974840+878153407+882847267+889779700+895608789
1488+897375089+896436920+895940413+897357580+900467301+904237776+907774549
1478+911214039+915482760+921166504+927781749+933637450+937085809+938521761
1468+939520283+941403810+944951947+949977314+955276328+959712369+962784463
1458+964298625+963960103+960779650+954647926+947672185+942639339+940602523
1448+939915158+938474569+936233387+934263881+933461608+934808335+939052184
1438+944830371+947786398+945826632+943247276+943367982+944264176+942850719
1428+940187994+939871270+942722360+945982820+947403582+948458109+951648185
1418+955922124+956840117+952794082+947216377+943803730+942843646+942756740
1408+943294584+944797672+946199302+946840228+948432657+952154142+955763791
1398+956067818+952951429+949175505+947725929+949982532+954989579+960100576
1388+962400082+960764693+957389499+955593573+956480608+959081241+962964131
1378+968696575+975654401+981595906+984963737+986089401+985788969+984808361
1368+984643361+986628578+990178106+993348819+994905940+995070476+995064447
1358+996402883+999585190+1003264701+1005498287+1005978909+1005639981+1005220118
1348+1005497592+1007292183+1010644129+1014573632+1018000714+1020989614
1340+1024734637+1029300254+1031995794+1030943180+1028569987+1027982921
1331+1029150096+1030399480+1031227379+1032015970+1032926310+1034838709
1322+1039019017+1044439897+1048234780+1049737056+1050132105+1049018964
1314+1045320322+1040984059+1040559790+1045788769+1052861272+1056734538
1305+1057625630+1060122197+1066018133+1071777477+1073741823+1072275376
1297+1069313378+1066150782+1063586152+1062150316+1061897308+1061624589
1288+1059584758+1055662212+1051381954+1047571417+1043657336+1039655247
1280+1036677943+1035353421+1035320027+1035264486+1033180361+1028166589
1271+1022755913+1020718517+1022289669+1024304918+1024357329+1022870822
1263+1021053387+1018576533+1013893457+1007254499+1001136051+997384186+995887707
1253+994424623+990263099+983586921+977617355+974584974+973309500+971132324
1243+966950915+961181946+953973316+945329139+936356354+928835464+923426817
1233+918962485+913682197+907135305+900694394+895944703+892927221+890117410
1223+886215736+881717429+878282230+876958926+877259880+877684786+877110359
1213+875831349+874952200+874581384+873612024+871984230+871640721+873971650
1203+877751749+880674265+882206457+884009688+888038388+894735611+902049353
1193+906569458+907088692+905836873+905296246+906205542+909005440+914423653
1183+921608049+927451749+929259038+927693393+926106936+927602197+932681888
1173+938898316+943957541+949108137+957169306+967866589+977476705+982880309
1163+984902398+987855121+995540894+1006933195+1016381790+1019503107+1017605781
1153+1014919517+1014916387+1018819569+1024511081+1028347823+1029184418
1144+1028347127+1026545230+1024378896+1024064549+1027233406+1031889814
1135+1033691363+1030610745+1025092117+1020827744+1018833715+1018273434
1127+1019670658+1023962164+1030166416+1036227816+1040451954+1041913995
1118+1040983827+1038959418+1038083515+1041806739+1050747116+1059820605
1110+1063078977+1061191044+1058391610+1055318530+1049911796+1042030643
1101+1034187174+1029108121+1027465311+1028788209+1032424701+1037079137
1093+1041306058+1044262954+1045027891+1043529093+1042560196+1044619855
1084+1047381720+1046444362+1042375832+1039619533+1039131375+1037508044
1075+1033244251+1029785746+1030795689+1035346696+1038848799+1038074934
1067+1034039683+1029430468+1025961295+1024432350+1024359880+1025108467
1058+1026620715+1028045767+1028115339+1026023561+1022552881+1020139800
1050+1021097797+1025123077+1029704811+1033356841+1036057715+1037035191
1041+1034970199+1030206652+1025096524+1021199835+1017659235+1013878731
1033+1011489652+1012736022+1016220965+1016486263+1011842610+1007049032
1024+1006151910+1007123705+1005272760+1000392217+996920493+997658065+1001540608
1014+1006092310+1009052453+1009517538+1008135388+1005811358+1001931367
1005+994860719+985557064+978379625+976790384+978911729+978764934+973154472
995+965481105+960383674+957987232+955035380+949370188+941808020+934627739
985+929484101+926748615+926209438+927643824+930018408+930553006+926793952
975+919770729+912731041+907518933+903956070+901612387+900365437+899713554
965+898866002+897135416+893862260+889068507+884317251+881286841+879473812
955+876855670+873206076+871033828+872546772+877191352+882823787+888404043
945+894512635+901559339+908627725+914281785+918025823+920568944+922598107
935+924057829+925075135+926816389+930251008+935181817+941204431+948326735
925+956764806+965488120+971261495+971415537+967358545+963126464+961419938
915+962516092+964934217+966505021+965542792+961868963+956338682+950250091
905+946122774+947036767+953729468+962538529+967636250+966317352+961787565
895+960011525+964134437+972429423+980913064+986867556+989545587+987559443
885+979184333+967273610+959276910+960109041+967292336+974207550+976784819
875+974493836+967743912+959178351+954695930+958442576+968344486+978938746
865+987060268+991614870+991294146+987750068+986610258+991412417+1000872028
855+1011273401+1016552240+1012510843+1005023579+1002993720+1006734569
847+1009566006+1008097239+1006018449+1008135620+1015268997+1023120815
838+1025772525+1021758029+1014680308+1008878641+1007084049+1009168637
830+1012156377+1013944244+1013997118+1012543078+1011357583+1012966883
821+1018108434+1024804324+1031505664+1037961649+1042602403+1043511352
813+1042388239+1043450709+1048438508+1055238175+1059232612+1058098715
804+1054666647+1051526430+1047695370+1042774592+1040558166+1044240923
795+1049951336+1049612292+1041977305+1034431601+1032574859+1034951415
787+1038612257+1043544746+1048275943+1048110363+1041622259+1032198594
778+1023243144+1015993930+1010574673+1008005985+1007698016+1006564004
770+1003892350+1001665836+1001204230+1002828720+1005656098+1007249281
761+1005460255+1000628180+996866228+999464252+1008536118+1017769158+1021410520
751+1020745650+1021167600+1024688952+1028968746+1031086381+1029454702
743+1024645934+1020589347+1021038198+1024405333+1025050607+1019181571
734+1008098979+996706909+989300696+986661045+986307855+986371049+988167960
724+993292466+999419147+1005140575+1014215920+1027623933+1038831175+1042103229
714+1040407081+1039394006+1039650145+1040165552+1042499206+1046860051
706+1050178254+1052101437+1054622701+1057298993+1059567597+1062302793
697+1063915224+1058057900+1041674902+1023326282+1013927547+1015693034
688+1021100116+1023797396+1024646397+1027631586+1034354841+1038455605
680+1036258428+1031192129+1028311066+1027036056+1019524094+1002684940+982141809
670+965295814+960263953+969579609+984016292+989954783+984274402+976048870
660+973198418+977640314+984435923+984332378+974907321+964069503+959282360
650+960479914+964250041+970202852+980568686+993369806+998812369+991229445
640+979400816+974516910+977406206+980014435+978948486+979941501+986083487
630+990551588+983527322+965643090+948082192+940445466+944304122+953233309
620+958365062+952838144+934211587+916825080+910531428+908269085+904878586
610+902118576+906747213+921628747+938986150+948277397+947452339+939684703
600+928015103
##END=
