##TITLE=<SNM>
##JCAMP-DX=4.24
##DATA TYPE=INFRARED SPECTRUM
##DATE=29/4/2025
##SAMPLING PROCEDURE=Instrument type and / or accessory
##ORIGIN=Admin
##XUNITS=1/CM
##YUNITS=ABSORBANCE
##RESOLUTION=4
##FIRSTX=4497.3318
##LASTX=599.83466
##DELTAX=-1.4281778
##MAXY=2.2122755
##MINY=0.63217807
##XFACTOR=1
##YFACTOR=2.0603421e-09
##NPOINTS=2730
##FIRSTY=0.65155971
##XYDATA=(X++(Y..Y))
4497+316238601+316937104+318434002+319921817+320659750+320131151+318190850
4487+315495894+313725554+314459987+317202214+319345657+319116073+317571180
4477+316670403+316827056+317360979+318301274+320116570+321982870+322099513
4467+319875848+316528764+313613163+312256457+313212779+316091611+318948079
4457+320049859+319618057+318932776+318669922+318691880+318653259+318503983
4447+318514571+318588717+318050802+316556363+314731143+313779276+314496091
4437+316403152+317938469+317976367+316776950+315099300+313489982+312645877
4427+313088932+314293353+315137198+315285809+315414834+316173597+317432406
4417+318433106+318543587+318033647+317989559+319138406+320797947+321355794
4407+320077082+317915991+316152999+315119290+314687807+315080930+316391262
4397+317931931+319034145+319986474+321108042+321638811+320709393+318736171
4387+316765639+315084025+313439557+312013478+311495149+312245522+313512981
4377+313989449+313520560+313372528+314173412+314739041+313799643+311959322
4367+310973637+311759535+313733510+315670368+316849650+317437439+317913416
4357+318268150+318048748+317246707+316654897+316891829+317453900+317440043
4347+316738763+315692239+314305677+312685539+311444059+310933164+310939066
4337+311411051+312492580+313831147+314832686+315617196+316847480+318637579
4327+320259858+320826008+319895260+317716667+315283812+313673134+313025895
4317+312651779+312236004+312138425+312348945+312340497+312187229+312541615
4307+313416269+314162476+314403141+314173383+313760964+313843211+314800082
4297+315898275+316147473+315552481+314838501+314655927+315359000+316716169
4287+317750514+317608904+316585466+315580311+314691915+312965750+309960584
4277+307207249+306831599+308932748+311429594+312611306+312792839+313131111
4267+313906856+314463227+314400855+314049536+313742218+313573096+313777425
4257+314542292+315571950+316332593+316578841+316493065+316440761+316476026
4247+316151755+315269232+314447634+314126430+313641688+312311684+310722471
4237+310040024+310702741+312235281+313750983+314505233+314445841+314221203
4227+314411675+314880159+314991943+314322109+313034111+311761155+311261630
4217+311937162+313361853+314463025+314619910+314277298+313937347+313245325
4207+311953334+311002682+311440703+312864729+313961388+314043316+313344756
4197+312378858+311739603+312094626+313608940+315479347+316493441+316120598
4187+314763342+313023725+311233481+309658242+308725034+308816480+309758222
4177+310663542+310780822+310357178+310200930+310807842+312360690+314735483
4167+317065406+318228748+318085055+317571527+317692568+318724657+319875241
4157+319793804+318093560+316018072+315064122+315470928+316447328+317235801
4147+317512338+317133593+316103992+314989542+314624162+314976726+315178220
4137+314947536+314969031+315623242+316337772+316451233+315983270+315377370
4127+314863091+314367095+314044676+314323122+315073235+315391343+314704760
4117+313537802+312846850+313033098+313695352+314291589+315005945+316368148
4107+317976772+318611369+317913185+316948878+316877856+317818267+318893489
4097+319016874+317941449+316484762+315426608+314753448+314303710+314299024
4087+314773323+315222829+315219705+314814316+314199275+313557474+313285363
4077+313789662+314919793+315969731+316418224+316424242+316347087+316082006
4067+315353532+314403459+313722604+313338333+313080224+313206733+313943393
4057+314696283+314690353+314202660+314206276+314999985+315956770+316410066
4047+316128959+315199801+314046267+313228141+312893137+312803253+312814825
4037+312867621+312855731+312986985+313693240+314796379+315447119+315079107
4027+313903905+312616687+312044809+312642810+313862188+314550739+314337268
4017+314130799+314850304+316065516+316371214+315087757+313176039+312132350
4007+312375328+313235142+314199246+315385789+316801424+317859810+317902394
3997+316928483+315635450+314788974+314615946+314802889+314848771+314358329
3987+313365787+312503023+312551943+313645767+315027005+315846665+316133298
3977+316614048+317658750+318781272+319172080+318409702+316691348+314769273
3967+313633761+313818534+314897286+315837291+315932961+315402626+315058018
3957+315425740+316272478+316955705+317112243+316953738+316912253+317151818
3947+317628345+318396278+319267374+319372301+318004284+315850252+314327722
3937+314082978+314931625+316468822+318066714+318938012+318867598+318420087
3927+318122287+317926001+317520322+316919399+316644366+317161597+318145460
3917+318629595+318060986+316909216+316055391+315845883+315888815+315932788
3907+316730952+319268618+323069953+326223325+327681632+327916279+327053544
3897+324768374+321809206+319826321+319834913+321034850+321454530+320756259
3887+320667822+322200101+324182581+325141767+325187418+324559474+322975006
3878+321272390+320793578+321457626+322378220+323704666+325808881+327315934
3868+326923072+325885429+325878312+326433151+325736500+323437820+321147531
3858+320667041+322967745+327747388+331905048+331156121+326503363+321760286
3848+319027433+318885707+320845420+323619584+326185022+328466315+330309789
3838+330751629+329658210+328415515+327861544+327408017+326164569+324219264
3828+322521247+321927296+322938006+325841224+329817756+332192491+331672860
3818+330339615+329750003+328734173+326009189+322622124+320520455+320898216
3808+323316721+325656915+326842272+328399893+331373787+333940093+334128134
3798+332575460+330526789+328609111+327450861+327540051+328707327+330446047
3788+332466685+334589704+336377258+337632045+339054450+341341789+343874016
3778+345575620+346756927+348582985+351753078+356469742+362239497+367534693
3768+371170407+373345442+374510635+375031741+375955113+378208575+381121254
3758+383068296+383783346+384742445+387800495+394043276+401980833+407853954
3748+411039235+414613560+420423961+425904335+427719573+427373345+428438558
3738+432943660+440424682+447981382+452463689+453585140+453660473+454692474
3728+456963786+459639041+461814307+463020493+462942615+461119131+457682366
3718+454104135+452259504+453165836+456427173+459913350+460943876+459283295
3708+457013314+455804871+456059422+457318144+458512353+458797569+458814406
3698+459948876+462447284+465181844+467222559+469059235+471414240+473155303
3688+472921668+472203523+473019739+475040754+476338183+475966584+475445217
3678+477243387+481579194+484769856+484473503+483140634+482598206+481278646
3668+477821456+474025791+472036253+472050891+472909402+473589998+474007682
3658+474630562+475724791+477164323+478706785+480216008+481580409+482233463
3648+481230854+478663825+475847105+473846342+472856346+472679992+473323962
3638+474725277+476216477+477142712+478000009+480236432+484388305+487646692
3628+485774144+480437521+476947785+477809797+482213473+487607463+491158442
3618+491558884+490422708+490188610+491226137+492173404+492413288+492563721
3608+492632400+492151881+492043338+493802829+497249315+500323941+501367023
3598+501112154+501329877+501925188+501182568+499157793+498331914+500115012
3588+502344261+501940521+499612738+498276485+499050175+501057824+503118356
3578+504607646+505319601+505287720+504971810+505206255+506623395+509168554
3568+511844068+513095500+512448637+511116029+510225637+509778271+509569227
3558+509668571+509531098+508164411+505649744+503640822+503751565+505722878
3548+507269506+506165846+503327400+502195910+504301225+507651549+509828782
3538+510794275+511446288+511223531+509135400+505835414+503021905+501706134
3528+501874504+502966997+504053588+504039529+502648657+500847680+499474108
3518+498537429+498175521+499097388+501340812+503399319+503742249+502738743
3508+502052651+502315100+502341831+501085481+499304697+498463428+499011931
3498+500441915+502053172+503107710+503063737+502253306+501657359+501687446
3488+501739171+501106136+499957694+499151487+499084312+498928035+497621753
3478+495628743+494554822+495004502+495918211+496172964+495812445+495350962
3468+494829132+493981150+492725726+491290187+490257752+490262380+491187777
3458+491862933+491112329+489060939+486708624+484709915+483420267+483280682
3448+484270823+485616709+486586368+486983454+486718402+485707317+484191209
3438+482530396+480967567+479873078+479575017+479724582+479472867+478429091
3428+477019010+476060894+476323950+478056450+480406479+481819251+481568230
3418+480348823+479177960+478497365+478396488+478847035+479650697+480378331
3408+480412728+479364729+477641225+476310006+476196863+477207428+478487702
3398+479283147+479689433+480162401+480438678+479961312+479124122+478664114
3388+478265177+477229038+475870943+475075180+475200126+476101656+477560541
3378+479368721+481376630+483255832+484112868+483161001+481007924+479508566
3368+480088255+482453733+484930878+486108569+486099832+485978039+486287816
3358+486675413+486927794+487555969+489013147+490907566+492431513+493241597
3348+493500574+493316871+492688870+491914601+491475162+491550958+491843030
3338+491800793+491084151+489829364+488538414+487798282+487851165+488294481
3328+488246863+487189490+485800354+485310230+485846930+486258192+485938174
3318+485731791+486388432+487285073+487289065+486049321+484147410+482580241
3308+482143319+482871735+484168181+485493875+486566349+487155064+487190821
3298+486844535+486328433+485871405+486014258+487352999+489572933+491294642
3288+491471980+490602475+490015843+490433064+491672982+493394923+495540334
3278+497844626+499376442+499208015+497649352+496111113+495352929+494832256
3268+494005393+493250507+493083700+493239919+493070277+492414156+491733734
3258+491448721+491311248+490667625+489351854+488071724+487690664+488243796
3248+488840959+488594306+487626557+486752828+486268144+485790460+485296315
3238+485395515+486320101+487309721+487256375+485828300+483878712+482530714
3228+482086907+482170600+482673510+483925318+485871347+487567425+487762583
3218+486160294+483730478+481548355+479893270+478617509+477604803+476642898
3208+475700519+475186645+475234436+475182016+474357294+473083269+472365297
3198+472718178+473691916+474538595+475007514+475234436+475219827+474832953
3188+474038231+472896211+471653689+470771455+470429104+470214852+469685934
3178+468884356+468053646+467225770+466312553+465477127+465188411+465613125
3168+465995602+465222779+463190483+460969682+459515309+458874782+458706441
3158+458893615+459270190+459225609+458214003+456478494+454755193+453427012
3148+452398684+451519604+450701854+449948443+449563854+449985386+451149364
3138+452323178+452744015+452175609+450902682+449550286+448730367+448468815
3128+448109743+447024395+445303351+443761525+443384573+444448860+446024187
3118+446746585+446117976+444588127+442742339+441131950+440357507+440541181
3108+441076261+441257475+440778374+439660712+438305741+437432360+437342563
3098+437515619+437402939+437223865+437457326+437892715+437753217+436756654
3088+435697806+435683804+436794465+437841973+437723304+436607985+435386524
3078+434571320+434162981+434035864+434037600+433912827+433463263+432771038
3068+432170925+431903125+431778757+431418209+430774498+430136285+429727858
3058+429492662+429183203+428650148+428096438+427855455+427873941+427728484
3048+427237087+426804996+427043202+427991597+428760196+428337594+426848477
3038+425396101+424628920+424244505+423924805+423899839+424287176+424602681
3028+424281535+423232436+421797099+420430760+419422712+418737951+418137230
3018+417553896+417218400+417342739+417844029+418355156+418395483+417728109
3008+416686763+415960257+415908213+416241046+416481450+416484025+416343775
2998+416039292+415449651+414702750+414256802+414430813+414894784+414945266
2988+414415017+413854537+413571549+413148021+412307041+411540033+411360931
2978+411566446+411638509+411381587+410929390+410426942+409876588+409314661
2968+409018799+409253678+409814823+410179769+410082363+409608845+408923477
2958+408203364+407633829+407252857+406880939+406301713+405499730+404773050
2948+404558769+404919028+405290801+405068593+404368558+403855898+403929668
2938+404471431+405174244+405624908+405256895+403883352+402227457+401339496
2928+401526930+402221353+402750763+402897667+402794128+402612567+402308865
2918+401531587+400063213+398353191+397141537+396658965+396561385+396470605
2908+396197452+395596269+394754710+394249312+394688895+395985399+397338345
2898+397923935+397496965+396406179+395220735+394399745+394165329+394458096
2888+394946888+395262827+395335296+395330783+395280561+395113378+394963812
2878+394997747+395050630+394838548+394335695+393655650+392948295+392603108
2868+392937417+393526132+393572998+393083887+392861767+393211090+393515197
2858+393318303+392979452+392878170+392730195+392154151+391326276+390650628
2848+390243011+390031710+389983311+390004893+389936909+389795848+389745945
2838+389737931+389462696+388807328+388120628+387848662+388066125+388464108
2828+388647753+388384292+387715355+386962321+386536479+386581985+386819177
2818+386900556+386857798+386906168+386944674+386687953+386132507+385478816
2808+384847488+384387104+384323402+384680131+385178297+385418180+385100390
2798+384323054+383642199+383462547+383498680+383249221+382774980+382522165
2788+382549185+382406100+381803180+381053964+380696078+380828488+380947706
2778+380435481+379215003+377896311+377164047+377073440+377112090+376875707
2768+376476220+376312074+376579845+377071068+377429938+377475155+377199254
2758+376660096+376048815+375675220+375692346+375911921+375944959+375527130
2748+374779679+374129460+373886654+373954841+373987387+373711573+373066012
2738+372181406+371335276+370845066+370852645+371130339+371199539+370830717
2728+370385087+370421943+370971343+371453366+371367880+370790649+370097991
2718+369525071+369147917+369036278+369197965+369435100+369418524+368965517
2708+368191277+367378069+366803877+366689258+367043586+367453806+367320991
2698+366496935+365501500+365003768+365164934+365499475+365412715+364907925
2688+364578707+364826517+365377335+365714710+365695009+365511770+365281780
2678+364928580+364399605+363820234+363398818+363223765+363192695+363156186
2668+363092917+363089099+363182338+363311538+363394392+363374980+363199118
2658+362794654+362118688+361253957+360451337+360016787+360084308+360476650
2648+360855250+361049252+361135751+361156464+360999551+360700188+360530401
2638+360580218+360575155+360287220+359823422+359387310+359042384+358798827
2628+358702925+358756908+358866840+358930224+358950649+359022972+359188825
2618+359326732+359238728+358872076+358442762+358263139+358375096+358485723
2608+358399021+358277459+358306042+358424971+358564266+358739405+358825702
2598+358710707+358622559+358785316+358947813+358788007+358501026+358456533
2588+358589551+358590563+358419156+358283477+358319060+358493360+358696127
2578+358827785+358855268+358785345+358600081+358325627+358137846+358213496
2568+358444527+358514652+358335694+358175483+358246736+358402666+358360661
2558+358045763+357609998+357241784+357051138+357089730+357351860+357668349
2548+357749236+357519188+357271899+357298109+357504724+357570943+357374888
2538+357138563+357147242+357352439+357386691+357083019+356768092+356819066
2528+357153317+357395139+357347232+357075844+356703927+356347168+356145819
2518+356163061+356298480+356401874+356416744+356388566+356431845+356691950
2508+357187570+357680875+357862900+357715301+357558417+357681599+358023603
2498+358288510+358286022+358058608+357766738+357576151+357579130+357715678
2488+357828069+357830701+357757567+357665022+357564984+357438215+357322063
2478+357388514+357806372+358484999+359104987+359422922+359402816+359101892
2468+358638991+358227209+358005320+357845426+357519420+357058197+356759066
2458+356794302+356986423+357055362+356942942+356809461+356846260+357146519
2448+357603460+357882427+357678590+357113134+356706212+356791554+357101476
2438+357152912+356926568+356856298+357202845+357758869+358182773+358369629
2428+358442676+358548905+358721035+358876444+358931931+358914226+358920533
2418+358992162+359105016+359277320+359567107+359900722+360028243+359807598
2408+359467647+359408487+359744011+360198985+360483535+360621992+360843013
2398+361242182+361670020+362004764+362480133+363604796+365765655+369112363
2388+373848467+380403832+389304655+401064839+416091192+434360540+455203629
2378+477721794+501340002+525369530+548196054+568358693+586760394+605770135
2368+625564270+642959571+654333374+658718795+657609060+652775752+644357039
2358+631089397+612499712+589289641+562935976+537125607+517211877+506940694
2348+507362601+517631528+534424807+551545048+563630515+569822062+572526333
2338+574745804+577976475+581446162+583644399+584093384+583187428+581197716
2328+578073158+573849742+568869877+563548587+557946796+551653418+544256436
2318+535976817+527652530+519960699+512845318+505663977+497724221+488814980
2308+479415500+470360628+462177806+454756813+447668134+440740042+434246182
2298+428517940+423534200+419039107+414931582+411288491+408024724+404853069
2288+401698337+398840971+396503758+394627160+393168217+392226591+391720614
2278+391301512+390721592+390007554+389273989+388629932+388174466+387842413
2268+387352955+386516315+385546656+384894730+384723120+384693641+384407326
2258+383889488+383419355+383069916+382684054+382166824+381599285+381151543
2248+380959625+381018381+381199161+381393191+381568128+381718330+381871598
2238+382105522+382410815+382558963+382279967+381611059+380913078+380483909
2228+380291730+380121451+379831520+379409034+378895333+378368469+377962762
2218+377786234+377758953+377633949+377263854+376744656+376249152+375871854
2208+375662983+375656184+375848594+376212614+376672767+377099795+377418656
2198+377666437+377919049+378259028+378737580+379246913+379597625+379820787
2188+380161721+380703426+381226181+381476740+381415814+381216750+381123019
2178+381270617+381609410+382014973+382411278+382738499+382931633+383038961
2168+383237012+383591399+383924637+384070297+384110625+384173055+384186594
2158+384096189+384124193+384504876+385099377+385552095+385715865+385706202
2148+385666974+385693994+385888429+386287396+386762852+387124789+387334151
2138+387528355+387845393+388311823+388883817+389498829+390128451+390864619
2128+391849177+393062595+394341626+395590396+396758280+397700253+398334271
2118+398846555+399522232+400443202+401426515+402178682+402543107+402648613
2108+402724639+402807522+402763723+402516723+402125568+401703776+401319071
2098+400938880+400502884+400060349+399786879+399860418+400267745+400662517
2088+400578592+399970147+399363467+399291780+399757631+400379210+400851339
2078+401084511+401075311+400909198+400852439+401178358+401828838+402435287
2068+402749635+402890608+403100549+403442959+403840623+404241702+404623340
2058+404942577+405184977+405386673+405584522+405848330+406322831+407091228
2048+408035631+408959147+409811670+410693759+411642531+412510444+413153605
2038+413681770+414333060+415146152+415981896+416814429+417773789+418947371
2028+420272718+421551604+422571744+423348877+424200735+425468367+427219556
2018+429219625+431086329+432521579+433519328+434363086+435376023+436645623
2008+438035308+439494338+441180985+443143041+445090921+446682564+447867834
1998+448851003+449902040+451241736+452918547+454754904+456498629+458008054
1988+459278145+460388199+461460875+462600581+463841309+465203049+466754306
1978+468494155+470226048+471734807+473075573+474543803+476403940+478713179
1968+481257701+483618087+485524771+487186771+489048499+491271904+493678085
1958+496135240+498708750+501350243+503772394+505826619+507725030+509709651
1948+511782101+513925256+516298458+518977560+521718397+524245793+526583701
1938+528826778+530891070+532767090+534686793+536819996+539127007+541578029
1928+544188336+546934844+549877783+553066392+556247420+559118325+561712606
1918+564068797+565970795+567421262+568775567+570176506+571346010+572006355
1908+572337308+572925907+574158246+575794555+577345639+578594583+579529931
1898+580241018+581039298+582134800+583274738+584202622+585100883+586226992
1888+587573891+588960077+590071490+590608884+590681613+590732818+590989191
1878+591342420+591656131+591963420+592522107+593594639+594940786+595719683
1868+595270408+593892207+592391808+591228959+590426744+589875290+589478146
1858+589154251+588869527+588561081+587928046+586612391+584808232+583362741
1848+583026349+583786905+584779360+584664279+582850226+580264046+578179792
1838+577024059+576352200+575634112+575012244+574952418+575240440+575041868
1828+574285767+573722973+573202589+571591737+568743918+565880593+563860794
1818+562544387+561627611+561096928+560919301+560898877+560739418+560094001
1808+558930283+557802265+557380183+557850635+558867680+559770511+559932459
1798+559460098+559401603+560786689+563448722+565693882+565921152+564890279
1788+564569509+565610739+567042806+567794973+568065464+568743397+570140229
1778+571972160+574174446+577092448+580726918+583952961+585395096+585301190
1768+584867942+584702813+585065531+586296886+588230301+589934942+590891930
1758+591544984+592279099+593178343+594735213+597641180+601608859+605040996
1748+606777402+607318730+607603628+607945922+608310144+608771627+609544565
1738+611015745+613775503+617952574+621959482+623680671+623727710+623714229
1728+624049232+624656925+625580817+626695123+627863065+629523849+632436123
1718+636461950+639509903+639422421+636957860+634440011+633484238+634576095
1708+637452843+641251169+644650789+647185996+649866776+653176599+655430438
1698+655426966+654449612+653432046+652448444+652244954+653579182+656050860
1688+658816519+662159205+666673479+670335315+670135702+667483967+665767118
1678+666834269+670508835+674740524+677599857+679733523+682573762+685230415
1668+685450916+683738174+682774128+683799620+685668870+686654845+686805221
1658+687446240+689728719+694360562+700463122+703857766+703230864+702729458
1648+704458169+706961553+707600316+706350273+705172785+705338724+707084214
1638+710037452+713511652+716446780+718101084+719189990+720948787+723792325
1628+727123150+730468788+734699321+740859913+747920734+753805512+758624239
1618+763895192+769266241+772640288+774326819+776370572+779093994+781471940
1608+782908752+783206494+782077260+780052601+778663812+778963232+780568414
1598+782362332+783741516+785240932+787869638+791543452+794680624+795892422
1588+795668103+795798054+797455714+800256262+802938084+804756823+806195370
1578+808235015+810839479+812353822+811995675+811545474+813177040+817611178
1568+823364559+828124444+830791048+831608017+832053647+834548063+840819572
1558+847927316+850396447+849054871+847564250+847861298+849576586+850847805
1548+850431915+848922027+847809225+848360274+851241246+855458877+857378001
1538+855174326+851890540+850016893+849195931+847956881+846282269+845447711
1528+845671163+845744643+845142505+845274829+847407221+850644200+853353678
1518+855637256+858312308+861318140+864187135+866911541+869929060+873720269
1508+878190743+881936649+883740056+884703986+885893798+887169068+888296161
1498+889239089+889682925+889732221+890767665+894264720+900041881+905422361
1488+907465072+906758672+906107758+906990686+909159125+912264763+916430031
1478+921175335+925222571+927715888+928857850+929034031+928260167+927042583
1468+926428178+927065495+928603213+929765889+929661512+928927570+928829557
1458+929627491+929422438+926406076+921825439+917481560+914373839+913028618
1448+912864009+912298958+911058693+910600392+911198538+911204324+909903770
1438+908666340+908436293+908262889+907963701+909084892+912321523+915915781
1428+917014349+915054839+912359363+911698208+914141014+918263177+920409630
1418+917666188+912477569+909440609+909488690+910514761+910707489+910200297
1408+910165524+911496049+913766898+914794069+912739554+908980225+907358611
1398+910062304+914792738+917497645+917330548+916685305+917227212+918772857
1388+920555955+921423377+920722589+919765312+920925905+925507700+932632802
1378+940037999+945703492+948502362+948112219+945665884+943641745+943740973
1368+945782296+949079274+953140858+956528444+957789943+958194088+959883281
1358+961960939+961788751+959421335+957954089+959524497+963523941+968526139
1348+974226348+981108211+988906444+996129790+1000518740+1000254209+995971256
1338+991207611+989598900+991814899+996173416+1001097099+1006170405+1011617365
1328+1017297613+1022237844+1025484195+1027267640+1029053053+1031807719
1320+1035007320+1038076392+1041726020+1046516859+1050723670+1052085555
1311+1051167680+1049856595+1048636118+1047725649+1048883523+1054058546
1302+1062666110+1070749241+1073741823+1071800770+1068711795+1065053950
1294+1058187478+1048777063+1041060874+1037443415+1037234081+1038201946
1285+1037506944+1033656313+1028729505+1026321530+1026700507+1026548800
1277+1023753517+1020132703+1018522834+1019489195+1021426892+1021849841
1268+1018525727+1011464039+1003640117+998209704+996061516+995771180+994753903
1258+991390677+986747147+982886333+979733365+975650489+970667847+966353940
1248+962955766+959207025+954387719+948716498+941991838+933333821+922552437
1238+911102145+901309976+894512703+890142383+886498598+881783497+875200707
1228+867909261+862078522+858455335+855624064+852116595+848268973+845300171
1218+843538712+842246779+840720575+839049376+837836420+837627202+838769744
1208+841182926+844018247+846357486+848430573+851304660+855445858+860184856
1198+864279536+867050981+869095833+871591638+875052993+878879323+882075627
1188+884353014+886164231+887700156+888530606+888959803+890679719+894711159
1178+899831332+904314361+908186400+912284146+916478806+920649455+926209124
1168+934570267+944263960+951791529+956273517+960253115+965261678+970010569
1158+973400122+976415616+979537686+981895208+983106544+982779641+980630643
1148+978820235+980383932+984852381+989252556+992133933+993493619+993767871
1138+993353716+992809957+992959928+994803662+998590532+1002521124+1004189661
1128+1002839811+999127464+994255622+990425357+989903470+992666004+996975688
1118+1001770462+1005966973+1007375608+1005922422+1006235439+1012551441
1110+1022176050+1027166734+1022782760+1012441277+1004536121+1004707499
1101+1010615016+1015108692+1014851104+1013749122+1016419198+1022529453
1093+1028499574+1031372735+1030124948+1025181708+1017753657+1009039169
1084+999895831+992528994+990906513+997373758+1008944628+1018445303+1021830285
1074+1021166180+1018407464+1011639699+1001292199+992654085+988758903+987206084
1064+985071088+982738445+982280896+984515873+988146755+991643752+993606676
1054+992838771+990168811+987882918+986961572+986796558+987218697+988164113
1044+987752967+984543414+981500610+983320391+990387518+997412755+998748719
1034+995107537+992147241+992114955+990989020+985805550+980079594+978137036
1024+978657883+977367512+974213503+972706740+973830708+975220018+974665382
1014+971665625+966854709+962462056+961363892+963687393+965966805+965078265
1004+961265358+955741793+948456885+940261045+933565951+928774591+923706955
994+917312901+910624230+904406646+898404703+892637320+887737938+884073902
984+881685541+880995052+882029860+883068602+881827354+878019539+873379306
974+869590006+867263092+866171119+865264064+863040659+859450567+856715574
964+856635902+858178480+858692326+856855708+853359579+849240309+845130297
954+841960319+840774673+841695209+844289027+848683359+854774694+861077215
944+866083463+870029850+873728427+876859698+878862833+880164660+882111846
934+886205080+892669663+899688015+905343615+910165177+915672252+921730492
924+928013630+935531941+943914839+949417517+948069519+940535586+931727019
914+925795780+923318490+922665204+922466921+922533112+923234826+924166124
904+923504911+920025215+915801278+914562170+917059016+920144635+920793813
894+919308052+917916313+918321152+921432866+927836697+936606672+943627975
884+944656707+941115911+938625950+940859885+947846183+957456212+966476311
874+971782963+971473071+965595814+956468502+947864988+942806030+942587902
864+946333750+950842121+953423789+955103956+958553682+963098909+964918285
854+962729422+960450704+962462981+968622012+974927252+977912659+977328978
844+974234101+969550995+966268713+968743631+976559222+982185313+980248542
834+976045319+978339658+988244305+998250669+1001989516+1001797424+1003270398
824+1007286505+1009628637+1007244962+1002922434+1002960042+1010924215
815+1022824649+1030204909+1029263891+1023792167+1018995774+1017395279
807+1018240714+1019193304+1020732122+1024405357+1029330660+1033213576
798+1033017666+1027022203+1017354083+1008209819+1001354687+995923465+992731269
788+994154137+998789914+1000594073+995453303+985428540+975790045+971056833
778+972664387+977725890+980483565+976703522+967220378+956901056+949864420
768+946865127+947371508+951775965+959672501+967457310+970565900+968935087
758+966691084+966765375+969344381+973332311+977091872+978666677+976612568
748+971119784+964915103+963071137+969631882+982369421+993248644+997399447
738+997682841+996968861+993433561+987341358+983684902+984747309+988480023
728+993318075+998096995+1001276693+1000836965+996890983+993255124+991829711
718+991043870+988408394+983375704+979579576+980573131+985473902+991105663
708+995656388+997889166+995144220+987733411+979741697+973757690+967455459
698+958858309+952712471+954967293+965871917+978205657+982522284+978757632
688+974813501+975307848+978069110+978045041+974764321+973195532+976747264
678+983240198+986826529+982564405+971542039+958803748+945459616+929276865
668+916312172+921345383+943662632+965504338+975472283+979180812+987447356
658+997945057+997816842+984511013+969129146+958294763+948650365+936312228
648+921822199+907940210+899012280+900762977+913929655+928339839+933477311
638+934072622+941128698+953476151+958575205+952768652+943743403+935612712
628+931167349+934736207+947145164+962185490+964423359+941538571+909031372
618+889419609+890216095+906923049+927098995+938899507+936955562+924807780
608+912222295+902289066+892194988+883983816+882719018+894247188+918424604
##END=
