##TITLE=<SNM>
##JCAMP-DX=4.24
##DATA TYPE=INFRARED SPECTRUM
##DATE=29/4/2025
##SAMPLING PROCEDURE=Instrument type and / or accessory
##ORIGIN=Admin
##XUNITS=1/CM
##YUNITS=ABSORBANCE
##RESOLUTION=4
##FIRSTX=4497.3318
##LASTX=599.83466
##DELTAX=-1.4281778
##MAXY=2.1532001
##MINY=0.39218187
##XFACTOR=1
##YFACTOR=2.0053239e-09
##NPOINTS=2730
##FIRSTY=0.40566996
##XYDATA=(X++(Y..Y))
4497+202296475+202743660+202866521+202655338+202493272+202713075+203163857
4487+203284073+202833350+202346053+202475616+203105778+203543720+203464552
4477+203184336+203070080+203210433+203656103+204417983+205123552+205153157
4467+204317117+203252432+202984255+203888984+205136556+205542233+204874219
4457+203815390+202917006+202275966+201924727+201889460+202029412+202182442
4447+202389657+202799347+203318730+203518440+203119451+202394026+201759585
4437+201316605+201141119+201452886+202007580+201976623+201037638+199986804
4427+199700941+200021610+200177894+199874985+199353937+198757229+198123590
4417+197851593+198487298+199850671+200836263+200417419+198754554+197087707
4407+196516070+197086756+198056832+198792912+199204920+199451652+199683464
4397+200081234+200644534+201055130+201158596+201194918+201195929+200790683
4387+199942650+199116375+198519919+197935933+197273298+196690501+196386001
4377+196648309+197603181+198606191+198624723+197583356+196589100+196526726
4367+197096475+197516731+197579997+197541996+197437400+197153529+196925255
4357+197101840+197598842+198118225+198612968+199062917+199292098+199362899
4347+199486830+199414231+198754643+197810828+197145503+196667376+196073878
4337+195605574+195570337+195765143+195927343+196226849+196967833+198138883
4327+199394435+200271745+200440811+200019484+199659655+199920253+200409928
4317+200181550+199190162+198410300+198364437+198656542+198977983+199444474
4307+199964333+200200246+200055048+199745793+199620376+199864017+200066596
4297+199454075+197958909+196564786+196211006+196806466+197609141+198197467
4287+198670868+199086399+199250783+199183103+199269003+199656742+199922780
4277+199673298+199137062+198890092+199353164+200645529+202433246+203945548
4267+204603723+204521836+204067636+203285603+202165217+201143259+200834420
4257+201284340+201853480+201961702+201668602+201432198+201674740+202586945
4247+203848308+204575130+204149850+203072161+202508178+203068639+204267807
4237+205037994+204735382+203730530+202913692+202716909+202878321+203060168
4227+203329519+203884139+204532833+204821654+204676872+204470281+204430511
4217+204494223+204657745+204919963+205055798+204868200+204396657+203708921
4207+202937782+202535553+202921464+203842765+204568590+204708260+204439428
4197+203987844+203344366+202649319+202397519+202940770+204018726+204939060
4187+205097173+204412395+203523835+203353134+204159837+205266714+205916285
4177+206032845+205965194+205928219+205937121+205998217+206156761+206370589
4167+206472584+206417745+206449222+206758834+207104202+207064076+206557043
4157+205913328+205632726+206126146+207317674+208411161+208465807+207330470
4147+205783244+204779922+204672027+205059543+205327067+205316114+205383363
4137+205831277+206490032+206914910+206897537+206731473+206873253+207258629
4127+207266625+206596694+205689229+205107428+205081925+205595884+206251875
4117+206312540+205634836+205143214+205685544+206968070+208125655+208727505
4107+208797429+208435921+207880082+207616586+207986476+208658860+208819915
4097+208082229+206992295+206443931+206804414+207669969+208292908+208337790
4087+208203366+208363307+208695285+208893376+209140613+209785042+210598789
4077+210957548+210739781+210444050+210263065+209745020+208742055+207939900
4067+207946365+208560193+209224760+209501096+209057314+207947375+206800595
4057+206235735+206310860+206745414+207394435+208282088+209269285+210007951
4047+210404711+210707918+210844377+210366933+209435111+208891548+209037206
4037+209282393+209169504+208919369+208962512+209462084+210122683+210355073
4027+209944254+209442764+209528501+210133487+210596039+210565484+210338859
4017+210277228+210326524+210332261+210382627+210518313+210480342+210059432
4007+209495776+209344202+209975166+211194085+212337611+212809318+212487104
3997+211686450+210903437+210402794+209984232+209484704+209305116+209879903
3987+210951811+211975330+212793386+213375367+213470853+213056244+212656585
3977+212777633+213286286+213662790+213706766+213640973+213556871+213234449
3967+212647342+212160312+212044302+212219327+212542998+212932268+213189225
3957+213134951+212921122+212885766+213150704+213576073+213935604+213960304
3947+213524577+212936504+212696860+212959970+213518246+214158484+214682950
3937+214851272+214709255+214671878+214946743+215139023+214766160+214034092
3927+213762318+214503526+215778800+216473535+216237295+215885179+216208196
3917+216991283+217423251+217166041+216611228+216215121+216016734+215944893
3907+216328976+217609303+219439821+220668861+220828311+220681523+220673245
3897+220237592+219055143+217841946+217670013+218795600+220077205+220369563
3887+220048731+220021980+220240757+220200453+220238617+220711692+220889377
3878+220347612+220025859+220756366+222165528+223630406+225060359+226016362
3868+225921114+225338034+225223183+225405580+224961292+223729622+222277391
3858+221188690+221410127+224410239+229601336+232310918+230525564+227041232
3848+224343466+223212632+223360846+223977023+224406969+224905754+226348459
3838+228756499+230635956+230649287+229153289+227513519+226649064+226463220
3828+226456027+226397636+226543562+227508258+229347277+230675280+230472984
3818+229992211+230525787+231246263+230774823+229424156+228459118+228898145
3808+230799419+232774615+233720303+234637368+236608536+238363899+238430435
3798+237704193+237357338+237264646+237224044+237786140+239167912+240733210
3788+242179764+244119351+246752381+249241744+251309007+253978745+257782334
3778+261637463+264651157+267484254+271128259+275637179+280172672+283878561
3768+286875016+289965605+293444289+297158173+301485693+307127543+313728382
3758+319778748+324820011+330264290+337836632+348070598+359049338+367421739
3748+372508746+376488623+381126126+385942146+389899820+393277565+396768257
3738+400757676+405558418+411321688+417118366+420817269+421051518+419015657
3728+417386855+417789753+419661631+421498168+422446012+422247579+421004585
3718+419274487+417699246+416958544+417833506+420174565+422139179+422412038
3708+422173420+423154286+425790377+429412922+432853709+435103934+436069819
3698+436472420+437311297+439348674+442676097+446898991+451484657+455267975
3688+456336286+454180106+450736138+448551750+448782640+450589008+452642881
3678+454777631+456813106+457197635+455783851+454927198+455855959+456599336
3668+455049123+452475450+450981919+450713102+450576792+450197434+450275369
3658+451382974+453218619+455087495+456906793+459364902+462690750+465058529
3648+464289115+461438660+458916141+457571909+456884946+456125192+455314521
3638+455500559+457626303+460655394+461949988+460847703+460249018+463105626
3628+467779451+470223411+470248557+470509527+472841490+477015579+481423618
3618+484971261+487742801+489569470+489924394+489364855+489575236+491409841
3608+493784130+495125152+495360976+495897628+497777977+500066218+500836762
3598+499981804+499219523+499550223+500506835+501584717+502972374+504909197
3588+507151694+509059032+510193685+510720142+510857880+510380050+509390505
3578+508907859+509615153+510797007+511523382+512161004+513681881+516073529
3568+518107487+518364712+516464210+513323360+510199689+508027458+507740689
3558+510044237+514058712+517233566+517671151+516022999+514406711+514246919
3548+515650151+517703252+519086272+519253792+518798908+518386648+518149754
3538+518007142+517642616+516620019+515258340+514583921+514938221+515701335
3528+516521398+517349605+517531927+516698013+515795973+515645574+515715364
3518+515315706+514472221+513158574+511235364+509314651+508258883+507931393
3508+507610798+507245976+507286697+507820406+508609617+509547919+510722164
3498+512273417+514100621+515398217+515276412+514284251+513902903+514412477
3488+514760417+514348870+513677066+513189665+512394212+510620035+508253117
3478+506521086+506165835+506906240+508064909+509073418+509378378+508641540
3468+507378125+506768681+507263810+507839310+507420808+506735688+507164534
3458+508131311+507820882+506010501+504077304+502984026+502907459+503597691
3448+503926548+502501142+499522937+496726549+495427675+495601882+496467511
3438+497277855+497726497+497850532+497612211+497005828+496349005+495843889
3428+495205404+494211758+493368600+493600768+495183498+497145824+497929447
3418+496727738+494219308+492028232+491411951+492318687+493617264+494129306
3408+493359505+491537443+489531840+488750774+490252657+493487998+496467214
3398+497415562+496112973+493749384+491736529+490661054+490208756+490084394
3388+490606809+492072549+494126036+496145817+497582488+497830558+496787660
3378+495578579+495555514+496566162+497249499+497035224+496958984+498309725
3368+501133281+504272586+506409208+507215599+507628335+508451549+509175071
3358+508905660+507834971+506990654+507027332+507612522+507631307+506158285
3348+503699582+501879868+501490851+501640656+501143030+500106285+499727730
3338+500888540+503157074+505149658+505897256+505735443+505626240+505790966
3328+505594793+504800173+504047224+503715930+503342309+502586864+501832252
3318+501442759+501180719+500547853+499404342+498343223+498344709+499853400
3308+502285114+504423223+505246912+504662316+503612850+503040975+502769008
3298+502094291+501171921+500786649+501135064+501784219+502534730+503529149
3288+504714748+505878471+506992615+508012656+508748959+509322082+510148327
3278+511083657+511371913+510891170+510441874+510588766+511033960+510997519
3268+509858764+507760782+505755060+504945638+505506396+506845604+508357802
3258+509664315+510420235+510368220+509717401+509083167+508730055+508318032
3248+507527871+506421811+505319853+504804215+505366340+506598010+507319154
3238+506746032+505043130+502910431+501192430+500391627+500091364+499385319
3228+498046467+496835841+496563339+497140682+497863313+498527656+499518003
3218+500621923+500827429+499685464+497917498+496497948+495903157+496006861
3208+496193641+495941202+495383417+494934567+494646787+494329937+493942763
3198+493588611+493337450+493017747+492248540+491056135+490030506+489333259
3188+488379145+487062971+486231822+486273226+486303306+485447099+483954579
3178+482491484+481304785+480451699+479958354+479526595+478715419+477444722
3168+476041401+474938670+474398540+474356779+474541271+474689054+474495675
3158+473699450+472666093+472365830+473044856+473532911+472680539+470847658
3148+469201319+468247056+467622185+466708583+465098240+462989824+461330943
3138+461123207+462458463+464403014+465699778+465562100+464174621+462526380
3128+461453997+460862684+460165674+459260603+458565823+458264519+458067900
3118+457593191+456548480+454817460+452783858+451353459+451226957+452187284
3108+453269981+453541027+452784274+451640734+451060388+451403780+452075852
3098+452207406+451564939+450498738+449231133+447797910+446606783+446268919
3088+446780247+447488432+447856405+447709989+446985783+445890929+445043461
3078+444949744+445517457+446288804+446922829+447220834+446941644+445965891
3068+444662112+443678483+443103695+442337015+441160333+440229967+440066192
3058+440366070+440686367+440961574+441032167+440506839+439374058+438170744
3048+437392115+437086798+437051903+437076871+436961366+436496198+435560660
3038+434386178+433564866+433371220+433260293+432648708+431899743+431750741
3028+432166925+432518342+432447066+432004517+431392368+430862819+430486464
3018+430035890+429404361+428864945+428615686+428447126+428057217+427384016
3008+426530782+425530418+424334089+423047877+422043589+421682125+421948118
2998+422390072+422409274+421753818+420815308+420259068+420306654+420600260
2988+420722601+420522415+420024165+419383838+418872926+418624529+418395334
2978+417721003+416360840+414689386+413572804+413577976+414263571+414550162
2968+413915542+412848212+412056713+411684638+411468580+411271277+411091273
2958+410761376+410126369+409472667+409255063+409417679+409503876+409356122
2948+409169579+408946744+408389642+407378340+406320432+405840640+406125091
2938+406721101+407016668+406745177+406041718+405328034+405056156+405251883
2928+405463126+405296943+404765730+404096394+403500146+403111515+402946552
2918+402960730+403089164+403091839+402615346+401610613+400465170+399583906
2908+399025021+398592876+398115461+397615339+397295012+397352942+397747132
2898+398145393+398170122+397636115+396581120+395330725+394501061+394502369
2888+394993634+395229190+394907526+394307444+393800247+393577056+393569209
2878+393401302+392750840+391830075+391104085+390662012+390364959+390309941
2868+390565828+390740125+390399319+389786099+389617717+390131364+390700771
2858+390601288+389862607+389042603+388492011+388227979+388157714+388051810
2848+387639668+387028797+386656246+386680471+386829889+386879497+386864517
2838+386756205+386316183+385466278+384551279+384005531+383881140+383844521
2828+383579627+383148819+382909161+382987987+382994318+382533341+381820965
2818+381379368+381341203+381457540+381523852+381395091+380853416+379872134
2808+378824867+378154549+377968125+378064012+378183618+378118257+377740832
2798+377102823+376404328+375780289+375194207+374539881+373807055+373190507
2788+372927100+372916608+372802441+372567241+372566706+372814003+372818878
2778+372294650+371486238+370716972+370105150+369730043+369581962+369384332
2768+368909147+368396511+368263381+368462110+368486632+368001222+367187342
2758+366430678+365845755+365236222+364498759+363823092+363377600+363119960
2748+363045622+363178217+363244708+362907023+362306525+361880621+361793294
2738+361910047+362046476+362013127+361697556+361161973+360469631+359583761
2728+358611218+357878392+357603066+357674075+357849144+357998444+358039670
2718+357813239+357224482+356451292+355811678+355425663+355146711+354780075
2708+354255639+353651426+353132816+352818106+352646871+352446031+352177452
2698+351972006+351819466+351468792+350852957+350343561+350271006+350452883
2688+350495149+350281350+349940574+349610943+349404932+349350954+349248826
2678+348821495+348094882+347422424+347081826+347020685+347041700+347059058
2668+347073028+347028532+346850342+346581852+346343026+346156216+345952077
2658+345733700+345566151+345393043+345041715+344475577+343922666+343654236
2648+343667492+343656197+343314886+342643141+341935402+341529799+341563327
2638+341853396+342018360+341845727+341519545+341374971+341487622+341619891
2628+341524895+341203379+340849049+340602555+340447221+340344765+340316677
2618+340339415+340337424+340331925+340371843+340295930+339860336+339138598
2608+338520593+338308815+338515778+338931486+339208031+339065300+338567110
2598+338083246+337939029+338148785+338432820+338448247+338082473+337563565
2588+337244279+337261756+337437331+337520378+337468392+337384007+337265204
2578+337038564+336779111+336657364+336716454+336855975+336927519+336765854
2568+336323870+335845772+335691063+335935685+336323068+336625382+336833801
2558+336946244+336862246+336608945+336391996+336330320+336400080+336615901
2548+336977662+337316714+337452519+337403060+337292430+337185219+337074381
2538+336917918+336694578+336471951+336370327+336462945+336735863+337070309
2528+337292311+337346824+337334429+337275488+337006285+336481671+336013560
2518+335963387+336276491+336548161+336529049+336365185+336344617+336573159
2508+336890305+337021533+336852378+336559426+336418509+336528039+336761158
2498+336939140+337010952+337042250+337051672+336979742+336857193+336835169
2488+336985568+337213664+337384245+337425501+337353214+337255841+337203647
2478+337187210+337180255+337186110+337202399+337210156+337177728+337049057
2468+336830324+336687504+336779527+336979653+336957955+336581243+336050119
2458+335633549+335459817+335551215+335852965+336197784+336388310+336336859
2448+336108109+335910807+335992129+336360489+336684769+336666192+336420649
2438+336310227+336508094+336885520+337208641+337312345+337203439+337118936
2428+337332111+337784201+338135707+338284531+338470272+338756536+338894541
2418+338833103+338849867+339070650+339320415+339477680+339609978+339823717
2408+340223792+340842659+341459772+341744371+341674016+341542164+341526530
2398+341548168+341573998+341778404+342306823+343033496+343654711+343937171
2388+343799582+343233563+342247407+340838378+338917338+336275362+332750428
2378+328493739+323972394+319578621+315327134+311115802+307097523+303481933
2368+300243471+297462658+295569052+294733652+294492537+294475773+295067414
2358+296979626+300590133+306014944+313347925+321911298+329464974+333367392
2348+332545962+328258569+323468794+320736964+320181081+320347739+320391551
2338+320568136+321380293+322725357+323865242+324299617+324478699+325296206
2328+326981571+328895686+330431989+331749856+333411858+335571843+337847481
2318+339825709+341378330+342611665+343770780+345118876+346748421+348504884
2308+350097542+351298032+352132065+352872470+353730609+354610861+355330430
2298+355975126+356787788+357792254+358778856+359591875+360225603+360731582
2288+361183523+361627825+361985187+362115375+361999425+361755397+361499153
2278+361258931+360977303+360596371+360193116+359934257+359835100+359724441
2268+359502706+359237367+358991140+358781056+358684723+358776389+358981271
2258+359137824+359167606+359113361+359079417+359193406+359566700+360207383
2248+360964819+361632640+362119447+362431630+362533253+362403601+362175535
2238+361990240+361799625+361521921+361230872+360999090+360767220+360510025
2228+360302349+360139258+359920465+359673673+359611909+359921416+360582728
2218+361405733+362191288+362883185+363611017+364572830+365845518+367315330
2208+368807137+370241668+371647635+373094174+374655831+376413423+378433620
2198+380669280+382890019+384853950+386550521+388126118+389659330+391181455
2188+392757855+394366831+395830074+396965352+397762915+398420273+399168703
2178+400026425+400831389+401487499+401962862+402136713+401923598+401438307
2168+400838553+400135183+399277817+398329855+397437505+396610160+395690197
2158+394624204+393532917+392459701+391352036+390247552+389210777+388252977
2148+387416566+386740660+386412694+387168407+389887663+394524304+400116100
2138+405931712+411898555+418049831+424293457+430517792+436492810+441970825
2128+447025166+451995391+457101183+462268591+467268212+471908598+476036645
2118+479449195+482052621+484089492+485987170+488075284+490641021+494131594
2108+499085768+505793106+514032793+523158410+532366063+540887170+548125007
2098+553591579+556691590+557049160+555128685+551957992+548275704+544202614
2088+539363142+533254965+525718053+516795921+506408495+494891854+483376878
2078+472918711+463721461+455452734+447834351+440923291+435067850+430451213
2068+426777871+423625874+420832339+418426068+416510526+415157318+414226120
2058+413489490+412886079+412422308+412097136+412038700+412379655+413108498
2048+414309137+416249348+419174884+423364399+429189373+436831833+446263836
2038+457529851+470562107+484797023+499302332+513066611+525203010+535343436
2028+543673423+550322621+555138256+558101837+559481172+559640250+558961135
2018+557798363+556370520+554684204+552570944+549819051+546260352+541838372
2008+536730440+531232896+525405187+519122356+512527789+506052946+499977048
1998+494269361+488852249+483857770+479581553+476151258+473327672+470843556
1988+468800056+467459213+466839157+466717470+466858507+467151102+467647509
1978+468426703+469395739+470394944+471426279+472583433+473932837+475554891
1968+477366193+478934419+479999431+481062481+482854196+485383521+487984391
1958+490138223+491845494+493362834+494998323+497035046+499514674+502150944
1948+504673373+507175175+509919518+512854030+515504092+517438418+518795936
1938+520246666+522430370+525408813+528653457+531606219+534186966+536723901
1928+539498621+542453285+545292326+547749068+549755800+551465419+553086582
1918+554587544+555727548+556554328+557508562+558878683+560538783+562251493
1908+563898277+565401498+566678764+567659154+568358660+569067677+570161728
1898+571491366+572354647+572348999+571970980+572078280+572946852+574115865
1888+575079729+575782088+576305336+576590916+576640673+576615408+576704518
1878+577019227+577345469+577168022+576484032+576179250+576940580+578103827
1868+578260171+577094843+575544065+574211277+572874862+571357196+569988383
1858+568982133+568022847+566808297+565458389+564187722+563048075+562085638
1848+561390590+560921618+560381488+559352054+557774585+556061755+554579935
1838+553431430+552609108+552059229+551668072+551282800+550632813+549357688
1828+547453322+545398022+543579854+541978606+540457075+539056280+537870919
1818+536884227+536067553+535507627+535292134+535353720+535497581+535535151
1808+535438253+535403358+535665279+536231447+536881434+537379654+537646568
1798+537907597+538695322+540394121+542626096+544249755+544554299+544261229
1788+544482726+545561262+547110554+548567050+549782551+551076342+552699645
1778+554500515+556285868+558286299+560876557+563717857+565728929+566520517
1768+566775364+567240235+568371500+570311058+572476928+573803534+574275776
1758+575049233+576590143+578200903+579521029+581155389+583531581+586016738
1748+587720650+588666382+589531328+590867326+592749340+594799943+596495414
1738+597813103+599509584+602348685+605744799+607744813+607713842+606757409
1728+606052374+606301692+607568317+609381670+611360165+613652062+616554175
1718+619781877+622266499+623267220+623209795+622815308+622615568+623161227
1708+624859729+627333354+629506655+631284043+634157860+638970938+643610016
1698+645525736+645436507+644667449+643583325+642986899+643697224+645394775
1688+647308296+649762719+653437933+656893077+657998363+657883275+658708629
1678+661269937+665268123+669434305+672217883+673656664+675008892+676599202
1668+677607056+677982341+678641840+679889679+681076408+681715456+682141509
1658+682768847+683925911+686353108+690408958+693811551+694558079+694822734
1648+696458877+698569165+698928935+697512267+696078717+695640241+696425647
1638+698446943+701088266+702566995+701957134+700832765+700711554+701699018
1628+703300623+705506382+708935428+713679667+718523955+722341543+725755372
1618+730130805+735527230+740181111+742669002+742921530+741472762+739623682
1608+738634672+738269552+737726391+737548765+739098592+742560334+746691443
1598+750289317+753071587+755364554+757611687+760112954+762732876+764908614
1588+766297579+767165200+767884144+768518140+769096732+769769844+770648937
1578+772005028+774300551+777297125+779950515+781804886+783250920+784913160
1568+786940402+788698707+789700022+790606164+793041802+798700029+807665854
1558+815429911+818190305+818877862+820083435+821554495+821981915+820536416
1548+817837728+815780764+815907503+818180912+821815822+826547993+830716553
1538+830770412+826685552+821660488+818629554+818720983+820851661+823749673
1528+827175093+830682906+833230779+834714621+836080105+837559666+838797519
1518+840633699+844174446+848818398+852835964+855760430+858757777+862809525
1508+867217178+869655135+869344111+869004197+870826288+874759441+879415639
1498+883146139+885310820+886544987+887752165+889405250+891685793+894564485
1488+897646899+900423938+902760301+904878554+906856990+908178662+908330785
1478+907920367+908626471+911647240+915931364+918593909+918296974+916614641
1468+915221871+914412865+913928199+913948648+915216997+918197699+922327678
1458+925502175+924805404+920466708+915463640+911535303+909536477+909954385
1448+911897926+913099575+912245033+910220467+908662020+908801184+911301381
1438+915455912+918126363+916771282+913838137+913017123+914225193+914371193
1428+912187905+910499093+912136841+916450272+920779575+923941172+926037609
1418+926084869+923465363+920085181+918323963+918721124+919605033+918986017
1408+917080879+916366631+918746686+922975882+925588908+924789591+922344680
1398+920758115+919635529+917425252+915503944+916331260+918951004+920181306
1388+918894292+917311828+918262139+922292426+927950951+933443561+937536207
1378+939821030+940883218+942099967+944675542+948732997+953452565+957553891
1368+959991194+961010462+961731249+962702841+964142039+966520489+969556001
1358+971747671+972323112+973006508+976314165+982118274+987384095+989885897
1348+990507409+990835078+991044864+991541361+993895022+998556868+1003712298
1338+1007513301+1009885331+1011558985+1013096388+1015408377+1019642031
1330+1025577754+1031394822+1035119496+1036184300+1036142807+1036944738
1321+1038416037+1038919191+1038566793+1039635996+1042914465+1045825793
1312+1046019707+1045142397+1046327640+1050028654+1054612328+1058918387
1304+1062775508+1066657120+1070911104+1073741823+1071633616+1064451421
1295+1056023466+1049412076+1045638299+1044181981+1043634718+1043063913
1287+1042004697+1039464434+1034615628+1028265207+1022085040+1016587318
1278+1010902221+1005054122+1001342408+1001876355+1005277284+1007085168
1270+1004557626+999727249+995225492+989538255+979904847+968105687+959207155
1260+955735842+955718365+955745116+954237733+951012885+946138458+940142100
1250+933444571+925590691+916223246+906373215+897475753+889619436+881819890
1240+873507559+865000719+856822678+849109686+841906922+835718908+831257040
1230+828622137+827007573+825148268+821805538+816562662+810844216+807059085
1220+806458022+808453698+811588068+814581314+816682447+817684832+817905259
1210+818054410+819084319+821686823+825434265+828990051+831926050+835420963
1200+840186721+844910392+847843061+848984611+849635430+851027902+854039754
1190+858707664+863788013+867919775+871010572+873870301+877308443+881683341
1180+886244485+889317448+890328572+891215631+895051707+903666026+916220571
1170+929409944+939925180+947613918+954790347+961650224+964864431+961811145
1160+955349559+951920929+954657128+961229641+967210543+970287251+971619980
1150+973820567+977679827+979929041+976497795+969303591+964434693+964461742
1140+967580835+971750405+976361900+980794521+982997664+981320206+977494117
1130+975431326+977350554+981759634+984849420+984995420+984888952+987668130
1120+992818150+996946287+998170704+998366759+1000166439+1003347178+1005764982
1110+1007099792+1008761319+1010760025+1011787854+1010932539+1008775586
1101+1007106093+1006600323+1006098120+1003897295+999250132+993079120+986881773
1091+982929182+983858983+988981301+992723274+990812072+986281484+985154023
1081+988718489+992728386+993207643+990362241+985593689+978909773+971308302
1071+965381556+962624491+962936644+965158156+968038156+970668302+970759196
1061+965639375+957448196+952177797+952550050+955672769+956754753+952994234
1051+945588520+938773763+935875334+936865652+939711886+943063237+947033602
1041+951825814+956502760+959298108+960112762+961059862+962483425+962146185
1031+960494586+961507315+966427337+970972133+969634113+962071223+953493940
1021+948872933+949542062+953513914+957367289+958580709+956612201+952815597
1011+949374602+947625035+946521531+942967944+935287766+925739247+917570064
1001+911353040+905984079+900825380+895107646+888129947+881232975+876652392
991+874708733+873613552+871608484+868765341+866130795+863694860+860504788
981+856398528+852240371+848903109+846829797+845727958+844388928+841764667
971+838278611+835084972+832440380+829628327+825932723+821372708+816758598
961+813168748+811295295+810961385+811239356+811708685+813357312+817273879
951+822928896+828674985+833621639+838201152+843104173+848254252+852809511
941+856393178+860060426+864985561+871190457+878056754+885125763+892001988
931+898455727+904835931+911087493+915663558+917144249+916324602+915062198
921+913930695+912553322+911466880+911717149+912772323+912631792+910497547
911+907815801+906171930+905374397+904134820+902006520+900019465+899658090
901+901765168+906122589+911377889+915607143+918086950+920087559+922833745
891+925505742+926616736+926798701+928123108+930950319+933094016+932830311
881+931331073+930550839+930290048+929122283+927292463+926721599+928628640
871+932715283+938215977+943877058+947443664+947543712+945723225+944581854
861+944984723+946305384+947685670+948457225+948902240+950658941+954963277
851+961089585+967046590+970795993+970620686+965858732+958470258+951929430
841+949130217+950613524+953166271+953914464+953458807+953464038+954966249
831+957545926+960288782+962881835+964686746+965579215+966991067+969911431
821+973680214+977852103+982747514+987366797+989490519+989334413+990687948
811+996593413+1004800167+1008276474+1002954000+993901918+988990099+990635576
801+995870426+1001058492+1004379049+1004600189+1001333847+995843199+989864021
791+984589520+980311757+977003387+975415752+975259289+972675510+963615641
781+950469485+940540985+937970939+940365856+942588438+942433343+941222182
771+939957876+937861617+935216847+934463661+936968138+941037125+943949107
761+945522950+948411154+953178517+955622894+953055523+949747628+951085350
751+956454430+961451316+964626408+967697171+969500359+967823019+965485349
741+966935485+972194351+976799842+976266727+971431297+967511877+968808284
731+975173032+982017631+984518125+983280451+983671965+987506198+988347187
721+980646856+970133166+966713571+974083795+987776442+998126239+999007948
711+994783330+992420513+991309104+985916661+975314693+963710696+954567423
701+949087535+947613680+949869968+954658495+959839368+963781140+967191520
691+970465650+970466839+964497528+955626045+949037362+946533064+944805908
681+939717236+932379411+928460407+931189769+938561658+947314011+953862389
671+952942396+942081004+926447789+916286913+913365598+912459100+913286356
661+919199311+928987518+936569966+939713551+943005276+950905644+960307270
651+961865242+950571912+932817828+919983350+918724632+925831211+931805693
641+932514116+933213860+936164125+936053258+930709561+924347786+920824041
631+915905445+904292294+894181947+896727442+911636778+927677200+929670973
621+912209425+888366425+872261978+868996409+876003654+882914536+881807406
611+877542662+878855298+888468316+901298870+908016254+903090169+891688289
601+885622616+889556720
##END=
