##TITLE=<SNM>
##JCAMP-DX=4.24
##DATA TYPE=INFRARED SPECTRUM
##DATE=29/4/2025
##SAMPLING PROCEDURE=Instrument type and / or accessory
##ORIGIN=Admin
##XUNITS=1/CM
##YUNITS=ABSORBANCE
##RESOLUTION=4
##FIRSTX=4497.3318
##LASTX=599.83466
##DELTAX=-1.4281778
##MAXY=2.1137722
##MINY=0.38283974
##XFACTOR=1
##YFACTOR=1.9686037e-09
##NPOINTS=2730
##FIRSTY=0.39357334
##XYDATA=(X++(Y..Y))
4497+199925124+199392238+199807011+200529935+200925784+200562861+199337874
4487+197848351+197103582+197734613+199532529+201487540+202464251+202204832
4477+201324450+200345014+199403698+198749020+198719923+199252461+199923761
4467+200399650+200659886+200924830+201317122+201544341+201211741+200512040
4457+200220633+200734551+201389895+201225427+200301732+199601350+199717192
4447+200431593+201458852+202554690+202890969+201524449+198849920+196611949
4437+196097305+197056758+198471192+199644965+200418922+200854208+201052375
4427+201154077+201251238+201143102+200342758+198674522+196781625+195568537
4417+195275828+195594364+196411315+197653924+198524208+197962119+196168715
4407+194772962+195047489+196594918+198129373+198966519+199182399+198887949
4397+198077750+197002591+196269525+196449192+197633637+199262695+200366299
4387+200302973+199344611+198349491+197823993+197566300+197276679+197018411
4377+196873154+196598612+195914837+194994337+194472729+194834199+195873751
4367+197012356+197966086+198689040+199016356+198893247+198602204+198394302
4357+198231560+198067849+198096794+198586520+199542854+200602707+201278776
4347+201271479+200550599+199391708+198318442+197666262+197327500+197210644
4337+197540746+198267394+198654175+198077432+197003227+196501466+196916421
4327+197724682+198510917+199234143+199638516+199382413+198704587+198103334
4317+197614108+197106898+196841923+197018563+197225995+197081298+197001153
4307+197646581+198922178+200129831+200817284+200952656+200660325+200356429
4297+200675994+201681877+202557566+202604921+202094152+201622836+201243427
4287+200770384+200424901+200572747+201048817+201247227+200922817+200590899
4277+200919274+201859440+202618031+202538537+201827755+201239884+201313262
4267+202095485+203182830+203792621+203316354+202084675+201151004+201170594
4257+201851235+202519886+202804238+202684490+202349272+202240151+202786420
4247+203779738+204370454+204042896+203289180+202968918+203386310+204335665
4237+205563983+206707024+207106310+206211864+204308582+202621785+202342035
4227+203493009+205005467+205869348+205914265+205536885+205168482+205005437
4217+204865115+204533121+204341418+204843467+205905030+206756119+206943583
4207+206753440+206740042+207066192+207278090+206909173+206272676+206073359
4197+206287952+206217405+205737080+205697992+206774513+208445671+209435189
4187+208990002+207543247+206210320+205778591+206111963+206521195+206749216
4177+207240243+208299188+209559964+210557808+211270256+211803051+212039080
4167+211934062+211834646+212147762+212764048+213073848+212656502+211765507
4157+210936960+210307352+209724462+209445499+210034157+211335671+212267904
4147+212117106+211434391+211134324+211303894+211369173+211042250+210625736
4137+210476846+210559655+210640224+210688184+210886941+211409321+212302087
4127+213386314+214235601+214483681+214157273+213588916+213062949+212597854
4117+212131139+211953758+212571210+213827837+214702709+214486739+213653090
4107+213119886+213187541+213567313+214008034+214458172+214790469+214839655
4097+214806213+215209148+216157882+217021551+217201143+216948809+217011136
4087+217692231+218621587+219273858+219431468+219242279+219034075+219019602
4077+219131372+219152596+218903275+218315556+217565277+217086285+217157316
4067+217561159+217915498+218179746+218576171+219139320+219561571+219499669
4057+218976169+218429582+218383060+219015015+219879895+220189090+219719409
4047+219157804+219147918+219468498+219553366+219336639+219131311+219060144
4037+219026384+219044248+219278430+219765658+220324673+220781548+221053516
4027+221059012+220882569+220865144+221170706+221548692+221855631+222339286
4017+223105916+223796488+223965089+223450384+222420854+221324077+220705899
4007+220827676+221440101+222086998+222569744+222918633+223114620+223186272
3997+223376582+223863583+224475070+224855553+224706209+223921428+222890218
3987+222486602+223242589+224608094+225452068+225307947+224720212+224383434
3977+224486651+224926509+225531093+225914180+225681073+224985732+224496476
3967+224753306+225762005+227095023+228250402+229050231+229689785+230256264
3957+230398584+229755578+228612235+227842608+228113819+229227128+230290660
3947+230681937+230784654+231385847+232449136+233043002+232600403+231530680
3937+230556361+230364325+231538098+233782639+235445864+235084819+233396569
3927+232326542+232826032+234108138+234829639+234819678+235106104+236274835
3917+237385797+236903444+234626279+231897417+230052314+229428141+229871178
3907+231702263+235537666+240995011+246202293+249346806+249928500+248051635
3897+244269021+240249833+238117895+238743612+240454858+240603642+239656543
3887+240447834+243408471+245650272+245744813+245616285+245674963+243933909
3878+241043380+240330856+243004840+247237788+251176468+253721287+253197787
3868+250051806+247864232+248567975+249810629+248359513+244616487+241275594
3858+240557832+244261028+253370718+263309000+264465756+257198158+248884997
3848+243647740+242347058+244231780+248023250+252856770+258399665+263636755
3838+266145468+264517773+260585739+256938830+254346550+252294923+250667683
3828+249863176+249948665+251350186+255484989+262078335+266634210+266133266
3818+263655981+261633830+258430124+253216468+248485302+246781913+248931897
3808+253610077+257721052+260144261+262990540+266678506+267877712+265273351
3798+261611818+258449199+255339929+252488125+250890889+250749084+251543281
3788+253073028+255229961+257270672+258752338+260527546+263177474+265262118
3778+265047450+263299432+262237656+263417212+267243910+272662091+277373441
3768+279948068+280786880+280702466+280899210+283289325+288538164+294373479
3758+297919474+299872290+303607216+311425747+322273281+330930956+333583912
3748+333952572+337074589+342873359+346109553+344707699+343382690+346543280
3738+355207041+366552369+374934124+376796138+373908015+370599913+370287266
3728+374226536+380958130+386957308+390124439+391592540+392929055+394614187
3718+397310258+402202970+410207527+421283990+432972667+440379271+441514046
3708+439581152+438364961+440027233+445231684+452392614+458301051+461477325
3698+463020000+464369504+466678234+471180607+478118846+484947450+486904020
3688+482511736+476183379+472200509+471412292+472781506+475430223+479955880
3678+487814196+497827884+503993680+503221328+500223268+499305674+499629615
3668+498291525+495115100+492161487+491180129+492636543+496083439+500905272
3658+505918853+509104695+510379746+513448383+522407048+537171387+549826223
3648+550413730+541111898+530928807+524554579+522219569+522682635+525057733
3638+528957128+533835156+538744430+543118336+547832562+554005080+559391348
3628+559147129+554124798+550107683+550520065+555163865+561067275+563927300
3618+562565897+560741791+561770019+565262846+569411365+574299445+580579388
3608+585643320+585293251+579721259+573545472+570917919+572910550+578204169
3598+584370207+588433222+588683497+586860844+586378098+588312233+590789063
3588+591888504+592262433+594054081+597611036+600914446+601686586+599284117
3578+595127302+591871246+591396069+593404445+596870203+601982096+608580983
3568+613620088+613859584+610686549+607244044+604255824+601361102+599074051
3558+598340969+599724959+603181332+607410813+610252368+611206295+612155559
3548+614528235+617560479+619503515+619325058+617737058+616955350+618400380
3538+620805210+621364378+618661736+614032772+610706109+611666212+617057567
3528+624060116+629497735+631604331+630105831+626722185+624135749+623054838
3518+622197678+621078617+620813385+621934384+623497678+624493994+624371127
3508+622896607+621032838+620938614+623721248+627580858+630196179+631972507
3498+633856259+634822418+633991540+632743920+633029559+634886546+636254792
3488+635135429+631931693+628739583+626830337+626158416+626508849+627677262
3478+628837501+628860512+627710023+626970038+628207121+630619218+631309972
3468+629082265+626579698+626985419+629949235+632064490+630972497+628130155
3458+627076615+629882987+635668557+641605878+644884036+644428177+641664132
3448+639258635+638277943+636836607+632534641+626287883+621941106+622081049
3438+625501694+628831688+630011728+629418952+628716209+629688484+633039490
3428+637249957+639320341+637760075+634357112+632288605+632976452+635070937
3418+636246799+635595467+633956357+632268622+630563992+628832899+627906827
3408+628438502+629494465+629911690+630370094+632362906+635502212+636935736
3398+634200334+628285237+623105523+622042173+625231436+629972851+633486327
3388+634982103+635125013+634389327+632711462+630446817+628740613+628638880
3378+630019539+631476256+631779941+631579443+632270862+634020304+636344717
3368+639225027+642020803+642837027+641094610+638781642+637865441+638502845
3358+640096962+642232201+643804760+643114673+640264337+638066181+638955859
3348+642088261+644957611+646679378+647440497+646504979+643709870+641026546
3338+640413848+641789966+643954029+645968642+647068083+646612344+644874469
3328+643194666+642561743+642241163+640983673+639279769+638977659+640701304
3318+642795425+643416783+642726271+641991736+641405925+640065655+638128372
3308+637597242+640123001+644884884+649558599+652753797+654343251+654387638
3298+653609261+653889753+656143922+658466094+658836511+658513812+659379994
3288+660244118+658975606+656153187+654496335+656247592+661499670+667325025
3278+669832860+668729664+667060156+666318718+665203956+662753527+659903313
3268+657842739+656725494+655906364+655046176+654840288+656038495+658103187
3258+659589334+659673869+658491467+656285500+653264520+650221558+648704891
3248+650115768+654463998+660078257+664723571+667051012+666993909+665214250
3238+662502828+659525630+657072900+656145375+656927204+657893908+657389240
3228+655775201+654614357+654481014+654815945+655255879+656030138+657576962
3218+660023091+662576948+663878523+663335887+661350341+658239921+653934624
3208+648823700+644466932+642685336+643462926+644642421+644550861+643985639
3198+644648537+646726369+648545449+648195864+645627352+642561743+640317928
3188+638960946+638436235+638928064+639996925+640696580+640581465+639749799
3178+638342313+636418170+634104657+631864961+630415026+630152034+630440883
3168+629857312+627662971+624977467+623908061+625266195+627506678+628167639
3158+626218910+622892126+620554512+620244348+620509277+619801204+618587738
3148+617636718+616196593+613595442+610773446+609060641+608902107+610018322
3138+611562118+612244939+611449909+609949895+608930568+608841310+609274038
3128+609404837+608722924+607521569+606482501+605910799+605558549+605151678
3118+604688612+604050360+602900961+601249498+599642059+598447486+597408176
3108+596297229+595540289+595544830+595868014+595910826+596020976+596553257
3098+596449526+594544215+591757584+590133068+590148025+590713793+591263271
3088+592137205+593250331+593769350+593405474+592946162+592941863+592982374
3078+592633879+592068596+591256489+589584498+586988979+584543879+583416159
3068+583888187+585319047+586454640+586199763+584781801+583622652+583677031
3058+584612065+585480730+585404793+583984107+581635411+579142291+577030426
3048+575802366+575845602+576475256+576194885+574552990+572613890+571518748
3038+571614970+572566414+573524580+573664402+573001201+572299487+572100442
3028+572061565+571209553+569025870+566280779+564338530+563789173+564178665
3018+564718999+564957587+565059077+565355132+565383169+564071240+561337836
3008+558454135+556388837+555073396+554456761+554856366+555786615+555807749
2998+554428664+553138231+553660642+555862249+557969208+558600981+557961699
2988+556780024+555135344+553172930+551847678+551645908+551336592+549510548
2978+546874578+545380014+545494585+545901213+545635739+545065006+544591100
2968+543791650+542397547+541064665+540514945+540595483+540676869+540442460
2958+539972915+539448627+539074941+539137010+539760790+540538501+540713445
2948+539874210+538254357+536522234+535532277+535829785+536971675+537561544
2938+536330032+533282347+529860430+527877609+527883059+528716299+529045175
2928+528852791+528755236+528665191+528188379+527629393+527451603+527328676
2918+526804328+526127502+525326538+523565046+520630720+517798006+516244885
2908+515895905+516286668+517244652+518303158+518552404+517623547+516173551
2898+515132728+514834614+514758920+513992109+512271976+510457862+509454462
2888+509030272+508322745+507314076+506959131+507724065+508835466+509218902
2878+508593669+507383926+506002903+504492958+502780971+501153578+500204193
2868+500225418+500891071+501549973+501606562+500791095+499380733+498018421
2858+497102584+496484617+495906103+495453210+495338095+495490664+495616406
2848+495480006+494945757+493953892+492684866+491608588+491178797+491433492
2838+491865826+491862526+491348049+490684575+489959486+488855110+487291543
2828+485723405+484691513+484395186+484621753+484795638+484326274+483223805
2818+482168630+481773598+481962712+482152946+481808841+480762719+479292104
2808+477973756+477241734+477066578+477105151+476942893+476150225+474575183
2798+472762431+471556020+471164833+471035880+470605938+469825714+469004403
2788+468406541+467962883+467375164+466599693+465995261+465790130+465643344
2778+465035612+463949947+462837638+461974181+461179181+460243512+459318924
2768+458687726+458367904+458167133+458004269+457929272+457794234+457213539
2758+456171989+455352434+455326092+455704987+455631261+454830750+453638932
2748+452362549+451173910+450279267+449781714+449527867+449261666+448889281
2738+448535518+448301320+448056526+447630913+447029751+446270751+445244612
2728+443883482+442370509+441206849+440927629+441390028+441552135+440515429
2718+438586381+436819651+435832843+435441444+435185356+434878311+434604449
2708+434409340+434227977+433968286+433532773+432987140+432631923+432526980
2698+432197106+431296922+430202628+429519716+429408476+429574246+429499975
2688+428735768+427374062+426113907+425588136+425715756+425773889+425109780
2678+423829672+422662318+422113264+422016618+421956850+421786175+421595940
2668+421443160+421283142+421097541+420950058+420800366+420351803+419362996
2658+418105294+417167202+416795514+416752187+416750067+416669983+416409020
2648+415903505+415274366+414699364+414228062+413834726+413559260+413464430
2638+413423313+413100100+412326991+411416240+410857830+410806600+411035408
2628+411197999+411020935+410447144+409643788+408795409+408012217+407426951
2618+407161598+407223001+407527109+407895103+408035682+407762185+407225423
2608+406774498+406602854+406571911+406385037+405942499+405413852+404954601
2598+404571831+404260184+404026622+403857431+403822097+403995103+404204049
2588+404168564+403889586+403588232+403353066+403129405+402907955+402710121
2578+402524549+402398958+402442890+402615806+402657014+402330591+401650525
2568+400866698+400316069+400195413+400379591+400547208+400518263+400345741
2558+400137189+399993249+400044963+400344045+400773443+401171139+401430861
2548+401437734+401096626+400513782+399982107+399705551+399629070+399563337
2538+399418428+399290596+399344127+399638153+400053229+400328846+400175460
2528+399510442+398646228+398065473+397980544+398281413+398799251+399351272
2518+399699405+399752330+399651990+399492275+399203972+398835160+398634934
2508+398738090+398959480+398996116+398772213+398524330+398534079+398792105
2498+398990666+398876610+398537864+398291253+398343028+398598904+398779873
2488+398705148+398472374+398348841+398495324+398838581+399189166+399413342
2478+399519767+399644057+399930362+400400059+400913991+401233602+401193242
2468+400893009+400619299+400521926+400511541+400470243+400395941+400366481
2458+400446051+400567070+400566102+400450169+400450350+400681126+400965009
2448+401088542+401022718+400840053+400576547+400244129+399932875+399781790
2438+399776067+399757901+399723596+399832596+400075453+400249852+400267413
2428+400191386+400052654+399901235+399934934+400330663+400995408+401645226
2418+402084736+402223166+401911003+401134927+400338595+400071698+400324365
2408+400646095+400838479+401077430+401462743+401854324+402091034+402170392
2398+402261618+402561155+403084261+403654571+404102740+404387622+404544703
2388+404585880+404448056+404039248+403292238+402078741+400151813+397408660
2378+394221123+391229027+388685676+386266403+383691261+381152270+378845539
2368+376645900+374632620+373357992+373322416+374624293+376931448+379424659
2358+381424769+383355603+386345640+390896639+396243153+400698627+402634729
2348+401408970+397862037+394243922+392664308+392961452+393334351+392903471
2338+392269094+392031202+392003075+391849204+391697089+391943640+392755928
2328+393856671+394765211+395204691+395301216+395498112+396235826+397508364
2318+398800129+399683418+400310649+401052057+401913607+402637485+403160288
2308+403710887+404565352+405777335+407089507+408144197+408824657+409330081
2298+409864269+410365182+410689970+410949873+411371701+411934139+412476835
2288+413003635+413519929+413792125+413624145+413155447+412656351+412259017
2278+412024608+412049042+412331078+412611812+412517740+411948218+411212532
2268+410696692+410542942+410707531+411102019+411592637+412040867+412417157
2258+412797414+413251912+413796000+414420719+415110625+415811794+416420859
2248+416846168+417042367+416936184+416410776+415466447+414337970+413369661
2238+412756176+412425272+412206395+412042411+411915397+411703514+411373124
2228+411183102+411368734+411742633+411949853+411997116+412185201+412617323
2218+413076241+413320127+413322761+413282159+413428006+413770870+414134292
2208+414473069+414962628+415713361+416578484+417283529+417673898+417859227
2198+418077711+418413126+418838224+419482229+420471702+421547194+422267771
2188+422560253+422735378+423040547+423450475+423827553+424134992+424490905
2178+425026880+425687931+426197806+426275408+425954647+425664194+425844709
2168+426488078+427209806+427759526+428250872+428851247+429459524+429843929
2158+429983781+430107950+430469343+431205241+432252635+433278986+433953511
2148+434383392+435014136+436105342+437546011+439062890+440400949+441451008
2138+442351464+443405398+444894936+446952997+449467493+452086962+454451160
2128+456474947+458391066+460524094+463034473+465850110+468749859+471431821
2118+473595641+475120090+476178262+477135217+478336784+479957364+482008552
2108+484520777+487726572+492091485+498116733+505794593+514086999+521381363
2098+526849805+530934499+534194551+536201473+535958162+533171591+528607845
2088+523125052+516912083+509878651+502246237+494470247+486967815+480098427
2078+474169887+469404189+465895133+463459329+461637615+460069597+458731962
2068+457683660+456829861+456044369+455298328+454603668+453979889+453498989
2058+453270030+453331463+453588278+453923572+454325447+454810071+455328908
2048+455880900+456603415+457681994+459284347+461606671+464888796+469342059
2038+475031588+481798637+489382304+497625690+506425579+515562488+524737093
2028+533576827+541489097+547806039+552188665+554730290+555811201+555991292
2018+555687244+554733136+552572100+549060502+544771131+540361437+535947020
2008+531333013+526608129+522054616+517617007+513056651+508597666+504817958
1998+501972285+499991705+498935652+498791379+499014616+498940708+498545767
1988+498221614+498078522+498040191+498325497+499288235+500894765+502712755
1978+504373029+505840676+507245164+508618618+509939630+511392169+513303293
1968+515647205+517844694+519341196+520213071+521007798+522302893+524487908
1958+527493386+530605926+533000886+534591006+535990075+537692646+539721308
1948+542011749+544696587+547864717+551182479+553942224+555742773+557080620
1938+558893584+561536578+564468906+567010894+569099142+571061132+573026453
1928+575015269+577316489+580135397+582976952+585110313+586642240+588174893
1918+589504626+589841676+589316541+588977553+589457393+590589594+591954994
1908+593235980+594300117+595261250+596217478+596962489+597332240+597676981
1898+598533959+599845646+600935761+601489236+602098907+603280642+604446270
1888+604659304+604000463+603198469+602531513+601878304+601282682+600958288
1878+600940666+600950476+600764935+600796424+601883148+604134532+606053588
1868+605483400+602210389+598353080+595696824+594224665+593052679+591693880
1858+590092981+588219038+586184442+584316313+582932565+582186463+582047126
1848+582593213+584185756+586395296+586933874+584081782+579528270+575928502
1838+574043841+572992178+571953171+571316372+571906604+573205575+573346790
1828+571732750+569691675+567819488+565459348+562722069+560656468+559587547
1818+558836420+557850096+556963204+556993784+558184361+559650525+560226466
1808+559777025+559148158+559289979+560756809+563310121+565788041+567046864
1798+567202249+567537846+569471496+573355207+577190534+577853251+575465981
1788+573250446+573319540+575340632+578011845+580621171+582938317+584729118
1778+586316331+588892473+593661562+600422798+606352731+607966105+605577382
1768+602137844+599626012+598965778+600597560+603704892+606329902+607742656
1758+608897323+610231840+611736275+614501046+619727872+626246281+630580160
1748+631071021+629702472+628944744+629773322+632159865+635456553+638336500
1738+640395076+643483696+649100862+654508022+655074455+651809377+648327511
1728+646057173+645377925+646383808+648559680+651905297+657936963+667818792
1718+678937099+684769357+683000114+678530834+675663180+675466254+677739014
1708+682180681+687928827+693221295+697519568+702702067+709765292+715760383
1698+718161520+718638756+717866495+715544625+714236571+716679733+722329962
1688+729009448+736923353+747173903+755298783+755119357+750083280+746532199
1678+746928291+751047380+756873764+761925949+766021664+770166792+772935499
1668+772168688+770126583+770804620+774562740+777725298+777291238+775523873
1658+776924576+784153904+797429371+811884817+816090864+810806752+807868672
1648+810351619+813285460+810836424+804731425+800043541+798854538+801449270
1638+807761186+815600124+818382819+812451554+803838720+798499745+797054897
1628+797087052+796662983+795982464+795200393+793521983+791762550+792121582
1618+794630023+795653346+791930651+785578708+780087437+776588979+774661626
1608+773169061+771053200+768532890+766937380+766758258+766769158+765875665
1598+764686845+764320183+764859366+765636714+766104504+766065809+765710047
1588+765376872+764982051+764101518+762728669+761487469+761208612+762688582
1578+766349147+770818548+772498108+770581414+768822586+769803036+771934097
1568+771916960+769819084+768118450+768427040+772157182+781103252+793242157
1558+798039828+791909820+783522858+776734978+771426644+767816461+766274845
1548+766998420+770489370+777031214+785987880+796348520+805604511+807273171
1538+800246159+793400146+792244509+794774326+795545557+793877260+794596899
1528+800128318+808055606+815519888+823155057+831484250+837435196+839400698
1518+840446124+842172433+842750130+841496576+841154197+845286426+855370995
1508+869113282+878695242+877342619+870777825+867021946+868550542+874395940
1498+880929610+884082540+884180821+885423717+890304773+897434185+902682508
1488+903347042+901334125+899882676+900389523+902639333+905819331+909716001
1478+915126915+922469845+930715411+937843611+941154046+939307898+935436903
1468+933962868+936024410+938911382+939724639+939878873+942578608+948110027
1458+952752071+951695625+946630360+943315989+943579465+946724281+951285484
1448+954747972+955373508+954603851+955231446+957874379+961253241+965244377
1438+971112120+978018083+982000136+981880115+980766080+981008786+982342818
1428+983683632+984825401+985540741+984985388+983624773+984145487+988910701
1418+996193075+1000695358+999835594+995118704+989560095+986569211+987734052
1408+990991985+992765527+992050248+990995800+991513487+993463789+996073055
1398+998983885+1001453752+1001803458+999031300+994804543+992041528+991861861
1388+993033605+993676520+993082473+991722402+990201436+989719356+992186376
1378+998005918+1004754497+1009445410+1011695885+1013147092+1014902104
1370+1017480183+1021616228+1027434982+1033448239+1036775144+1035272648
1361+1030670085+1027511281+1028506204+1032735746+1037474194+1040600541
1352+1041677697+1041787908+1042358823+1043788774+1045451137+1046409727
1344+1046358497+1046441579+1048761450+1054199675+1060418215+1063628975
1335+1062695213+1059516184+1056753169+1056490238+1058666715+1060574811
1327+1060405256+1060205666+1062870824+1067895940+1072150915+1073741823
1318+1072932442+1070129218+1065470339+1060115802+1056129450+1055471214
1310+1058390946+1061985869+1062657306+1060689502+1060356448+1064675491
1301+1070862784+1072995661+1069338366+1063582711+1058260752+1052250644
1293+1045439753+1040363164+1038114505+1036359251+1032373626+1025801807
1284+1017820867+1009598493+1002430145+997578761+995050700+993418434+991210650
1274+987847896+982846577+975291280+965299906+955323005+948431939+945516204
1264+944566152+942587994+937863958+930725644+923406150+918163034+915025848
1254+912175331+907864463+901453116+893553805+885431832+877745372+869872645
1244+860854091+850739548+840695854+832267230+826494922+823092322+820562263
1234+817614373+814214741+810921444+807878179+805057152+802940625+802116650
1224+802217535+802003775+800877689+799663496+799514106+800833666+803401148
1214+806470209+808834286+810114666+811777937+815456729+820641167+825462273
1204+829514751+834024301+839093986+843050182+845063341+846433101+848662139
1194+851869267+855345501+858580968+861718093+865335603+869350235+872664363
1184+874812621+876946406+880316488+884952537+890429880+896842681+904078428
1174+911218013+917706629+923864553+929923348+935594710+940719441+945669590
1164+950800376+955899491+960218776+963154918+965203018+967437688+969495174
1154+969656433+967550684+964794754+962314169+959544069+956983854+956983733
1144+960686141+966041405+969971078+970502147+967531549+963812730+963273667
1134+966799012+971413746+974910448+978500042+983234373+988190033+993040690
1124+997800878+1000527438+999894757+998097901+998499140+1002152317+1007318225
1114+1010814988+1009915197+1004332670+997284220+993733684+995210263+997559747
1104+996659290+994144249+993391547+993995283+993299321+989814246+984409326
1094+980146600+980072238+983994038+988183856+988848329+985632361+981637410
1084+979732221+979985887+980893731+981026407+979143200+975197420+971554476
1074+969982947+968083086+962736239+955778623+951889825+952678800+955373084
1064+956251862+953998117+949516362+944137421+939271504+936273050+935110935
1054+934307306+933145251+932879231+934890453+938600612+942417713+945606068
1044+947804526+948113479+946602868+945621570+946852779+948482926+948092587
1034+946718286+946977281+948846076+949509035+946534622+940901470+936673805
1024+937224252+942254940+947879675+949907246+948193412+946478850+946865920
1014+947202486+944287598+938015649+931028179+925358391+920878210+916281522
1004+910516844+903603554+896404443+889685414+883667010+878463860+874469273
994+871639889+868926348+864953803+859419295+853680050+849456624+847476286
984+847166122+846941401+845099916+841084861+835898304+830933864+826929587
974+824200907+822755150+821964844+820707899+817992662+813738474+808819389
964+804183037+800307683+797655423+797017837+798758256+802033326+805216231
954+807089023+807823437+808987975+812295018+817985940+824870406+832180696
944+840025084+847512922+852679859+855472728+858435575+863310999+869370702
934+875777266+883107721+891526960+899532424+905461207+909144480+911606112
924+913600075+914489208+912681755+907788224+901787199+897220970+894959474
914+894313410+894662813+896025791+897905002+898565418+896704676+893803292
904+893062520+895498536+898866801+901073011+902270975+903314281+904876062
894+907586636+911314841+915176752+918622285+921540079+922873506+921233791
884+917954058+916214972+917334881+920640349+925848404+932438268+937916762
874+939846294+938613208+936092656+933441487+931456849+930831798+931235762
864+931070628+929351161+927730461+929508968+936349955+945759454+952199505
854+951684846+945736080+939491198+936858801+938975873+944892666+951803292
844+955973490+955224663+951290752+948902029+950204391+952721188+954262259
834+955846747+958776713+962804182+967505752+972662032+977163164+979292347
824+978871367+978164385+979564846+982869225+985795315+986808041+985499866
814+981591448+976448431+974290665+979272001+990997192+1004023051+1012460577
804+1014654675+1013710861+1013056198+1012963004+1011739424+1007311988+998617465
794+986545958+972835825+959896077+950779424+946913092+946448149+946006822
784+943221523+936956174+927682622+918570450+913342170+912733166+914624730
774+916807202+918353541+919256056+920193209+921879613+923723762+924864199
764+926509667+929912145+934608023+941477411+951484590+960423089+962735331
754+960240636+959073131+960094032+958812865+953829168+949545671+949083150
744+949580914+946927141+942823312+942648913+948025674+954608998+956434860
734+953048853+949458350+949713167+953836374+959799128+966454755+972404369
724+975111794+973952464+970497969+965310503+959120364+955101978+955602831
714+959858593+964431726+964966186+961517080+958356944+958711011+962485117
704+966499506+967527734+965214705+961493040+958392127+956734306+956482275
694+957849370+960704853+962457564+958929676+949971738+941378100+938167521
684+939282404+940036499+939609160+942677252+950903804+956368915+947566120
674+926076697+904633780+892411672+892405435+904190395+919651724+927418541
664+928830265+929809020+932977089+935429637+931228253+921113649+911194639
654+904377571+901279201+902144293+904724129+904127781+901792952+906776407
644+920967772+934277815+935535608+924684834+911662913+906029518+909421642
634+915965908+916954049+908218651+895652226+889469171+894218338+905272638
624+913009358+911557304+902534996+891635899+883925338+880291115+878434007
614+876583135+875473582+877721574+884834212+893163768+895154340+888524025
604+881191511+879087277+879043798+877559468
##END=
