##TITLE=<SNM>
##JCAMP-DX=4.24
##DATA TYPE=INFRARED SPECTRUM
##DATE=29/4/2025
##SAMPLING PROCEDURE=Instrument type and / or accessory
##ORIGIN=Admin
##XUNITS=1/CM
##YUNITS=ABSORBANCE
##RESOLUTION=4
##FIRSTX=4497.3318
##LASTX=599.83466
##DELTAX=-1.4281778
##MAXY=2.1958241
##MINY=0.51140988
##XFACTOR=1
##YFACTOR=2.0450206e-09
##NPOINTS=2730
##FIRSTY=0.53121096
##XYDATA=(X++(Y..Y))
4497+259758244+259839882+258960570+257738905+257465834+258294228+258919240
4487+258339784+256933070+255539414+254664736+254861793+256584365+259079049
4477+260418610+259438451+257123191+255563256+256071391+258312765+260659970
4467+261516432+260684715+259307147+258484203+258327368+258202476+257571926
4457+256674339+256319921+256758251+257070378+256324759+255068032+254753078
4447+255748567+256833594+256890925+256252331+255859148+255936007+256062909
4437+255911961+255649150+255942681+257271225+258950660+259538918+258539261
4427+256919517+255860401+255833907+256598996+257375568+257463911+257143185
4417+257348550+258312824+259337110+259897796+260176988+260482207+260709314
4407+260505232+259684853+258392364+257000281+255944751+255553433+255804849
4397+256253467+256398849+256100829+255660021+255612979+256218288+257093870
4387+257717075+258139083+258620025+258812915+258054792+256333590+254445090
4377+253324446+253405939+254425766+255690566+256600162+256941668+256761924
4367+256152213+255245328+254310842+253632930+253261753+253066123+253013252
4357+253149744+253437300+253931300+254766806+255631399+255896018+255542329
4347+255249555+255323324+255276457+254688635+253854062+253332840+253243653
4337+253207919+252875128+252416483+252330472+252701270+253067464+253185564
4327+253278482+253292910+252878771+252343005+252451371+253043622+253003080
4317+251906394+250610291+250075661+250523930+251684388+253102702+254183764
4307+254541505+254421306+254416118+254759927+255196479+255524899+255827000
4297+256064425+255938805+255313210+254571584+254413641+255141626+256181418
4287+256558541+255893978+254666543+253563970+252891304+252583374+252631261
4277+253318442+254711661+256089170+256524673+255941690+255005892+254272136
4267+253950682+254124918+254736173+255503681+255977919+255772496+254981584
4257+254202913+253884520+254000172+254479948+255412453+256749391+258159952
4247+259150545+259231280+258305216+256961080+255962326+255535858+255528455
4237+255930090+256779295+257781954+258420198+258359399+257661639+256817214
4227+256482178+256794422+257105033+256905731+256742920+257411564+258443632
4217+258448995+257111154+255705839+255359407+255801584+256170721+256217880
4207+256335689+256941931+257998860+258853399+258776773+257862660+256864198
4197+256126681+255437956+254868322+254893767+255643991+256624645+257241117
4187+257358343+257276354+257290403+257441031+257659132+258034098+258816033
4177+260013273+261038958+261101448+260200858+259337605+259406332+260297361
4167+261239426+261521970+260793780+259212539+257414595+256099226+255702079
4157+256318726+257604424+258885489+259712367+260165912+260434611+260393806
4147+259817993+258836523+257970559+257682682+257880847+257971900+257616112
4137+257180638+257179210+257625468+258227279+258834687+259447632+260063580
4127+260596664+260870930+260863789+260823568+260765829+260232540+259172579
4117+258468698+258848939+259857632+260500511+260451487+260178591+260191619
4107+260452653+260555918+260495731+260826774+261754965+262647539+262797962
4097+262122149+260989439+259912194+259265585+258883332+258268026+257472742
4087+257232373+258000259+259345883+260424556+260756415+260483752+260009251
4077+259561303+259203445+259053488+259218018+259527289+259520993+258859082
4067+257820952+257224299+257556391+258311833+258557390+258045086+257374082
4057+257161431+257421503+257784606+258110695+258632179+259418136+260082087
4047+260369819+260660319+261331295+261968810+261925324+261393114+261149918
4037+261391394+261499702+261014534+260276522+259885554+259978064+260315840
4027+260739772+261211446+261589385+261701685+261646191+261768051+262247973
4017+262850047+263195925+263185258+262937194+262447683+261627625+260734467
4007+260376231+260794538+261500081+261966624+262290818+262762171+263232096
3997+263351420+263079719+262640310+262249022+261998073+261767585+261331295
3987+260740151+260371947+260482557+260981919+261715034+262707288+264006219
3977+265351784+266152140+266004223+265253328+264757784+264995180+265577784
3967+265778748+265401333+264914824+264829950+265227505+265789211+265985861
3957+265426749+264343296+263563138+263819421+265223191+267284821+269191276
3947+270322150+270733665+270768291+270277643+268949654+267258735+266203612
3937+266201689+266915742+267999020+269324416+270368813+270343426+269372157
3927+268525780+268446211+268738110+268960933+269461607+270710698+272410040
3917+273555749+273300603+271727668+269718036+268232161+267826183+268721264
3907+271062027+274718596+278689304+281358429+282095391+281549861+280180047
3897+278084316+275923881+274802042+275315424+276755947+277455428+276924966
3887+276355769+276490046+276813977+277130884+278039256+279019648+278456134
3878+276571597+275318105+275520089+276586666+278251091+280540760+282170180
3868+281875016+280677835+280129011+280193075+279976868+279325304+278666133
3858+278495132+279818400+283874244+289172854+290527425+286975986+282341065
3848+279545125+279457366+281215000+283083944+284138280+285069939+286891957
3838+289072591+289788947+288369730+285871927+283631922+282309907+281878864
3828+281961522+282175864+282820608+284937003+288551078+291321048+291559726
3818+290629641+289584515+287734604+285173670+283509595+283987943+286498600
3808+289503693+291008659+291052786+291684997+293538493+294548206+293619986
3798+292488325+292367951+292632920+292665447+292901357+293859277+295492136
3788+297666736+300364920+303268438+306008709+308892991+312419597+316154133
3778+319215274+321816197+325087570+329826485+336086862+343105916+349560291
3768+354901192+359752699+364576313+369309370+373992703+378321268+381305055
3758+382730568+384114140+387410171+393699403+402209141+409457401+412850459
3748+415020425+419411363+425324405+428698286+428708895+428766517+431288482
3738+436479455+442852862+447919351+450226101+450777751+451506553+453773489
3728+458029363+463172128+466989614+468519150+468674879+468266686+467302616
3718+465971187+465108400+465765443+468188107+470674893+470662477+468194141
3708+465513212+463823925+463246859+464055172+466250903+468662725+470007532
3698+470337671+470392320+470567693+471219490+473215366+477024166+481038710
3688+482491621+480938535+478115314+475852051+475821535+478870580+484251791
3678+490367282+494731756+494285702+490301470+488108974+489813854+491781049
3668+489979404+485638802+481738978+479128845+477405516+476775374+477854018
3658+480015648+481212218+480934629+481716885+485815049+491958492+495427768
3648+493245881+487604511+481998058+478450904+477156724+476723523+475914861
3638+475295795+476041822+477894152+479795099+482096864+486271129+491573120
3628+494030322+492278984+489095224+486956007+487200486+490300246+494451602
3618+496205622+495090487+494049501+494890661+496969195+499608387+502802114
3608+505218104+505035823+503253356+502742423+504573389+507065742+508265109
3598+508372892+508926962+510693631+513397294+516708597+520024914+521563077
3588+519843216+516525209+514818581+515660324+518142184+521233667+523585826
3578+523753183+522045098+520536897+520433311+521300936+522875241+525472753
3568+528315560+529554041+529028768+528658902+529492893+530562268+530678445
3558+530395085+531430476+534334023+537703678+539552948+538934057+536230102
3548+532356510+528867065+527743827+529294931+531352306+531775975+530832453
3538+530451454+531852688+534127726+534993894+533334657+530588150+528742727
3528+527949250+526947028+525203791+523704917+523663180+525281320+527911593
3518+530590190+532073092+531561459+529702396+528199616+528113227+528844098
3508+529060887+528407545+527891657+528520050+529909043+530762094+530458799
3498+529694177+529677330+530790891+532204600+532842669+532714426+532946138
3488+534355242+536472424+537915396+537558005+535557757+533134073+530981799
3478+528458435+525003848+521497207+519308849+518784159+519284425+519951407
3468+520029403+519183054+517780829+516307895+514978943+514296630+514942044
3458+516802973+518807593+519862803+519723542+518777164+517267272+515372884
3448+513696684+512758758+512089969+510787890+509148298+508745555+510404442
3438+512798747+513586220+511841701+508791024+506048363+504113228+502817970
3428+502033936+501360658+500368579+499763386+500838358+503248226+504991288
3418+505082049+504348263+503481105+502357867+501149814+500469716+500527076
3408+501031889+501527549+501694441+501863197+502751167+504224159+505050862
3398+504301221+502352388+500258231+498693078+497584589+496558467+495674403
3388+495317945+495374022+495392034+495644849+496803761+498443062+499243709
3378+498909810+498486490+498546065+498536621+498095114+497752763+498113301
3368+499198765+500581171+501721605+502461628+503090254+503736484+504233019
3358+504682629+505385520+506246499+506834612+506740819+505729037+504128734
3348+502910072+502702143+503100980+503439775+503696554+504212500+504947627
3338+505543667+506011347+506671918+507210598+506751312+505327985+504070442
3328+503590869+503550881+503908971+505149843+507149974+508788575+508937163
3318+507467726+505353400+503931531+503760326+504122497+503982420+503314680
3308+502921497+503182939+503648404+503907456+504258027+505134804+506289636
3298+507067607+507473148+508356162+510213243+512217280+513162317+513058731
3288+512771699+512554327+512099704+511657031+511915558+512792335+513314694
3278+513081757+513015828+513983308+515428437+516325499+516822501+517681440
3268+518702783+518863961+517645474+515562160+513582256+512428357+512302270
3258+512919704+513720701+514073662+513598986+512484084+511381774+511083142
3248+512025731+513596538+514426214+514086078+513470451+513015537+512292419
3238+511708911+512449925+514232392+515089816+513913940+511760617+510281853
3228+509905575+509842153+509373365+508644301+508238120+508615680+509913620
3218+511472185+511791745+509854511+506431111+503359623+501840055+501594819
3208+501344861+500392129+499561578+500018999+501550517+502717415+502511351
3198+501224837+499763678+498584596+497408954+495959920+494650787+494101498
3188+494327497+494791505+495031496+494944873+494545686+493790041+492822736
3178+492162923+492188047+492385659+491713022+489955329+488032057+486773202
3168+486121988+485579285+484789422+483688482+482625344+482199809+482423244
3158+482312488+481003676+479100194+478089082+478494477+479276762+479080025
3148+477673690+475968985+474824996+474186081+473550081+472885839+472557361
3138+472582893+472704491+472912245+473125129+472771148+471429314+469448420
3128+467468254+465844925+464820319+464637980+465067041+465400329+465341191
3118+465353811+465692199+465762266+465092311+464207140+463780381+463579447
3108+462902467+461594880+460177819+459235201+458897280+458792207+458565450
3098+458456384+458990635+460095481+460967682+460895195+459976739+458983086
3088+458596665+458854376+459258139+459268719+458592701+457264420+455761058
3078+454822112+454805119+455362425+455890817+455921799+455093609+453497765
3068+452033284+451629987+452139580+452578027+452372050+451788222+451232287
3058+450790313+450509927+450479935+450561515+450574048+450671951+450963325
3048+450985622+450207126+448741800+447116985+445789257+445056638+444925625
3038+445065819+445176487+445199658+445072143+444585372+443519465+441827002
3028+439953511+438854523+439098244+440003147+440212067+439247065+438058307
3018+437780252+438326248+438645428+438153178+437222655+436312389+435392505
3008+434371279+433514118+433175613+433326766+433541923+433440757+432991817
2998+432368816+431681257+430894862+429969528+429050489+428373597+427985893
2988+427779800+427611073+427214393+426413542+425624407+425608756+426445486
2978+427296789+427428443+427061725+426928118+427140099+426943420+425793106
2968+424051852+422314882+420899687+420130139+420095222+420223844+420105685
2958+420225972+420949847+421645451+421640526+421153171+420682489+420276220
2948+419785601+419283003+418937096+418708968+418415233+418120506+418178332
2938+418659070+418961287+418343125+416884735+415621275+415545844+416555732
2928+417493221+417263315+415838269+414142133+413054308+412592136+412057099
2918+410968196+409714558+409048537+409140406+409498468+409686024+409724001
2908+409812781+410010917+410253034+410455805+410505791+410243416+409571887
2898+408558269+407343570+406020419+404741744+403843924+403610346+403933782
2888+404412538+404742968+404846438+404669024+404123407+403336400+402677550
2878+402345429+402151198+401918757+401745891+401606921+401192783+400462291
2868+399867095+399751414+399923406+400011253+399916352+399691577+399192039
2858+398204419+396954571+396105191+396006269+396243111+396201694+395806763
2848+395400377+395181460+395104076+395105184+395105213+394892970+394341669
2838+393723128+393471858+393612343+393723711+393536038+393246441+393074041
2828+392805400+392139088+391304982+390848639+390819405+390688655+390167696
2818+389589347+389291647+389101789+388685522+388034570+387331068+386635027
2808+385995325+385637526+385720389+386002233+386000571+385489521+384716097
2798+384078144+383644157+383151061+382547676+382243972+382526603+383017455
2788+383103669+382690288+382169503+381872795+381856648+382008937+382112581
2778+381928551+381370605+380537897+379551326+378500459+377540848+376812834
2768+376249495+375734103+375381608+375322587+375338647+375116844+374742985
2758+374543567+374546685+374433248+373984950+373355041+372845478+372526472
2748+372244104+371996448+371972665+372121369+372104493+371821862+371517226
2738+371252520+370789444+370087049+369461455+369222368+369434698+369884366
2728+370096843+369695499+368894240+368288552+368127898+368160279+368123060
2718+367983012+367713992+367199940+366457090+365746680+365332104+365190657
2708+365052621+364703653+364191146+363737106+363523726+363551531+363620317
2698+363481085+363078605+362612469+362287022+362087050+361923802+361833857
2688+361809753+361645164+361227061+360764802+360496598+360388408+360263720
2678+360029501+359695660+359308044+358880440+358400897+357957233+357709228
2668+357660874+357675068+357721469+357844991+357969183+358002001+358004100
2658+358041990+358008414+357733506+357200830+356592781+356150225+355980098
2648+355978612+355934222+355709301+355336724+354950478+354630744+354327827
2638+353926396+353404941+352960549+352898205+353326246+354030652+354665603
2628+354934885+354674668+354004450+353311732+352883486+352639066+352330320
2618+351900384+351550891+351504607+351785373+352239179+352664219+352859091
2608+352722482+352413124+352190709+352025479+351675841+351208190+351004312
2598+351140308+351218711+350955521+350511886+350138465+349907568+349843680
2588+349921150+349933071+349699056+349335136+349068681+348935192+348838106
2578+348730643+348611668+348474273+348329387+348224898+348214988+348297676
2568+348407266+348530409+348745216+349023913+349114558+348793949+348157366
2558+347518714+347121975+347040395+347213699+347474295+347638272+347651300
2548+347585779+347517169+347519880+347720464+348173338+348710445+349064572
2538+349102986+348878735+348558681+348326181+348251130+348264275+348289107
2528+348301494+348264275+348179401+348189981+348414465+348684097+348659760
2518+348260165+347827781+347785023+348171036+348599544+348717324+348593860
2508+348521286+348580220+348630351+348630409+348729361+349026682+349339421
2498+349288182+348721317+348020233+347762610+348065002+348489021+348615661
2488+348490274+348415543+348496541+348559060+348459758+348295053+348247078
2478+348385814+348693132+349118696+349536712+349782852+349815116+349748430
2468+349684483+349619633+349572707+349631145+349778188+349878247+349898620
2458+349912611+349906023+349856125+349885184+350055806+350213779+350270293
2448+350375161+350615763+350824450+350846980+350774377+350786065+350913580
2438+351026113+350973009+350730425+350441702+350300984+350407776+350766245
2428+351332090+351938099+352293508+352269754+352115250+352195722+352558943
2418+352896281+352949531+352849647+352942099+353332921+353776527+353998737
2408+353974546+353928291+354152367+354706408+355266103+355453163+355305654
2398+355231506+355552494+356255326+357081709+357704069+357893373+357652859
2388+357180019+356631050+355947629+354950653+353503455+351490296+348784389
2378+345407157+341620682+337723073+333847907+330096495+326710957+323860543
2368+321372737+319013612+316928636+315468789+314780442+314886155+315902106
2358+317930334+321036535+325502262+331649990+338883705+345238546+348629914
2348+348339297+345345134+341758661+339435181+338752139+339205276+340504673
2338+342503959+344752066+346598567+347740196+348450548+349114062+349821179
2328+350590260+351558673+352749122+353968746+355137043+356537403+358484517
2318+360811727+363004049+364803450+366303810+367542234+368488233+369370752
2308+370539982+372008981+373416657+374415731+374963622+375259544+375471466
2298+375587031+375547071+375418536+375341037+375386505+375555903+375869691
2288+376356754+376916944+377308407+377375327+377225049+377126039+377291036
2278+377729425+378220626+378469826+378354466+378017418+377749186+377771453
2268+378061196+378420482+378721417+378930453+378949923+378696322+378275800
2258+377862769+377511440+377223242+377039533+376959906+376901380+376825104
2248+376830176+377035045+377395933+377775796+378169270+378660792+379171609
2238+379490352+379588954+379710581+380070625+380551742+380777159+380537169
2228+380068497+379797029+379909738+380297149+380731078+380940873+380692372
2218+379972606+379027248+378162625+377568129+377296516+377299634+377438749
2208+377501676+377289433+376776663+376209827+375968730+376245240+376850637
2198+377381564+377593865+377587774+377622254+377808236+378057844+378330478
2188+378792854+379601983+380605342+381440177+381933973+382245138+382596379
2178+383033980+383478461+383844217+384053574+384099363+384155586+384428977
2168+384838395+385080221+385082057+385113156+385390162+385844552+386318469
2158+386740332+387069101+387262982+387358319+387474205+387693793+387978580
2148+388212275+388314024+388322360+388389193+388640200+388982639+389154165
2138+389069087+388980191+389186575+389725780+390404567+390990115+391370648
2128+391630836+391918189+392228276+392465089+392683190+393069261+393668071
2118+394279471+394694980+394996527+395518448+396440985+397549270+398536861
2108+399374233+400165844+400848828+401338485+401798616+402452978+403259542
2098+403980940+404448067+404669928+404854074+405297330+406058250+406851407
2088+407465314+408047248+408720438+409199165+409094588+408465467+407861236
2078+407851880+408539061+409470108+410037119+410023129+409785850+409900540
2068+410602294+411578663+412353370+412787766+413051044+413265531+413454835
2058+413696691+414076874+414586992+415200695+415918188+416666371+417296921
2048+417737903+418074105+418468570+419028411+419739608+420535300+421397359
2038+422350353+423395595+424459841+425372030+426013247+426583960+427480556
2028+428769461+430100482+431236981+432288664+433412980+434676557+436112242
2018+437595523+438867756+439894782+440941772+442214734+443701600+445336354
2008+447097311+448947426+450769824+452434336+453984886+455600608+457235507
1998+458609606+459771084+461213560+463144381+465097062+466567693+467609584
1988+468533315+469527872+470753792+472303672+473954748+475365396+476549287
1978+477816303+479287371+480812681+482340614+484062078+486170750+488649899
1968+491299262+493850898+496078312+497924492+499555690+501260920+503256912
1958+505545999+507948289+510315080+512717837+515316981+518059992+520703263
1948+523144668+525578146+528293117+531301300+534096482+536070323+537353282
1938+538748628+540749984+543132047+545538593+547968747+550508667+553068405
1928+555668890+558618081+562002658+565239172+567702437+569652786+571765888
1918+573998431+575791740+577221363+578987683+581412883+584140737+586631107
1908+588542517+589742176+590341656+590783221+591658833+593258494+595350145
1898+597493966+599427527+601068111+602445503+603678447+604641439+604814800
1888+604062303+603239272+603332365+604460382+606030665+607468623+608601421
1878+609477964+610013322+610136902+610389250+611699199+614130752+616266472
1868+616490431+614961070+613269831+612485039+612428671+612291975+611534989
1858+610229704+608784692+607577105+606727668+606109534+605609268+605334245
1848+605596852+606650080+607974252+607986901+605872809+603044866+601190991
1838+600417858+599724702+598536877+597431185+597334537+598312568+599413479
1828+599946330+600040822+599423039+597317224+593976832+590698056+588345547
1818+586921404+586076513+585489683+584954441+584321443+583460697+582438655
1808+581619238+581379714+581828100+582804848+583981074+584940393+585353512
1798+585307985+585505305+586855417+589417662+591504241+591062442+588691921
1788+586903566+587069234+588562453+590063951+591226069+592443507+593677209
1778+594744078+596153415+598574767+601802188+604704511+606459406+607290365
1768+607325923+606433407+605521713+606141304+608445488+610808198+612227095
1758+613351732+614537750+615487334+616753097+619460491+623441691+626732359
1748+627806631+627331897+626871445+627349501+628882127+631068269+633175192
1738+634978819+637462777+641406671+645057061+645554704+643622892+641749022
1728+641049046+641616465+642952237+644223246+645459979+648099578+653368517
1718+659935921+663575936+662145147+658480941+655749531+654930172+655943004
1708+658759113+662940082+666813033+669057876+670603151+673099759+676419456
1698+679049204+680136533+679119621+676469821+674472779+674824050+677272974
1688+680808645+685338669+690747219+694393529+694003728+691953698+691107292
1678+692161453+694378665+696233298+696899173+697629461+699900943+702775111
1668+703698464+702616439+702042142+703456375+705938702+707657630+708285381
1658+708766294+709950739+712403802+715910036+718414105+719087033+719835042
1648+721157523+721464433+719944574+718416728+718253742+719059519+720399605
1638+722770476+726365372+729114852+728667458+726172016+723723091+721943888
1628+721082734+721846598+724197242+726312850+726355579+725283872+725708299
1618+728594767+731873835+732572470+731264679+730483793+730990821+731933526
1608+732615956+733274836+734305505+735573075+736675327+737625611+739035239
1598+741456183+744761657+748429419+751957629+754799911+756633559+757673380
1588+758289065+758747185+759552729+761302144+763976952+767104751+770679478
1578+775114602+779741741+782163676+781679091+780710445+781088647+782082650
1568+781773058+779974852+778093813+777424441+779125998+784350576+791943811
1558+795267822+790889941+784013179+778736954+776147777+775662026+775939790
1548+776502195+778237854+782114594+788225043+795704841+801462737+800215278
1538+792991968+786868169+784939855+786151755+788173921+789833857+791696126
1528+794319170+797496576+801268332+806611944+813608497+819343076+821053727
1518+820409653+820253837+821350960+823722297+827993736+834456563+842479646
1508+850977522+857279986+858166790+855817837+854725960+856845999+861777425
1498+866937007+868832154+867318881+866435226+869325891+875414247+881632771
1488+885931898+888754594+890786728+892533986+895140534+899257556+903950157
1478+908359691+913513852+920828099+928945150+933542501+933038738+931526282
1468+932887586+937384558+942517967+945489892+946937060+950251337+957181145
1458+965228594+968607459+965813268+961203325+957417054+954545742+951948697
1448+948854591+945419474+942602608+940514805+938565738+936901371+936407110
1438+937656259+940200900+942350434+942640731+941745184+941470801+942947816
1428+945637197+947885071+948943254+949530900+950197300+951008206+952700203
1418+955697718+957944601+957234424+954609573+952931682+953272810+953770161
1408+952549867+950528809+949989778+951408850+953269662+954480630+955554494
1398+957457334+959891919+961116702+959859334+957388841+956000839+956388192
1388+957892313+959908999+962960318+967986119+974048710+978244660+979546564
1378+980940570+985730112+993106674+998314173+998192575+995506808+994951047
1368+997439902+1000174752+1000671403+998773750+996022463+994811728+996828181
1358+1001374294+1006125130+1010023147+1014061765+1018569055+1022405166
1350+1024772073+1025787761+1026021980+1025999362+1025303700+1023026214
1341+1020310484+1020219665+1023543734+1027705233+1030451508+1031541343
1332+1031467195+1031336970+1032779242+1036077546+1039877632+1043053406
1324+1045083732+1045536548+1045465548+1047732309+1053441239+1059611497
1315+1062882520+1062772114+1060191157+1056557088+1054447834+1055988853
1307+1060845315+1066744512+1071273254+1071993282+1068227239+1063544606
1298+1061214656+1060637327+1060011150+1058606418+1055646793+1050795461
1290+1046686775+1046755094+1050472404+1053483560+1052284250+1047574219
1281+1041957507+1035627762+1027475328+1019631144+1015934702+1016317917
1273+1017425007+1018121952+1020147498+1024005410+1027759678+1029323898
1264+1027901679+1024089934+1018853756+1012716842+1006545768+1001399709
1255+997369019+993885344+990866494+988465195+986575936+985150568+983689759
1245+980857795+976039923+970310823+965077733+960213927+954161595+946101146
1235+936894901+927751495+919269125+912295831+907775192+904808572+901193565
1225+896718511+893280479+891497430+889827234+886997893+883488220+880432995
1215+878505089+877580454+876517840+874346796+872112212+872092393+874842457
1205+878120475+879250066+878235253+877681824+879804369+884579280+890348660
1195+895469361+899440128+902635779+905590099+908883740+912775228+916371057
1185+918004412+917124720+915520104+916133574+920612300+927466678+933441889
1175+937582227+941521924+945502133+948062804+949866198+953783510+961010318
1165+970156056+979153673+985800763+988470557+988068922+987646652+989662055
1155+994151042+998827962+1001197435+1001220752+1001386302+1003875041+1007996901
1145+1010820121+1011142945+1011836276+1016126368+1022159988+1023862011
1137+1019017674+1012929259+1011674689+1015416832+1019214586+1019885765
1128+1019932866+1023276521+1030338537+1038300588+1044531702+1047387917
1120+1046023990+1042074442+1039510273+1041149341+1045291137+1049332320
1111+1055182785+1065098100+1073741823+1073591195+1065997436+1058351213
1103+1054849235+1054458443+1056342455+1059044661+1058056370+1051928200
1094+1046224282+1046151067+1049229026+1049136691+1043951692+1036340329
1085+1030027138+1028655400+1032328875+1036750125+1038360163+1038118949
1077+1038013789+1037749841+1037687118+1038405165+1039024464+1038579692
1068+1037285133+1035351339+1030125653+1020248578+1010778850+1006799690
1060+1006800739+1006714583+1007795559+1015063463+1028078655+1037594433
1051+1034240401+1019814532+1004923372+998414086+1002025770+1010979843
1043+1018362933+1021142551+1020974552+1020230857+1019615055+1018136059
1034+1015830475+1013871732+1012614014+1010216328+1004939344+998661363+994351917
1024+993006994+993916473+995425548+995942952+995037903+994293741+995874050
1014+998919831+1000475657+1000360705+1001378724+1004510662+1006921405
1005+1005077847+997892019+987785971+979400250+975459505+973511254+969084524
995+961710877+954324464+948161785+942455244+938049033+936090582+934874484
985+932177000+928143045+924217106+920819530+917686718+914911938+912125384
975+908627778+905255267+903755111+904060447+904700556+905363458+906206717
965+905454394+901221778+894737500+888930521+885275700+883575892+883270614
955+883931592+885011985+885719422+885689227+885772818+887439633+890967026
945+894731437+897252178+899319695+902491039+906917360+912334479+919245109
935+927409784+934264220+937278465+937315190+937046636+938002399+940553919
925+944806762+950879555+958742217+966878562+971074337+968030771+960456890
915+954286574+951990492+951883059+952237711+953317229+955456854+957149842
905+956301220+953066163+949625217+947696086+947950475+950422192+954030146
895+956762430+957777885+958749212+961300498+964241295+965510205+965532356
885+966805405+970654573+975487602+978972150+979788594+978192197+976258636
875+976022318+978476081+983443649+988535962+989253892+983798999+977168290
865+975759011+979884777+985025939+988106113+988728560+987666005+987657727
855+991655075+998644108+1003660524+1003498005+1000266737+998089514+997509270
845+995258015+989939994+983967115+979841174+978733851+981935389+990175029
835+1000572656+1006376254+1003569705+998317903+1000624186+1012046362+1025261030
825+1033745615+1037405449+1037629408+1034577215+1029919181+1025920784
817+1024963972+1030150835+1040610718+1049789333+1051745511+1046599569
808+1039935109+1035106394+1029933288+1024702005+1022334399+1024278919
800+1030233261+1037635937+1041853630+1040433975+1037183704+1035400538
791+1031762155+1024133887+1016405472+1012108152+1011917535+1014871331
783+1018645768+1021101513+1021478432+1019219599+1013772635+1005884382+997919416
773+991654026+987631146+984853743+981448531+977829560+976878052+979984224
763+985381640+990731955+995355714+998875529+999617242+997620959+995369237
753+994208285+993366891+991054546+986976288+985399594+992356333+1008983093
743+1026518398+1030039380+1015592176+997803880+992298157+1002545273+1020382650
733+1032902473+1032189789+1021439376+1009746957+1000348463+993184552+991264515
723+997891436+1010971798+1021873772+1022903216+1017647335+1016118790+1021665201
713+1027305930+1025920318+1021905249+1021607608+1021028414+1013587381
704+1002443961+995233533+992904632+990628661+987090775+987369180+993513672
694+998194790+994595230+986866116+980972864+977450659+977276656+982108401
684+989274760+992352136+990564190+990869409+995272239+995670143+987154430
674+975223187+964029343+950133469+930040407+911140358+908315563+923207947
664+946040639+967577839+978511873+975963152+970036382+970861687+979279701
654+989057329+991324440+983809259+974977659+971863326+974771595+980048579
644+981546112+973996947+959772128+949112185+947593608+948502912+944393702
634+937087849+930686404+927192528+926545832+927248256+927791134+928342930
624+928981174+929739151+930301848+928850133+927680495+929211488+927940421
614+923349539+924918656+937680334+952690876+954954839+942081998+924435237
604+909729505+900855119+898515201+894070576
##END=
