##TITLE=<SNM>
##JCAMP-DX=4.24
##DATA TYPE=INFRARED SPECTRUM
##DATE=29/4/2025
##SAMPLING PROCEDURE=Instrument type and / or accessory
##ORIGIN=Admin
##XUNITS=1/CM
##YUNITS=ABSORBANCE
##RESOLUTION=4
##FIRSTX=4497.3318
##LASTX=599.83466
##DELTAX=-1.4281778
##MAXY=2.2125802
##MINY=0.67176235
##XFACTOR=1
##YFACTOR=2.0606259e-09
##NPOINTS=2730
##FIRSTY=0.69600004
##XYDATA=(X++(Y..Y))
4497+337761474+336951994+335493657+333251236+330714816+329322921+329717638
4487+330805411+331457478+332188426+333896593+335836135+336254947+334622334
4477+332116604+330156554+329311813+329427400+330060348+330829245+331768948
4467+333158182+334961861+336884713+338791830+340441104+341145585+340619690
4457+339791408+339915875+341058403+341774541+340357220+336543276+332126410
4447+329514408+329371689+330122451+330069054+329529189+330041806+331779159
4437+333134348+332992179+332009782+331222806+330759188+330738477+332021815
4427+334940746+338215257+340010519+339502674+337028646+333650176+330888890
4417+329878348+330442598+331658800+333253694+335397277+337395219+337977114
4407+336737511+334405392+332065088+330791845+331376776+333521342+335714850
4397+336785528+337048287+337089332+336801552+336152753+335567706+335410988
4387+335651995+335975266+336103001+336153274+336322691+336052497+334477070
4377+332062571+330546817+330946249+332585053+334070580+334446872+333567044
4367+332186430+331637916+332587309+334172542+335111985+335161071+334576516
4357+333148637+331083992+329806179+330460243+332346504+333670048+333404570
4347+332117645+331303797+331831717+332969762+333352764+332614123+331362719
4337+330332739+330368867+332081778+334624330+335906915+334861461+332653895
4327+331165157+331057902+331650151+331883696+331088996+329360553+327534920
4317+326584283+326749187+327336462+327448172+326876083+326265177+326511882
4307+328047132+330597494+333594119+336551983+338712603+338854743+336503157
4297+333047716+330648721+330231384+331097240+331999166+332040472+331042976
4287+329601040+328443123+327594564+326718006+325999178+326057694+327182549
4277+328993228+330743799+332027108+333111236+334101704+334216653+332895712
4267+331069154+330076257+330042906+330397185+330963171+331754659+332727973
4257+333997948+335453595+336414153+336285406+335322504+334338343+333811147
4247+333550615+333174583+332746139+332613168+332721002+332658234+332347863
4237+332151748+332398599+333107331+333825523+333719308+332431574+330792510
4227+330140703+330971848+332594482+333844440+333927167+332993134+331901225
4217+331414061+331780808+332727164+333582751+333758792+333252885+332485549
4207+331877766+331711329+331942848+332122852+331943022+331704184+331907473
4197+332660027+333690296+334483173+334351244+333014162+331147310+329886129
4187+329819745+330732519+332049815+333172269+333649106+333524726+333391640
4177+333649974+333957886+333909465+333757924+333964626+334532867+334976758
4167+334826143+334231174+333919068+334249947+334789870+335316141+336196055
4157+337142439+337071659+335680053+333782858+332172199+331424041+332181918
4147+334278120+336205398+336571826+335605222+334469867+333747742+333242356
4137+332770841+332523268+332774139+333498520+334316042+334612846+333789163
4127+331877940+329931716+329290900+330160517+331444028+332279802+332831006
4117+333216149+333023476+332234794+331435611+331057092+331166604+331875423
4107+333278715+334949250+335917473+335390566+333564817+331691978+331076414
4097+331896944+333115893+333526693+332718197+331000166+329036529+327803001
4087+328117508+329824084+331933332+333598631+334499950+334682788+334623780
4077+334896114+335305814+335074005+334176563+333612139+334087732+335085691
4067+335579103+335309864+334733205+334030344+333105625+332214575+331622730
4057+331173748+331002191+331830010+333701172+335252678+335085807+333308508
4047+331237442+330170120+330581788+331879039+332781254+332472388+331570461
4037+331366999+332003216+332322264+331794113+331327487+331656399+332373462
4027+333026138+333787630+334671189+335311397+335771110+336492252+337411331
4017+338000572+338040374+337620896+336706416+335357215+333961733+332826349
4007+331968910+331448309+331484784+332104368+332944220+333590098+334016142
3997+334597111+335540603+336409062+336653540+336401108+336039192+335515640
3987+334872192+334742664+335355769+335807093+335290513+334348293+334027191
3977+334489797+335010659+334738614+333325227+331374578+330131765+330211252
3967+330999472+331748064+332571573+333799606+335080514+335728734+335469735
3957+334472789+333189798+332374272+332704891+334156517+335972113+337277145
3947+337668363+337366757+336919308+336616400+336213873+335508293+334842370
3937+334613714+334787556+335237782+336073729+337129712+337534206+336680181
3927+335255108+334457834+334521037+334652243+334446322+334567433+335767234
3917+337697173+338939379+338387191+336443570+334550714+333705308+333799403
3907+334561648+336425174+339631045+342798909+343853851+342516683+340215948
3897+338143898+336887808+337163353+339355443+341912082+342044734+339806594
3887+338221274+339010738+340889854+342184271+342968268+343159118+341735202
3878+339137634+337346914+337606347+339754528+342909028+345653133+346248622
3868+344672240+343017441+342783867+343157614+342387646+340422100+338920403
3858+339506666+343097478+349365953+354478767+353764134+349209234+344747707
3848+341792677+340672566+341570414+344008631+346846310+349270990+350735836
3838+350342333+348182408+345948462+344741141+344085891+343080903+341608971
3828+340225059+339562376+340350249+343239502+347503989+350327581+350088946
3818+348737257+347969516+346995537+345044482+343245605+343125102+345113499
3808+347966913+349512200+349587580+350356999+352460895+353304970+351346771
3798+348544295+346611522+345470121+344911946+345179912+346044032+347005516
3788+348253073+350130859+352071442+353452519+354986959+357793399+361540033
3778+364730429+366651545+368016743+370317448+374784501+380853043+385992642
3768+388633772+389757355+390594372+391330063+392192766+393762409+395947095
3758+397877351+399263259+400885720+403709138+408029018+412988845+417149981
3748+420480638+424646258+430402722+435440244+437689809+439120204+442760739
3738+449570121+457855775+464416079+466951313+465727504+463325993+462838395
3728+465674744+470481786+474335127+475762398+475594514+474927955+474009946
3718+472511807+470315494+468634199+469617434+473396581+476109186+474663431
3708+471122978+468827016+468903264+470601972+472717844+474754749+476679654
3698+477936844+478033050+477818076+479086256+482804630+487973849+491926462
3688+492689574+491034804+488641045+486612557+485821676+486509293+488248989
3678+491117126+495146333+498156900+498040330+496274081+494759888+492889970
3668+489724537+486503913+484969126+485160815+485412843+484322207+482583524
3658+482214261+484155104+487194712+489924701+492353923+494396642+494313741
3648+491177985+487265637+484616148+482866010+480925485+478805737+477471143
3638+477468713+478543180+480588445+483965700+488900391+494717889+498896756
3628+498570477+494658938+490568583+488606277+489564868+492902929+496568542
3618+498441585+498626303+498531659+498612650+498367130+498038132+498725286
3608+500525089+502090595+502503709+502450602+503220772+504874501+506057670
3598+506096777+505968117+506394363+506711849+506822403+508451603+512903064
3588+517913888+518890586+515245452+511131204+510052861+511935506+514186431
3578+514990676+514922412+515192345+515649715+515207675+513818152+512967684
3568+513665946+514700669+514418414+513232584+512522058+512844866+513981176
3558+515519608+516883330+517357997+516762132+515983168+516332993+518240283
3548+520833397+522753067+523133379+521841277+519384923+516739281+514587686
3538+512803966+511100774+509704482+508996617+509238145+510806081+513409608
3528+515310129+515086072+513566789+512295108+511129815+508908741+505740299
3518+503050632+501701489+501331821+501520415+502590775+504817981+507503540
3508+509485169+510310934+510246083+509572177+508539883+507440483+506244818
3498+504833948+503855340+504382016+506105339+506922369+505393772+502724063
3488+501257367+501764604+503071054+503790605+503518763+502728692+502172223
3478+502242049+502762708+503178078+502918559+501902116+500758749+500418411
3468+501207268+502146248+501663828+499397457+496592319+494538608+493495902
3458+493155911+493176911+493121027+492550443+491489744+490638004+490720210
3448+491551529+492194023+492143114+491897073+492153296+492724343+492580294
3438+491040589+488497343+485861362+483992803+483681623+484981390+486587103
3428+487132464+486843325+486586293+486015593+484388764+482344107+481289859
3418+481654668+482585982+483037538+482738188+482162079+481985720+482599606
3408+483715755+484491276+484264992+482957646+480812704+478565626+477627023
3398+478799807+481076736+482818428+483460516+483030104+481463817+479459395
3388+478626225+479852146+482219062+484118195+484967622+485211145+485122344
3378+484620429+483964514+483734730+484152877+484833060+485210683+485497248
3368+487058704+490769615+495166639+497551026+497199523+495929520+495462663
3358+495897876+496563567+497312333+498586096+500327875+501466903+501085202
3348+499634241+498237139+497276465+496416741+495518200+494765211+494260634
3338+493963685+493946388+494313221+494749186+494800211+494613236+494624228
3328+494711699+494525303+494349204+494686071+495243176+495128747+494045313
3318+492801863+492336394+492511509+492440121+491681578+490591781+489858867
3308+490075924+491311505+492728682+493229961+492636467+491502877+490144535
3298+488779830+488055593+488563409+490235708+492578674+495013854+496965285
3288+498177321+498796906+498869046+498319924+497526844+497150234+497458465
3278+498393337+499798943+501025500+500994492+499355573+497135714+495657620
3268+495145003+494800326+494040800+493276646+493388935+494592583+496075941
3258+496733186+496161387+495064590+494593740+495121515+495777951+495420026
3248+493986883+492528228+492038172+492582087+493452918+493892239+493588463
3238+492699930+491711777+491235778+491515546+492099378+492456030+492718963
3228+493222729+493676570+493435968+492255287+490328212+488009023+485824511
3218+484454338+484477190+485857659+487575661+488372385+488121312+487702354
3208+487484140+486987605+486050072+485187600+484634342+484005675+483176410
3198+482638511+482509995+482041026+480868039+479866088+479964869+480766828
3188+480953861+479851654+478172587+477081777+476663977+475687423+473331180
3178+470591646+469172329+469515009+470596303+471256383+471153899+470510828
3168+469476857+468106655+466707529+465754289+465455112+465501219+465165597
3158+463861924+461901730+460409087+460249707+461262100+462518219+463097076
3148+462722115+461843618+461029047+460447529+460030886+459682681+459230141
3138+458636069+458315950+458644747+459081580+458479582+456565119+454321743
3128+452701799+451808695+451358383+451217805+451306664+451462573+451507378
3118+451298854+450868558+450431899+450048694+449509985+448718265+447884806
3108+447359085+447491043+448274548+449041884+449060599+448329564+447344072
3098+446379118+445436782+444572575+443952759+443773363+444064383+444335704
3088+443804198+442445798+441370551+441568661+442665083+443418071+443200205
3078+442505674+442167651+442518459+443111548+443088986+442072659+440652012
3068+439817974+440003676+440677872+440848879+440102312+438978354+438131068
3058+437515186+436739953+435833312+435210228+435107600+435369260+435726085
3048+436094857+436418967+436349170+435522797+434166827+433005121+432593482
3038+432959650+433738267+434477516+434848688+434646759+433793399+432518449
3028+431317954+430536040+430156827+430054372+430131228+430041096+429237863
3018+427679328+426100024+425245739+425103165+425132351+425037735+425044012
3008+425462420+426228454+426995645+427515725+427680803+427326032+426363767
2998+425081789+423979582+423325837+422978153+422538369+421836955+421285548
2988+421301428+421459130+420976479+419946355+419159783+418866074+418686620
2978+418638314+419227498+420357618+421025941+420568513+419538100+418791706
2968+418352878+417754756+416891040+416001755+415333142+415146341+415575132
2958+416318547+416881292+417082238+416975821+416513620+415724619+414957052
2948+414486087+414103576+413424550+412415021+411367484+410528818+410010415
2938+409925258+410301666+410827994+410997295+410707114+410420926+410550338
2928+411072588+411813515+412537925+412712202+411851610+410264294+408913849
2918+408400392+408387086+408135550+407397487+406518036+405815898+405337702
2908+405198050+405611713+406471292+407279442+407626577+407571937+407486173
2898+407604276+407825758+407904146+407623656+406805208+405461966+404021591
2888+403109715+402987881+403320755+403565668+403585742+403667717+403843034
2878+403706274+403172541+402779704+402865786+403042029+402830989+402330115
2868+401913443+401649179+401408085+401346358+401785766+402596663+403153566
2858+403004050+402227516+401232941+400546481+400495023+400803079+400854306
2848+400527072+400357395+400753732+401420205+401649671+401042091+399901876
2838+398914013+398459882+398349473+398158507+397657865+396975223+396468940
2828+396393068+396614956+396752786+396632455+396388700+396087962+395625790
2818+395031111+394497782+394112755+393890144+393956991+394321250+394638505
2808+394535067+394000032+393296217+392660839+392172143+391771611+391409782
2798+391215113+391385166+391845516+392134221+391781128+390854644+389954569
2788+389537723+389474666+389459364+389523405+389758425+389847602+389409670
2778+388631140+388058675+387885961+387856168+387755999+387623347+387503682
2768+387306381+386951754+386554433+386388199+386578268+386853755+386809759
2758+386436041+386112828+386033630+385947085+385581119+385056295+384693453
2748+384561322+384397343+383928836+383113369+382087583+381081583+380383495
2738+380150008+380198083+380214078+380219054+380517970+381109439+381544247
2728+381531230+381301822+381190777+381216318+381252186+381260314+381188087
2718+380918530+380396367+379652866+378822212+378221516+378140062+378420900
2708+378551903+378275231+377816472+377476222+377259772+376959786+376499639
2698+376095463+375987773+376133702+376334908+376488560+376475920+376101074
2688+375447444+374942116+374783575+374676406+374368031+374072471+374091359
2678+374310007+374367221+374165842+373928537+373813703+373731844+373529105
2668+373196028+372927078+372981024+373378230+373800831+373896256+373544262
2658+372812273+371909161+371163085+370779736+370709967+370888351+371323940
2648+371856488+372142474+371982371+371463824+370818785+370285167+369999007
2638+369932161+369998602+370150693+370313138+370371018+370299399+370204350
2628+370228676+370432051+370669038+370614658+370106379+369466026+369233725
2618+369544877+370013036+370247506+370213895+370030102+369725314+369359985
2608+369126932+369126093+369197684+369146833+369004259+368903772+368844388
2598+368776789+368783789+368934636+369094160+369123924+369147412+369355068
2588+369624191+369601340+369205581+368809186+368737971+368823186+368757380
2578+368667537+368876987+369279370+369436580+369179837+368721570+368293126
2568+367977693+367825487+367926235+368282568+368663661+368801318+368773116
2558+368881355+369124792+369179201+368907793+368516112+368215027+368020156
2548+367856900+367722107+367752016+368080118+368613649+369077904+369288886
2538+369256519+369028962+368565054+367849785+367114527+366766756+366980515
2528+367502707+367946251+368127412+368112833+368087205+368139213+368135019
2518+367936445+367676376+367607765+367795578+368106759+368347650+368342328
2508+368063052+367730438+367624657+367778917+367949057+367891322+367625236
2498+367411939+367499352+367901706+368395898+368691256+368643443+368390402
2488+368250403+368407497+368734124+368965412+368964197+368774070+368543505
2478+368442063+368505931+368576046+368536418+368504022+368604624+368731897
2468+368721397+368586228+368443828+368391154+368498786+368728946+368868136
2458+368747314+368486088+368309353+368212886+368067651+367947871+368027416
2448+368230271+368310770+368183961+367934073+367700674+367705186+368066552
2438+368524964+368697707+368556955+368329745+368135395+368041850+368201258
2428+368638901+369122854+369411877+369487518+369493881+369575162+369800347
2418+370151618+370530803+370819595+370978656+371062222+371109862+371086172
2408+370981202+370889016+370894425+370961128+371026615+371137891+371387489
2398+371774195+372253027+372902550+373913091+375414383+377491523+380470214
2388+385065175+392075271+401903955+414421294+429268582+446173255+464865553
2378+484838556+505480664+526385994+547215887+567280064+585537553+601161260
2368+614212737+625155082+633470991+637758734+637502165+633471338+626204210
2358+615623723+601769795+584564846+564063721+542557434+524629348+514093812
2348+512630644+520151044+533854328+547464531+555570151+558591594+560213794
2338+562891775+566878693+571294519+575160933+577789683+578917431+578613713
2328+576866439+573649633+569504319+565363980+561535400+557305740+551726241
2318+544689996+537164737+530313384+524467886+518922173+512572735+504846328
2308+496182965+487593479+479709428+472415312+465434459+458909126+453097963
2298+447793286+442503852+437138865+432100794+427727113+423959045+420496344
2288+417058172+413597148+410414273+407951555+406364557+405373280+404556308
2278+403708357+402891414+402218751+401684960+401216830+400792290+400418891
2268+400013037+399423072+398652266+397965401+397619394+397546935+397465886
2258+397186552+396659935+395931359+395202205+394711715+394460815+394239969
2248+393919041+393544397+393218696+393025590+393033891+393295841+393775165
2238+394261981+394508137+394531856+394570067+394634253+394406030+393737302
2228+392980900+392606112+392672120+392848855+392798264+392381158+391638814
2218+390773392+390083837+389778065+389831577+390036254+390177035+390166795
2208+390005651+389680760+389252749+388973936+389055304+389320001+389367959
2198+389122324+388958721+389233629+389875052+390526657+390966846+391241291
2188+391464307+391701843+392040965+392544009+393073895+393365840+393376340
2178+393406510+393755525+394374444+394982140+395388890+395568344+395556947
2168+395447117+395395948+395526460+395860058+396352485+396906554+397344457
2158+397454518+397159015+396653108+396292783+396311816+396693575+397240788
2148+397666918+397772236+397663679+397646873+397852504+398166317+398508419
2138+398940219+399508171+400145776+400693162+400950310+400822083+400468411
2128+400200648+400200995+400438387+400857546+401484420+402286929+403118653
2118+403889489+404605482+405211326+405631643+405939642+406256029+406590147
2108+406957501+407454673+408074633+408662313+409118121+409463000+409735420
2098+409962948+410153220+410245550+410195596+410131034+410292410+410784779
2088+411455938+412057502+412494016+412850870+413202084+413537735+413892883
2078+414339608+414786218+414988002+414869697+414684805+414769239+415259729
2068+416071147+416948371+417504521+417491360+417144428+417005007+417327468
2058+417874479+418320597+418629666+418965751+419432406+420029053+420764513
2048+421654435+422609381+423469770+424153164+424631477+424852294+424913645
2038+425209148+426110814+427545230+429077703+430374607+431433251+432396818
2028+433322665+434200930+435071328+436007993+437079365+438397558+440028610
2018+441762723+443209345+444222258+445017970+445890421+447040846+448554113
2008+450306189+452002756+453428234+454577213+455600713+456760452+458288442
1998+460112600+461875812+463372939+464777793+466345700+468112932+469944351
1988+471659662+473073280+474155210+475199826+476586023+478366937+480284524
1978+482085311+483607255+484712817+485432917+486148014+487437860+489667495
1968+492667070+495820471+498584534+500873872+502841732+504550246+506050959
1958+507558152+509365938+511679689+514457058+517295634+519695525+521594484
1948+523422229+525607436+528285995+531305644+534241236+536710028+538838540
1938+541000664+543158622+545005342+546657856+548636303+551181458+554022463
1928+556831650+559658077+562778503+566180258+569427435+572157656+574379308
1918+576145499+577466238+578648366+580136351+581983418+583793229+585098985
1908+585750850+586124336+586921928+588516822+590501459+592056783+592800227
1898+593173713+593933586+595353076+597109664+598833682+600268677+601016806
1888+600906831+600478213+600397684+600817451+601685911+603044773+604711287
1878+606252611+607480499+608485082+609248600+609802349+610632685+612109043
1868+613375286+613038766+611225369+609360715+608270802+607678928+607173484
1858+606715593+606233636+605544804+604691155+603872968+603198252+602831708
1848+603176673+604436900+605804093+605597044+603224400+600036578+597402159
1838+595629720+594461997+593661628+593314638+593660876+594380254+594432840
1828+593356811+591782801+590064568+587967643+585731065+584001146+582833018
1818+581727717+580459276+579372429+578939298+579156124+579281545+578486614
1808+576969587+575828302+575840914+576899761+578390871+579667006+580305855
1798+580348433+580372441+581153314+582948952+584736664+584839234+583188744
1788+581410809+580812051+581631858+583502297+585819577+587736412+588606723
1778+588836391+589728280+592293857+596283610+599939562+601514324+601383003
1768+600885021+600577717+600806980+602196677+604719502+607293872+609199773
1758+610694643+611832573+612558024+613689475+616087283+619051395+620719992
1748+620697257+620618753+621816789+624136152+626628431+628354879+628779737
1738+628636671+629929757+634015311+639252447+641943561+641569380+640052353
1728+638439814+637376628+637557008+638990382+641181547+644215428+648620493
1718+653685870+656635750+655804374+653109384+651124516+650997649+652823716
1708+656185033+659975779+662626859+663936779+665468732+668017937+670033408
1698+670412621+670499687+671004553+671297395+671581328+672572200+673982954
1688+675321337+677547502+681842882+686097303+686577235+684315781+682536168
1678+682806622+685090175+688137419+690532509+692427129+694696335+696690112
1668+696824500+695681711+695483456+697153904+699456374+700617386+700769129
1658+701534498+704372321+710258951+718459621+723818938+723744831+722928611
1648+724180912+725807509+724811604+721871211+719731996+719750971+722287044
1638+727120496+732347624+734380219+732718449+731228033+732290235+735216282
1628+738151642+740484600+743627761+748776848+754863295+760238232+765567698
1618+772474704+780041674+785025365+787012547+788340922+790014436+791292249
1608+791459728+790991019+791140622+792559071+794292229+794815896+794281932
1598+794511600+796445386+798720088+799591844+799564192+800755691+804178678
1588+808593346+811908267+813410657+814239836+815560922+817073089+818038275
1578+818875032+820483580+822636679+824811067+827528907+830857365+833472115
1568+834635672+835567941+837241224+839517372+842674070+848021818+856122232
1558+863084717+864857329+864190712+863822780+863722003+863080378+861901837
1548+861066411+861244592+862504702+865067907+869258229+873043884+871782095
1538+866064101+861526557+860198183+860406793+859948787+858673519+858012976
1528+858893006+861235972+864240175+866773933+867846375+867709268+868361249
1518+870703810+872877504+873181106+872930380+874630563+878971009+885242174
1508+892507104+898031644+898453783+895919851+894554972+895619430+898659906
1498+903085971+907930646+911356988+912555776+913006783+915065700+919494774
1488+923788534+924716695+922524315+920328060+920581679+923126197+926157070
1478+928921133+932638292+938014849+942840433+944458989+943998263+943596199
1468+943387704+943710165+945831678+948909351+949612472+946774418+942160742
1458+937692908+934127898+931049240+927921352+925301337+924660117+926999785
1448+930993472+933398281+932044798+927741320+923474518+922286490+925174933
1438+930329458+933923857+933494950+931261149+930785440+932926332+935690164
1428+936556020+934980795+932284302+930465408+931216198+934504160+937862932
1418+938388740+936215451+933543024+931830460+931507362+932169178+932958208
1408+933434495+933584329+933563908+934237120+936281922+938395567+938378385
1398+936106691+933845411+933380058+934406566+935674949+936748201+938326550
1388+940602872+941582579+939348546+935860535+934811696+937404868+942420088
1378+948420279+954474214+959687284+963096617+963856780+962005258+958984857
1368+956897072+957588276+962033084+969473187+976684373+979960129+979019934
1358+976731811+975980211+978224830+982921406+987597619+989662438+988692855
1348+986581756+985786651+987595074+991743917+997404407+1003990166+1010426554
1338+1014216836+1013325121+1010101431+1010587379+1017916524+1028051095
1330+1033701866+1032830051+1030467879+1031513941+1035533661+1038539483
1321+1038183584+1036540962+1037140067+1040900383+1046021817+1050338775
1312+1053515143+1056972666+1061505524+1066302067+1069897392+1070960115
1304+1069619823+1068331018+1069462931+1072240126+1073741823+1072672389
1295+1070107507+1067375435+1065884962+1066651256+1067975003+1066984941
1287+1063729433+1059680672+1054162611+1046095982+1037188199+1030584622
1278+1027883559+1028916083+1032225855+1035836568+1037845618+1036584119
1270+1032331491+1028387325+1027532750+1028373441+1027063231+1021565534
1261+1013949102+1007465392+1004051141+1004689469+1007897654+1009744722
1253+1007976216+1003788729+998804286+993140787+986517078+979698989+973798649
1243+968390621+961888746+954257909+947501547+942600467+937580214+929905179
1233+919874855+909996679+901952381+895465315+889497232+883826328+879293355
1223+876582456+875191082+873804277+871374246+867801946+864013167+861509318
1213+861213988+862436091+863224600+862253224+860568313+860710338+863744507
1203+868174391+872281754+875943029+879410445+882283558+884677433+887731850
1193+891821569+895503034+896925128+896379651+896289634+898028751+900756137
1183+904008058+908972138+915232427+919394807+920075077+920725149+924573977
1173+930501044+935571107+939368389+943991610+950652518+958252058+965144427
1163+970754298+974952430+977376271+977615659+976456325+976031583+977776716
1153+982034088+988340658+995287870+1000760807+1003159888+1002799476+1001547233
1143+1001208458+1001985513+1002543659+1002365478+1002316883+1002466717
1134+1002566105+1003749274+1006680238+1009552772+1011455260+1014738652
1125+1019836830+1023127743+1022672918+1020791025+1020036763+1020240052
1117+1020332035+1020802711+1022484787+1025297156+1028420069+1029717320
1108+1026509597+1019779558+1013925267+1011544004+1013393848+1020439175
1100+1031439892+1041263687+1045864463+1047867033+1051101714+1052936980
1091+1048324635+1038782458+1030976968+1027910749+1027363478+1027117611
1083+1027250784+1029772394+1036161575+1044386254+1050396511+1051420821
1074+1046889930+1039597115+1034612904+1033982328+1033390281+1027648452
1065+1019034784+1012940874+1010089514+1007608747+1004404726+1002647675
1057+1004190446+1008218959+1011721259+1012024167+1009755945+1007796068
1048+1006633726+1003991439+1000074578+999053045+1004057157+1012800065
1040+1019297080+1020195738+1016403373+1009620805+1001724142+995267622+991884958
1030+990838086+989952503+987076729+981386851+974319424+968705967+966996412
1020+970452547+978798596+989618934+998070735+998839459+991593620+983068695
1010+980408011+983802246+987482959+987325720+984494607+980464937+974333887
1000+966500860+959844291+955548912+951004946+943810074+935261430+928794266
990+925793187+924657167+923452882+920985594+916557389+910702288+905399491
980+902476048+901770266+901443118+900211007+897951463+894513261+889765429
970+884383954+879646246+876607564+875181941+874023301+872195846+870197903
960+868432869+866429662+864358596+863198105+862924411+862476992+862056299
950+863583913+868247514+874935727+881379751+886063196+888965407+891359803
940+894243386+896878789+898775087+901522548+906702469+913537335+920501786
930+927907121+936437426+944316849+948676096+949614844+950138975+951779861
920+953140690+953514407+954785973+957500805+958021811+953012608+944623228
910+937778354+934903043+935618429+938878218+943264655+946786104+948115057
900+948031694+948509543+949433424+948049975+943175159+937808379+935744139
890+937640553+942058403+948289536+955550647+961093237+962243836+960108902
880+957943596+956631246+954907518+953645787+956529660+965293914+976179103
870+982772151+982736977+979922873+979049323+980744936+982071228+981179513
860+979725138+979653981+980713002+982434301+985350686+988465963+989532736
850+989321811+990745408+993137316+992875598+989884238+988056031+990036618
840+995237655+1002803410+1011179658+1015406947+1012645024+1007204137+1004552131
830+1005208971+1006655709+1007501144+1007711027+1007144897+1006822436
821+1009553813+1016093176+1021227800+1018916421+1011176534+1004635205
813+1001433383+999079309+996567997+996375932+1000805236+1008669040+1015884218
803+1019885309+1022216705+1024469076+1025192445+1023090602+1020284481
794+1020146217+1023346304+1027206470+1027880203+1022287978+1010199083+996786442
784+988387401+986897506+990053626+994142420+995615422+992809648+987626545
774+983979617+984547020+989032209+995549588+1001223383+1001996736+996275734
764+989344141+988939416+996562790+1005710539+1008709073+1004526560+998432072
754+995481902+997218936+1001697877+1004653948+1004644808+1003876546+1004186049
744+1005515466+1005909200+1003391524+997959429+992636095+991576496+995925619
734+1001287135+1003144384+1004586031+1009254261+1014067233+1014931296
726+1011833143+1006821047+1001819596+998832401+998630270+998288833+993534868
716+985601065+980832522+983586577+993823198+1007836101+1019443790+1024257920
706+1023231412+1020273490+1019013957+1019011065+1016328514+1010364074
697+1005873795+1006058339+1008819915+1010361413+1007658961+999486696+989054771
687+981851047+980081385+980786126+978946926+971835186+962304926+955311723
677+952022719+951783852+956306355+967116395+980236772+988539781+990928796
667+992966540+992898160+984176311+969945714+961219815+964215167+971854855
657+973010487+970460530+971606212+970254234+958314132+942921887+934592441
647+934487904+939584521+948454700+957912010+963739226+966946371+972362903
637+980270905+981233661+967536220+946468154+931307603+928648655+933749263
627+933292587+919695285+901763671+891552852+890166741+892851722+895889248
617+894715740+884988497+871019330+863783383+867835499+879568147+894447948
607+910682272+921179569+912020597+884519557+859362930+852121545
##END=
