##TITLE=<SNM>
##JCAMP-DX=4.24
##DATA TYPE=INFRARED SPECTRUM
##DATE=29/4/2025
##SAMPLING PROCEDURE=Instrument type and / or accessory
##ORIGIN=Admin
##XUNITS=1/CM
##YUNITS=ABSORBANCE
##RESOLUTION=4
##FIRSTX=4497.3318
##LASTX=599.83466
##DELTAX=-1.4281778
##MAXY=2.1136498
##MINY=0.38493183
##XFACTOR=1
##YFACTOR=1.9684898e-09
##NPOINTS=2730
##FIRSTY=0.39327613
##XYDATA=(X++(Y..Y))
4497+199785705+198933158+198699356+198874447+199052762+199279767+199637487
4487+199833349+199759437+199849988+200416197+201205338+201860387+202192976
4477+201896798+200744668+199272242+198645641+199543560+201401458+202926054
4467+203320125+202815626+202155126+202013707+202668150+203640012+203994614
4457+203453930+202701851+202329914+202131297+201611945+200744395+200077022
4447+200112555+200555982+200482297+199454024+198127000+197547347+198129074
4437+199348198+200291279+200520343+200278456+200009045+200080868+200766075
4427+201901173+202695613+202408247+201086264+199346654+197744829+196654756
4417+196354067+196811543+197557597+198080173+198356382+198663869+199003270
4407+199089309+198819036+198407387+198111104+198087698+198290872+198332083
4397+197797409+196799825+195962525+195754959+196089032+196658814+197400992
4387+198320455+198981212+198702203+197496160+196292812+195849825+195893048
4377+195764013+195546774+195941147+197049812+197918073+197734958+197091900
4367+197252184+198351613+199239873+199092140+198228966+197292698+196593895
4357+196304530+196579527+197360478+198386313+199477839+200700081+202016946
4347+202777216+202152734+200357743+198671893+197939071+197812625+197681500
4337+197559141+197808885+198564462+199524333+200094978+199890517+199167067
4327+198569549+198423435+198484691+198412565+198339652+198731407+199525696
4317+199795651+198834887+197284371+196508129+197104451+198545673+199950546
4307+200739505+200799655+200474061+200335987+200677069+201227245+201536746
4297+201496822+201352163+201408770+201785536+202260892+202446717+202276138
4287+202047953+201914602+201770518+201655895+201776543+202131448+202407111
4277+202213323+201477232+200713873+200633679+201361459+202346977+202990761
4267+203098344+202886646+202701987+202591165+202226374+201424652+200505778
4257+200037523+200356395+201277812+202239984+202850144+203168017+203371646
4247+203577061+203993130+204704483+205422317+205930223+206442247+207055601
4237+207369538+207060824+206314786+205508386+204968368+204906538+205085882
4227+204938740+204444323+204215895+204450818+204714067+204812081+204880331
4217+204811173+204628391+204910580+205882245+206772595+206832094+206271608
4207+205682235+205183306+204509545+203630550+203015333+203188637+204066285
4197+204964568+205343060+205298020+205286604+205602010+206159483+206657337
4187+206860814+206758167+206524774+206302190+206018578+205618466+205402786
4177+205774557+206731143+207945330+209153705+210227260+211129419+211896335
4167+212466359+212711849+212708125+212562057+212090365+211243194+210606403
4157+210778496+211440888+211684198+211151038+210363669+209938849+209921302
4147+210019089+210109549+210220629+210256843+210066492+209700066+209360528
4137+209150253+209067303+209169359+209506838+209956699+210345077+210620635
4127+210828336+211117580+211665243+212275932+212394870+211966038+211694387
4117+211978574+212369708+212477396+212560407+212873738+213245054+213553222
4107+214006459+214769908+215712036+216631924+217430451+217959780+218041686
4097+217714820+217176241+216531563+215873652+215431437+215310834+215332590
4087+215423458+215791580+216495863+217292226+217997599+218612528+219074818
4077+219242460+219148064+218990081+218822606+218497814+218037477+217801313
4067+218045289+218482296+218552272+218067408+217372103+216883061+216675571
4057+216644641+216892947+217624088+218680581+219553323+219888183+219712790
4047+219277675+218989612+219240386+219881113+220167283+219650081+218796596
4037+218337985+218419482+218803545+219472795+220533845+221761250+222639836
4027+222858257+222638065+222483655+222625893+222900708+223100128+223105594
4017+222787040+222228627+221885880+222011448+222210747+222096806+221994083
4007+222418555+223289511+224181889+224921281+225465992+225601311+225187922
3997+224446985+223684551+222994135+222480264+222445170+223019948+223888770
3987+224646769+225140141+225287253+224973105+224330682+223818067+223880685
3977+224647389+225780126+226461972+225967131+224537854+223251752+222855032
3967+223235916+224049523+225142836+226265428+227061049+227437634+227500146
3957+227308825+227010997+226857042+226907048+227124863+227576117+228055908
3947+228105264+227875186+228096468+228811576+229094809+228477443+227629696
3937+227359528+227987462+229577462+231787418+233412406+233168369+231434057
3927+230140174+230550187+231811581+232218672+231632493+231479840+232619086
3917+234193659+234577662+233178165+231079092+229878424+230113513+231128417
3907+232577725+235254785+239707594+244537125+247425141+247543488+245341981
3897+241513471+237601739+235930318+237605736+240493450+240858014+238730766
3887+237729503+239545993+242036866+243054495+243255520+242941205+240931017
3878+238101273+237261051+239457426+243387296+247660442+251038561+251416115
3868+248758327+246272890+245996363+246379821+245111994+242484546+240293803
3858+240094292+243592681+252087953+261537450+262743327+255836268+247722697
3848+242234787+240410833+242086675+246137980+250975731+255700465+259802563
3838+261834037+260703526+257731181+254764226+252199063+249837393+248050456
3828+247249945+247268960+248358442+251790398+257449644+261481222+261143697
3818+259220745+258195576+256581564+252904316+248763762+246509114+247319179
3808+250525855+253749731+255930800+258676988+262213831+263397240+261016554
3798+257876492+255664705+253716181+251670113+250314233+250197703+251108400
3788+252611787+254192794+255191256+255682660+256991971+259970826+263062380
3778+263798018+262335070+261218639+262642315+267106736+273006158+277528504
3768+279603913+280390965+280576850+280407921+281466943+285332408+290908325
3758+295432548+298603162+302851086+310165796+319943582+328334755+332187896
3748+333874972+337383474+342847236+345739280+344160301+342248098+344226250
3738+351762302+363562993+375182068+381470640+381010000+377165276+374424659
3728+375050897+378623228+383314836+387686814+391223476+393667657+395233919
3718+396971259+400161706+406013831+415353777+426760927+435644775+438862413
3708+438443225+438381819+441327518+447547537+454612715+459143328+460260243
3698+459734926+459639879+461613337+467310644+477771745+490569324+497908984
3688+494248117+484774759+477230955+474515138+475732187+478301664+480816488
3678+484811821+491181906+495874664+495954541+495329756+496967295+498070555
3668+495576321+491461566+489238575+490088184+492539088+494476786+495992663
3658+499333023+505404129+512135810+518214576+525233275+534339434+542312782
3648+543876166+539337591+533195359+528234446+524964455+523111357+522859554
3638+525254350+530518540+536477340+540689625+544027745+549303018+555855415
3628+558697376+556226095+552049479+549489600+549907637+553230071+558066717
3618+562670636+566524414+569727850+571580343+571468067+570405563+569975839
3608+570535765+571424041+572123494+572542924+572817921+573482857+575266736
3598+578408100+582345630+585779009+587618784+588883129+592253345+598640477
3588+604138364+602894426+595495600+588446319+586230837+588380734+591647212
3578+593581822+594098752+593817820+592612579+590734955+590098362+592806852
3568+598038583+601847365+602101228+600861711+600709951+602298104+604795123
3558+607406175+610400018+613871488+615594445+612882927+607237155+603418986
3548+603926711+607027501+609710980+611092446+612272615+614103367+616149102
3538+617684751+619040298+621210361+624547633+628410373+631618170+633039242
3528+632597284+631837514+632197778+632564945+630174267+624603165+619428843
3518+618425385+621635180+626622557+631192745+633367167+631570752+627016371
3508+623461632+622841571+623727546+624646767+625695281+626711457+626396007
3498+623941682+620526410+618351988+618773719+621690349+626245579+631117531
3488+634214384+633926730+631466955+629870929+630219929+630807591+630128001
3478+628706020+628066883+629385126+632029606+633175196+630850527+626895859
3468+624707568+624946472+625393033+624249320+621938338+620093355+620011176
3458+622210125+626152016+629691978+630457440+629008754+628424967+630054301
3448+632024882+632231388+630645596+628454944+626982094+626862370+626742342
3438+624324292+619858447+616690740+617465105+621342682+625299469+627312685
3428+627835852+628432174+629573585+630155313+629547666+628835011+628807941
3418+628786200+628526767+628487403+628066096+626738588+625861273+626499320
3408+627138215+626213846+624754865+624189488+623841699+622775805+622057638
3398+623094889+625385039+627642427+629855002+632407311+633973239+632563613
3388+629005483+626791698+628171408+631922235+635065840+635983426+635116831
3378+633517292+632008410+631359402+631654929+632114994+632500026+633317691
3368+634466430+635207184+635389769+635763598+637064158+639369206+642269425
3358+645143120+647082453+647111279+645198894+642699634+641319440+641930720
3348+644085643+645981010+645697050+643737975+643119549+645705347+649616837
3338+651109610+648909087+645738412+644824459+646327225+647988230+647890489
3328+645974833+643580764+641662324+640037048+638310154+636789706+636681608
3318+638787054+642137044+644706673+645783286+646493701+647902358+649863008
3308+651552840+652336591+651730095+649550525+646553654+644671670+645760213
3298+649173183+651529767+650493304+647699486+646241898+647459007+650901833
3288+654711221+656208718+654190718+650036509+645952911+643542733+643490592
3278+645208281+647254743+648660614+649844174+651920007+655023159+657563054
3268+657214114+653883928+650244226+648640993+649218784+650643974+651675047
3258+652307644+653623889+656183101+658751035+659169011+656804616+654022486
3248+653907122+656666603+659249978+658608480+655131317+651992012+651354449
3238+652356939+653172181+653743977+654664409+654914941+653241944+650539086
3228+648722566+648589882+650072844+652775763+655401651+656199271+654819197
3218+652687892+651175619+650310295+649344565+647980782+646499757+645038111
3208+643709149+643023927+643142016+643267312+642736454+642086598+642128686
3198+642502637+642037303+640409484+638613796+637703477+637517682+636900165
3188+635125672+632911039+631816379+632554711+634045425+634482902+633260220
3178+631088462+628506116+625733736+623610365+622964930+623451882+624392542
3168+625963920+627997120+628815147+627297363+624609221+621993870+618971988
3158+615481624+613471315+614272144+616138141+616261015+614270025+612007186
3148+610528947+609236502+607746515+606820148+607197671+608602573+610169834
3138+611336498+611881285+611326082+609154324+606021378+603894554+604197953
3128+605988918+606650946+604886749+602208659+600817867+601073849+601768457
3118+602052054+601976840+601585207+600513377+598697765+596903167+595969715
3108+595617263+594781915+593313789+592408254+592934813+594161067+594781915
3098+594555183+594073317+593553965+592901142+592380942+592044175+590969984
3088+588401929+585256023+583440230+583876555+585520120+586439826+586163799
3078+586057882+587003083+588091990+587923031+586208794+583888667+582175157
3068+581452267+580933521+579841223+578691212+578495002+579152246+579669236
3058+579505909+578857325+578029365+577284856+576964924+576871543+576155314
3048+574751502+573848934+574041814+574452463+574402199+574248198+573896473
3038+572537655+570606861+569949193+571255021+572830457+572711459+571036283
3028+569356807+568494026+567971768+567074953+565889758+565252014+565676349
3018+566464581+566242270+564448036+561982386+560198204+559666256+559852535
3008+559697020+558603389+556962368+555728060+555084320+553805864+551036997
2998+548149192+547195634+548157791+549169365+549102266+548526473+548267524
2988+548378831+548392457+547977871+547312149+546743563+546312748+545957026
2978+545756213+545412481+544280214+542599406+541569726+541552769+541463930
2968+540470766+539023896+537780322+536794789+536122708+536022120+536207006
2958+535928738+535139052+534650706+534813125+534825479+533783990+531976795
2948+530548820+530044487+529963943+529687796+529272605+529133259+529423699
2938+529970302+530351822+530032980+528811813+527129673+525852004+525561261
2928+525932244+526040039+525319148+523874034+522023843+520183644+519005958
2918+518944491+519592894+519743685+518333998+515561195+512989749+512207148
2908+513321187+514937015+515670564+515405861+514789494+514054129+512980665
2898+511595928+510247709+509220209+508711394+508780249+508931162+508286271
2888+506592746+504691292+503754387+504179570+505224239+505766301+505466444
2878+504934920+504723873+504574565+503816430+502170382+500048828+498279664
2868+497541544+497799675+498236001+498041547+497260581+496545655+496279530
2858+496396226+496778382+497227183+497250044+496515800+495438338+494693163
2848+494167695+493127477+491453118+489911898+489151250+489135323+489489349
2838+489747451+489361449+488042540+486054578+483965059+482329276+481507372
2828+481461893+481804353+482092824+481941397+481045854+479496489+477898373
2818+476802048+476137174+475484865+474804336+474543570+474894750+475336557
2808+475288866+474872949+474525311+474171739+473406731+472336415+471566926
2798+471280331+470848729+469642187+467932764+466613886+466179195+466276664
2788+466143405+465300275+463918476+462522082+461342337+460266057+459347441
2778+458842229+458704428+458570502+458313188+458136599+458093996+457994679
2768+457798590+457619790+457335013+456638739+455503444+454282216+453377438
2758+452961429+452901476+452820903+452329408+451355139+450243280+449382680
2748+448763466+448128054+447491975+447093105+446825707+446247341+445217630
2738+444041428+443015805+442274081+441899979+441741225+441292515+440193918
2728+438761250+437736656+437554374+438019435+438654151+439112581+439163360
2718+438576909+437321586+435711723+434208473+433164167+432615899+432201525
2708+431599208+431097176+431192707+431644112+431587853+430629602+429211407
2698+427908031+426899728+426131691+425620696+425492796+425788959+426305374
2688+426654465+426473667+425650885+424474683+423490542+423029448+422873479
2678+422506826+421752657+421006876+420630534+420369496+419844603+419282890
2668+419039413+418775014+417969855+416898722+416271666+416209594+416227670
2658+415989675+415574938+415145788+414727055+414274984+413754572+413162307
2648+412568983+412034794+411413946+410522733+409601998+409234164+409647265
2638+410370458+410703016+410359891+409612565+408946419+408626457+408550698
2628+408460586+408213083+407843160+407440444+407027130+406610335+406320137
2618+406302515+406470747+406589503+406588897+406541268+406367464+405843722
2608+404901639+403768343+402807790+402226456+401919454+401678854+401499115
2598+401483461+401534936+401432804+401186875+401026545+401023033+400954238
2588+400589372+399966676+399352550+399006305+399005942+399265951+399686531
2578+400230107+400835815+401347840+401604276+401527851+401074659+400197980
2568+399027380+398040514+397777447+398262190+398937056+399311279+399375350
2558+399253839+398944535+398602590+398555748+398813728+398973240+398726887
2548+398159573+397538089+397027578+396601033+396187053+395925742+396108993
2538+396769144+397519648+397912190+397876097+397768636+397969418+398437507
2528+398791019+398798710+398584665+398377463+398266186+398160935+397906619
2518+397536726+397321773+397397653+397547172+397532487+397398531+397297307
2508+397243834+397142670+396924356+396661167+396588618+396900375+397426842
2498+397666685+397335550+396794911+396685694+397165713+397751134+397942591
2488+397768605+397614847+397749317+398129445+398509723+398646374+398517324
2478+398382338+398499368+398791261+398958676+398873924+398635383+398325655
2468+397997941+397815326+397937807+398335526+398851971+399332232+399642778
2458+399743002+399738824+399677205+399383223+398756288+398099498+397825743
2448+397954127+398216952+398495371+398795228+398990197+398978115+398917163
2438+399003459+399207512+399406265+399541372+399554695+399403873+399177081
2428+399000734+398881070+398801314+398863780+399130693+399409324+399406144
2418+399059900+398597988+398351332+398554295+399174719+399920530+400547919
2408+401069512+401537601+401831220+401837427+401704500+401762909+402185640
2398+402752167+403048875+402951345+402733939+402675227+402797737+402976628
2388+403045453+402845730+402340670+401547502+400306592+398376948+395801536
2378+392903860+389925550+386900580+383822833+380741240+377750274+374997939
2368+372714420+371306459+371255408+372458407+373830578+374346296+374451669
2358+375632837+378664529+383083259+388166076+393318657+397481042+399248692
2348+397830315+393802158+389195787+386211755+385364205+385709056+386371206
2338+387013462+387530482+387844540+387965142+388158355+388814358+389985473
2328+391278070+392299393+392993790+393568523+394265160+395168758+396169552
2318+397046594+397590532+397813479+398059227+398704420+399763411+400976584
2308+402152817+403193398+403993228+404593365+405248035+406128257+407113487
2298+408006971+408788300+409544043+410296395+411000390+411609793+412107313
2288+412523927+412873321+413035497+412884010+412578400+412456344+412554086
2278+412534374+412186252+411686642+411293646+411067520+410913852+410727331
2268+410529879+410487064+410661564+410884965+411076119+411408465+411917674
2258+412287809+412292381+412161635+412283085+412721440+413174238+413339109
2248+413257839+413225864+413374626+413521239+413480301+413299322+413069895
2238+412701213+412060804+411251739+410551226+410068906+409651171+409197132
2228+408891916+408960317+409310135+409641391+409873574+410207010+410692086
2218+410999542+410807753+410279711+409968711+410261937+410988551+411630958
2208+411939475+412172626+412652342+413379774+414227687+415173857+416171109
2198+417051603+417696584+418169699+418627341+419137307+419629649+420072788
2188+420583298+421215501+421787448+422097297+422200792+422363453+422800990
2178+423467742+424086804+424413034+424454547+424447916+424627200+424959001
2168+425177528+425224824+425446893+426085545+426862333+427379171+427647023
2158+427940369+428404219+429046384+429926303+431109863+432431982+433510866
2148+434180373+434746325+435574951+436635789+437712432+438804398+440051878
2138+441532781+443325109+445445180+447597741+449395185+450963324+452905473
2128+455554979+458667457+461868532+464977073+467872660+470435900+472674878
2118+474713558+476649955+478447884+479954767+481146775+482372848+484198664
2108+487086257+491349411+497167594+504422411+512668606+521297259+529565225
2098+536613113+541763938+544772012+545733322+544938306+542663175+538792380
2088+532890869+524977172+515917825+506767034+498045998+489881467+482489787
2078+476221108+471263254+467488838+464575781+462211295+460194506+458446417
2068+456998700+455904615+455071569+454251846+453293201+452336978+451716614
2058+451694449+452270969+453157609+453934245+454328725+454440971+454709882
2048+455550679+456968178+458664883+460562371+462978392+466260677+470575488
2038+476121973+483195660+491881420+501899382+512822849+524201596+535358578
2028+545332362+553325088+559159742+563128158+565558562+566781546+567194981
2018+566837139+565080632+561332167+556020619+550419176+545525726+541307022
2008+536888958+531479426+525247991+519202290+514161076+510102065+506555866
1998+503360120+500884569+499590761+499395550+499527720+499233737+498554510
1988+498069465+498103862+498527168+499078797+499625552+500237317+501156084
1978+502616398+504582104+506614032+508132937+509050402+510037025+511825386
1968+514307689+516634538+518224750+519298517+520354480+521643595+523281830
1958+525382977+527827552+530239365+532413606+534542306+536916815+539610953
1948+542551565+545804963+549524966+553325997+556076878+557136232+557396271
1938+558183596+559849809+561999221+564327826+566717233+568954818+570820815
1928+572432647+574339218+577000351+580148922+583146277+585931556+588711021
1918+590858253+591418906+590746946+590326305+591126286+592829440+594310950
1908+594762052+594477062+594375081+594826244+595388835+595741408+596252645
1898+597267973+598407325+599117922+599665676+600904345+602919619+604475010
1888+604371212+602969277+601510598+600679853+600459904+600583201+600650058
1878+600295911+599583195+599037500+599348469+601089230+604133943+606831048
1868+606614611+602801832+597503728+593105649+590569327+589600508+589213296
1858+588389212+586862102+585144535+583622511+582221969+581078802+580781761
1848+581745856+583619726+584948324+583687006+579655065+575263284+572567026
1838+571621947+571302802+570849035+570731551+571846862+573733630+574260128
1828+572304444+569220731+566269582+563222508+559990366+557411169+556017470
1818+555451367+555240319+555512652+556710746+558692229+560327800+560486585
1808+559395376+558279642+558090214+559147752+561224009+563429680+564726969
1798+565125870+565865474+568175548+571895490+574804006+574549660+572171638
1788+570804464+571988690+574999066+578414701+581556610+584126784+585682781
1778+586576749+588424699+592798858+599454871+605335307+606945141+604649177
1768+601157177+598289781+597283052+598951870+602334137+604963719+605984134
1758+606685525+607771889+609289612+612185835+617295661+623244166+627165466
1748+628272299+628348663+628785413+629597748+630584129+631892622+633414100
1738+635202824+638585091+644595184+650456787+651465393+648553244+645420479
1728+643465642+643016417+644390738+647240572+651121722+656839619+665443262
1718+675207331+680871452+679865813+675692770+672220513+671062872+672776745
1708+677539570+684380710+690860860+695881423+701437083+708969321+715738215
1698+718758583+718764275+716105019+711525445+708482065+709387539+713489608
1688+719257466+727379182+738622520+747846102+748423046+743798476+740602488
1678+741799069+747368960+754608153+760133292+763964481+767750493+770224197
1668+769166296+766934767+767722575+772015161+776268445+777327739+776645726
1658+777817538+783236335+793704521+806060384+810746481+806920258+804293462
1648+805918313+807718483+805199481+800435324+797570047+797470791+799577873
1638+803882510+809282958+811053696+806139958+798897132+794192806+793070047
1628+793847622+794386473+794325733+794281162+793870876+792700881+791663207
1618+790968053+788644656+783786511+779226074+777156297+776588619+775362849
1608+772799882+769977481+767910913+766621133+765542763+764334253+763476559
1598+763775114+765040368+765992472+765837079+765105468+764488132+763845422
1588+762744343+761267073+760007451+759458062+759653121+760772489+763725758
1578+768929632+773830228+774112251+770960894+769665179+771721209+773656970
1568+771934921+768016588+765075310+764751745+768879005+780078681+796005936
1558+801644258+790987977+777581904+769149218+766053818+766351222+767656990
1548+769160604+772367492+778719803+787339493+795948829+801743151+800584541
1538+793584736+788469459+789159768+793596363+796891607+797592514+798947759
1528+803105057+809023464+815199064+822170587+830628526+838437335+842936426
1518+844663743+844846449+843921899+843415264+845572185+851685955+861982275
1508+874796083+882998100+879820825+872013409+868111003+869855882+875603816
1498+882262978+886664327+888156313+889360585+893110504+899630380+905575373
1488+906844200+904067217+901667395+902924232+908053800+914618369+919582491
1478+921957969+923182346+925637882+930820682+936809519+939411849+938621558
1468+938620407+942252418+947748670+950488833+949684613+949163020+951883198
1458+957067754+960301289+958489431+954017349+950129417+948271898+948263420
1448+947872816+945022679+941080061+939144664+940159023+942721567+946057325
1438+951043006+957395256+962310083+964702214+966646393+969568837+972822598
1428+975586803+977888762+979537898+981049868+984905099+992143323+998583565
1418+998102547+991673388+985516621+982901755+983419169+985143458+986723315
1408+988758392+992689927+997817315+1000970610+1001139326+1000872626+1002225932
1398+1005271735+1009052781+1011698290+1011118501+1007472742+1003009260
1390+998961512+994973840+991295077+989689362+991127753+994103913+996222258
1380+996777582+997427620+1000586001+1006937403+1013588753+1016058641+1013793381
1370+1010826002+1010641782+1013405562+1017558318+1021603522+1024627584
1361+1026513383+1028215327+1030654754+1033298871+1034879454+1034892656
1352+1033773046+1032078370+1030367585+1029558035+1030477802+1032789693
1344+1035138524+1037069016+1039623990+1043145240+1046458288+1049376493
1335+1053232269+1057746439+1060656409+1061455179+1061697535+1061649088
1327+1060414416+1058917404+1059211961+1061365915+1063915075+1065883235
1318+1066959243+1067346698+1067859872+1068967734+1070234987+1071378942
1310+1072684831+1073741823+1072936634+1069356764+1064269828+1059333079
1301+1055396275+1053415035+1053896841+1054937724+1052993910+1046964317
1293+1040061467+1036649950+1038259238+1041956835+1042051427+1035310996
1284+1024463106+1014445538+1006689536+999444347+992329966+987523115+986197544
1274+986473026+985449401+981901324+976343484+969739007+963089959+957021911
1264+951377835+945870804+940451522+934641818+927996040+921490698+916483336
1254+912250885+906643205+899399167+892491957+886756679+880654840+873008328
1244+864620638+856512911+848756122+841357114+834593428+828465064+822821412
1234+817751615+813439044+809995795+807443910+805557686+804019494+802886500
1224+802360789+802179477+801899211+801550211+801505458+802127578+803828370
1214+806875929+810821090+814497914+817168434+819460280+822505053+826307356
1204+829566204+831471261+833031860+835849356+840286557+845592170+850917585
1194+855448046+858564884+860456558+862015098+864138712+867256337+871149962
1184+875395615+880268839+886387271+893076470+898720667+903598069+910059688
1174+919364722+930156897+939604184+945373859+947208426+946902664+946495528
1164+947099178+949345362+953310205+957660079+960182594+960599359+961379113
1154+964445990+968917467+972146399+972567585+971611847+971977622+973850099
1144+974566811+972554384+969953688+970580592+975501536+981444893+984529150
1134+985015255+986585362+991347158+997565512+1001605568+1001186623+996653982
1124+989850630+983090759+979027630+979610144+984311865+990031034+993405489
1114+993222783+991030435+990133621+992460409+997095939+1002192867+1005916382
1104+1006863340+1006211485+1006636911+1008141190+1007146512+1000932215
1095+993047345+989680520+992455141+997432525+1000010814+998725030+994776358
1085+990226094+986309093+983050184+980573210+979351074+978280819+974650080
1075+967836069+960677116+955256018+950976512+947340383+945096318+944418060
1065+944425933+944279562+943170610+940291889+936209321+932816880+931385453
1055+932462854+936850275+943712732+948685514+947545314+941301828+934609661
1045+930860287+931417307+936640257+944454092+950409016+952487998+953313414
1035+955290173+956893345+955733402+952478551+949744445+948679579+948181968
1025+946235973+942175327+938564451+939460599+946184014+954987743+960004854
1015+959273486+955666606+951935339+947246941+939524368+929802750+921646879
1005+916872669+913670806+909175409+903450487+898634855+894451941+888090910
995+879116769+870895555+865951841+862721152+858067455+851784242+846899815
985+845749683+847049213+847049153+843453961+837735277+833123062+830899647
975+829371992+826687120+823794531+822630228+822322469+819941480+814599774
965+808501750+804055405+801774036+800794013+800326076+800605857+802564267
955+806309341+810268370+812639548+813651424+815276337+818904351+824206088
945+829819885+834626069+838856341+843915358+850495067+857643301+864659335
935+872567703+882121270+891686768+899060462+904805792+911279947+918330742
925+922341609+920803477+915792301+910710089+906360093+902044616+897983970
915+895113303+893766658+893147808+891888186+889368397+886473083+884752911
905+884937555+886387937+888023508+889704680+891960433+894705924+897710062
895+901555664+906314068+910378711+912479918+913409132+914514511+916328367
885+918845612+921474528+922432205+920241431+916939949+917109030+923116579
875+931312237+934581502+931825654+929542408+932229097+936829806+937428550
865+933607777+930643487+932271912+936741269+939921088+940420153+939622473
855+938217570+934984217+929064660+923098290+921842483+926958911+935478074
845+943859345+951210209+957162407+959801316+958016710+953703049+950224615
835+949631442+951596997+954487346+957375756+960686382+964845315+969917292
825+976460241+984490090+991130054+992518788+989457906+986598261+985617270
815+984048859+980489700+977459461+978333566+983522240+990499093+995972332
805+997183144+993926900+990173650+990180735+993791793+998511198+1002167553
795+1002581896+998118535+989565398+979895740+971818776+966989882+965713727
785+965824610+963615306+956232104+943730173+930078050+921108996+919562204
776+922164535+923147524+921095673+920072412+923425731+929073562+932202027
766+931746383+931975840+936777846+945075062+952523122+955789056+954582726
756+951045731+947504679+945134954+944348417+945763615+950588634+958213647
746+964358241+965182082+962139610+959046935+956597939+953491396+950970517
736+952440581+959234486+968821421+976815237+980306449+978928798+973850038
726+967327194+963349514+965196979+970601364+973912959+972791532+969860548
716+967511959+965356915+963622634+963779723+965027475+964298893+961267019
706+958992372+959014597+960067714+961684087+965274131+970827308+975793732
696+977394966+974146594+966206070+955162515+943324611+933435669+928121033
686+928308523+931243564+931795617+928276064+924719933+925361068+929723176
676+933214569+931063401+921140910+903840425+885501175+880198106+895838918
666+917793465+928533862+927249835+921134128+913986923+907168976+904723735
656+910315185+921114809+929686659+932280814+930262027+926657994+924999653
646+927474690+931699450+929948757+917826348+901953414+892627124+892845802
636+897772620+901917079+905236486+909964732+915199612+917865106+914146677
626+902416749+887497313+877422093+876609939+884683451+898846508+910596602
616+908226332+890960850+870854556+860720231+864235303+874827271+881761672
606+878560173+870332601+865792632+864403172+864246082
##END=
