##TITLE=<SNM>
##JCAMP-DX=4.24
##DATA TYPE=INFRARED SPECTRUM
##DATE=29/4/2025
##SAMPLING PROCEDURE=Instrument type and / or accessory
##ORIGIN=Admin
##XUNITS=1/CM
##YUNITS=ABSORBANCE
##RESOLUTION=4
##FIRSTX=4497.3318
##LASTX=599.83466
##DELTAX=-1.4281778
##MAXY=2.081563
##MINY=0.40867531
##XFACTOR=1
##YFACTOR=1.9386066e-09
##NPOINTS=2730
##FIRSTY=0.4219563
##XYDATA=(X++(Y..Y))
4497+217659580+217496164+217520608+217307352+217029638+216914232+216741716
4487+216205319+215589397+215795581+217294531+219202713+220129263+219856668
4477+219284866+219031795+219155825+219768472+220825632+221683218+221623448
4467+220577080+219112288+218078404+218152871+219264220+220463673+220613299
4457+219496646+218272612+218201081+218895866+218848979+217863335+217553921
4447+218908764+220673069+220825140+218944999+216439143+214855902+214640710
4437+215302105+216211683+217093913+217941107+218575584+218577383+217865087
4427+216972973+216454501+216363800+216426107+216316097+215857780+215346257
4417+215338862+215834736+216266611+216433440+216558807+216471227+215806419
4407+214932537+214700050+215345365+216220984+216476408+215834367+214881068
4397+214491714+214713625+214547888+213331940+211905058+211666422+212750484
4387+213765721+213415385+211957911+210816630+211027594+212269338+213330326
4377+213480075+213175765+213198102+213507731+213526655+213217503+213099099
4367+213377567+213795960+214082376+214000238+213376045+212469926+211811206
4357+211507572+211314809+211321112+211860691+212864014+213839528+214319013
4347+214069755+213259102+212516183+212376273+212658661+212807795+212653388
4337+212377688+212088074+211874020+212009211+212695818+213713622+214538602
4327+214833196+214751796+214578526+214161117+213192844+211964352+211146935
4317+210950268+211140663+211561639+212102325+212573371+212924569+213144465
4307+212921264+212060434+211103537+210808790+211218343+211726438+211920493
4297+211935804+211996574+212023092+211883628+211773142+212052486+212839371
4287+213935256+214970585+215522617+215412346+215045806+215081763+215550765
4277+215717624+215091141+214112153+213535817+213695313+214544721+215708339
4267+216428951+216220584+215498727+214918670+214554698+214351989+214610810
4257+215344704+215949404+215968067+215571749+215210420+215240167+215784466
4247+216594319+217131900+217051729+216615457+216550460+217298498+218358470
4237+218731928+218099081+217114082+216526970+216479651+216639931+216687664
4227+216678733+216925747+217376839+217465864+216943180+216353054+216215619
4217+216263583+216009558+215558943+215402830+215791799+216548523+217191440
4207+217278712+216892679+216568861+216549676+216474486+216054740+215648307
4197+215799655+216468660+217097602+217361004+217483912+217735431+217944012
4187+217782811+217354486+217170209+217483820+217883842+217882197+217825148
4177+218620827+220402042+222040257+222364660+221478879+220526810+220488485
4167+221419493+222511672+222752799+221832967+220469453+219659554+219685811
4157+220005110+220053919+219944325+220222608+221055982+221895120+222043563
4147+221361675+220209956+218994823+218088673+217927871+218723012+220158349
4137+221634470+222671337+223048976+222862055+222433454+221969972+221493438
4127+221140887+221101978+221174001+220905602+220279073+219705935+219395383
4117+219216933+219058821+219008613+219318949+220156903+221182779+221670305
4107+221354726+220777560+220539247+220738589+221279521+222025899+222555778
4097+222429919+221789569+221225746+221137413+221535883+222221429+222901287
4087+223371672+223657704+223772033+223535949+222914770+222211544+221748492
4077+221694041+222148714+222941719+223496225+223442004+223169347+223286567
4067+223840059+224466680+224891976+224940355+224516212+223891928+223579839
4057+223734384+224089010+224441376+224710528+224632633+223984443+223091591
4047+222626171+222878950+223445048+223612937+223048807+222141627+221646384
4037+221967297+222837720+223643345+223961291+223851835+223677028+223600147
4027+223374931+222796120+222229700+222300800+223041351+223776461+223956325
4017+223712985+223421696+223133989+222668678+221953231+221171941+220771457
4007+221141133+222096677+223039122+223738381+224435304+225137668+225452908
3997+225191597+224629865+224138573+223906132+223987794+224319683+224719244
3987+225077606+225427896+225667824+225510942+224937127+224376056+224242249
3977+224559380+225080911+225473970+225472232+225146800+224892468+224979034
3967+225320823+225719877+226080898+226421027+226868276+227516727+228188453
3957+228524969+228372422+227955413+227603662+227349360+226920021+226227649
3947+225695403+225833054+226630900+227611271+228383153+228926760+229295160
3937+229370319+229105641+228746480+228595270+228676194+228731322+228510657
3927+228098151+227872629+227974721+228037197+227838962+227842836+228538175
3917+229558715+230020215+229748173+229479806+229659809+229705697+228976107
3907+227988495+227829430+228711060+229954111+231237731+232665058+233740327
3897+233669903+232569438+231483100+231345527+231970611+232072273+231069811
3887+230163307+230696368+232158500+233013381+233272202+233880883+234378509
3878+233546903+231731375+230442298+230489324+231770269+233963590+236035157
3868+236578979+235703452+234795565+234585953+234457019+233579986+231837080
3858+229830880+228833261+230536857+235156232+239259103+240221119+239126803
3848+237383021+235583711+234227161+233853811+234507212+235761931+237250074
3838+238568222+239204406+239122898+238767611+238356535+237775203+237183017
3828+236923028+236825393+236534366+236614982+238010564+239997840+240814580
3818+240686277+240960532+241348287+240567704+238759417+237238022+237234409
3808+239000882+241178676+242295037+242948362+244496460+246529255+247698823
3798+248031111+248037691+247654102+247191588+247595270+249228304+251419166
3788+253478111+255430013+257379717+259006633+260323828+262081492+264803447
3778+268151269+271712439+275545313+279753228+284352695+289318994+294319421
3768+299003716+303524319+308036898+312407552+316929385+322302393+328424162
3758+334098760+338809405+343747632+350618316+360021004+370108562+377707713
3748+382412639+386751133+392871426+400002099+405648871+409419853+412582461
3738+415914050+419392205+422967611+426764758+430423946+433077522+434369996
3728+434804562+434849513+434470721+433911910+433667171+433330439+432085528
3718+430319809+429421192+430347727+433083179+436620367+439344382+440524818
3708+440631753+440358204+440512734+441926411+444550623+447200632+449118299
3698+451046357+453929084+457280473+459656841+460680841+461955176+465163196
3688+469117055+470808707+469554880+467455565+466807898+468148921+470464320
3678+472714506+473887963+472593766+469273922+466479068+465808219+466316514
3668+466084903+465141089+465072279+466519868+468269016+468639814+467385987
3658+465862977+465672167+467140817+469300056+471440048+473544282+475329495
3648+476110108+476009138+475766428+475611621+475416967+475256411+475257703
3638+475462502+476020237+476902128+477644248+478314359+480323465+484738855
3628+489691748+492516795+493569235+494460965+495683154+497020242+498557548
3618+500249323+501555295+502321950+503045314+504266304+505965796+507632114
3608+508810705+509506428+510217463+511590185+513671145+515418847+515792873
3598+515690458+517464018+522072862+527802403+532417827+535391285+537140494
3588+537581700+536446615+534241995+532261760+531952454+533915963+537075742
3578+539323284+539417429+537872559+536146779+535600482+536832356+539401871
3568+542014431+543519884+544163278+544851684+545895822+546967202+547477833
3558+547156229+546155442+544629943+543102352+543073020+545680292+549709818
3548+552641461+553180809+551544009+548921794+547204808+547513683+548908266
3538+549691247+549785638+550340052+551586930+552828397+553556035+553152031
3528+550797431+547109064+544507266+544781091+547104022+549115372+549614382
3518+549365584+549381756+549607372+549568754+549092128+548056598+546247312
3508+543892650+541959703+541554039+543003227+545316811+546734023+546355846
3498+545136762+544724026+545342146+545493847+544186768+542794091+543566557
3488+546680709+549821057+550896864+550310843+549888699+550489662+551346188
3478+551078266+549024302+545966292+543493873+542483309+542625910+543461528
3468+544696047+545316750+544118143+541671120+540103129+540648196+542569891
3458+544242849+544296286+542197678+538819908+535949819+534732641+535036290
3448+536069667+536991067+537360574+537441744+537564667+537224738+535609582
3438+532988844+530733124+529942026+530569739+531863597+533267834+534620357
3428+535712889+536215220+535940718+535006835+534076396+534068033+535008742
3418+535561557+534309144+531468571+528848940+528071677+528879747+529448120
3408+528540925+526692652+525268369+525278207+526946369+529504447+531340729
3398+531076004+528870154+526476630+525755633+527039960+528931401+529754905
3388+529148653+528121978+527957117+529056660+530427446+530529215+528995783
3378+527183422+527045433+529677917+534180502+537887809+538810193+537663731
3368+536604773+536876200+538266417+539809257+540714362+541228130+542196510
3358+543421312+543683269+542831971+542332653+543219495+544740198+545449942
3348+545037329+544534691+544868348+545834945+546842126+548045099+549870435
3338+551791884+552556602+551569958+549376038+547037733+545389925+544507389
3328+543865471+543259465+543175712+543909930+544921539+545639768+546112029
3318+546415985+546555695+547057103+548300477+549221692+548295619+545988368
3308+544492446+545155947+547376740+549500867+550189580+549425662+548362768
3298+547844450+547599834+547033552+546150277+545471403+545354321+545860895
3288+547130033+549340864+552150138+554560757+555841825+556383633+556897524
3278+557313704+557355826+557500948+558490666+560142655+561322814+561066084
3268+559375293+557100879+555314652+554565984+554626861+554804512+554341599
3258+553144283+552434539+553588565+556046102+557572463+556744040+554185962
3248+551761507+551151504+552517861+554282382+554816749+554235648+553685415
3238+553830106+554832430+556307568+556899492+555452026+552938899+551807257
3228+553048417+554946682+555168116+553448670+551376873+550097834+549334100
3218+548559544+548059796+548327595+549061874+549301325+548603941+547775640
3208+548017428+549456285+550899385+551088843+549988685+548492271+546995365
3198+545063647+542623204+540561000+539685719+539788043+540124344+540313986
3188+540343994+540034073+539144772+537911606+536748972+535547229+534042083
3178+532617554+531925643+531833220+531449262+530305937+528903545+527942482
3168+527378229+526535908+525194701+524027270+523653889+523829019+523895493
3158+523620745+523265012+522982087+522475759+521462859+520266281+519509004
3148+519365235+519622150+520242914+521037025+520993058+519239730+516579513
3138+514812134+514534158+514409390+512978158+510624603+508938639+508654730
3128+509181780+509712981+509883775+509658160+509279583+509022822+508711487
3118+508088202+507503072+507275366+506897312+505880384+504702100+503985561
3108+503506076+502826463+502226821+502201671+502401121+501963881+500952179
3098+500516414+501175150+501800988+501057946+499134099+497226794+496010692
3088+495429283+495444410+496202333+497481772+498536764+498777383+498296544
3078+497482048+496543615+495642692+494897683+494139206+493284556+492767314
3068+492874280+493041201+492530877+491504356+490764143+490647707+490666493
3058+490187069+489159195+488029521+487126907+486448370+485971467+485769342
3048+485802855+485894817+485827083+485360941+484419833+483395372+482986049
3038+483346025+483704278+483379569+482763662+482657311+483002406+482906416
3028+481779263+480004197+478445953+477557820+477191603+477144685+477326948
3018+477326363+476628918+475511512+474891516+475066062+475259824+474662058
3008+473419176+472274652+471656685+471509565+471628153+471646877+471146976
2998+470343826+470052168+470538141+471126099+471180028+470734978+470068433
2988+469348604+468644610+467852375+466823394+465641698+464508518+463498477
2978+462689608+462315797+462486192+462844476+462772899+461988750+460753894
2968+459473071+458396004+457728536+457617327+457911322+458194863+458138444
2958+457724232+457196474+456905001+457065311+457517956+457778560+457420091
2948+456417614+455069919+453683945+452496468+451832474+451927664+452335789
2938+451973845+450355277+448496796+447902412+448755218+449714896+449607562
2928+448774034+448384020+448855757+449431110+449142311+447771465+445865389
2918+444234246+443472510+443631099+444254600+444757053+444739189+444115258
2908+443115855+442069626+441174207+440589169+440503265+440845838+441161877
2898+441008946+440328104+439369993+438441645+437730856+437282915+437105141
2888+437158209+437183605+436741599+435685869+434555426+434131868+434510537
2878+434986149+435013451+434813233+434809851+435000446+435091024+434805208
2868+434009437+432868878+431791964+431058700+430645687+430380318+430058344
2858+429515890+428834495+428374440+428336899+428419668+428197650+427705958
2848+427272345+426993816+426846757+426936444+427131313+426894045+425921883
2838+424546486+423325281+422670665+422735816+423172903+423294135+422810160
2828+422029547+421316698+420846651+420739224+420955092+421179539+421061105
2818+420460479+419501077+418543889+417926414+417544394+416914252+415787868
2808+414492072+413538173+413069602+412843342+412644199+412453143+412227282
2798+411926246+411751700+411841110+411801232+411174626+410266017+409869546
2788+410260575+410915898+411162728+410830301+410230997+409612846+408864670
2778+407872062+406819069+405866615+404894576+403873282+403095067+402723346
2768+402490075+402126871+401750816+401572734+401538667+401468997+401291530
2758+401020841+400740713+400580556+400487273+400171080+399472282+398617724
2748+397989919+397731374+397613463+397307078+396784947+396305922+395986839
2738+395673167+395269348+394893845+394626815+394301828+393671441+392797144
2728+392146094+392090598+392422871+392627210+392477415+392095855+391649299
2718+391240529+390893928+390474489+389764745+388718701+387617159+386891182
2708+386692193+386678634+386337536+385503640+384546482+384067488+384329783
2698+384965460+385371339+385308371+384915436+384371783+383845532+383500161
2688+383293024+383008868+382574364+382079505+381581080+381174001+381064883
2678+381270513+381414436+381083208+380268743+379299717+378477842+377915526
2668+377614214+377518071+377490646+377371873+377095988+376701270+376251700
2658+375835090+375568336+375474622+375419279+375268039+375047251+374886233
2648+374840729+374812504+374636390+374215783+373566886+372818403+372194625
2638+371843996+371658075+371436180+371202509+371185199+371538534+372163510
2628+372679092+372627162+371903890+370880505+370005409+369490350+369340032
2618+369387166+369359525+369142826+368874259+368672872+368501247+368323104
2608+368109234+367735053+367194014+366803845+366853285+367153275+367272785
2598+367119147+366958960+366934455+366876068+366586532+366128507+365811391
2588+365922631+366433078+366961358+367086279+366701307+366014439+365261958
2578+364580009+364106703+363961181+364076971+364236882+364305015+364295054
2568+364226767+364031129+363643359+363184657+362967959+363207686+363776244
2558+364347291+364689373+364767714+364685345+364545696+364330227+364001705
2548+363683513+363529045+363487999+363446122+363496730+363819196+364319312
2538+364569494+364209733+363392778+362707723+362606661+363003194+363472841
2528+363745497+363883240+363999491+364012128+363806713+363442310+363030865
2518+362662188+362577329+363048298+363926008+364676859+364969562+364888177
2508+364622900+364305569+364027470+363732400+363254943+362662004+362339385
2498+362563370+363155141+363689078+363920935+363908513+363812678+363706819
2488+363539129+363200215+362678207+362209667+362164993+362649705+363298695
2478+363621744+363518591+363305090+363247502+363221645+362930879+362409209
2468+362096152+362345595+363066777+363903133+364530815+364745730+364511199
2458+364005210+363507522+363196433+363044547+362923500+362858656+363040489
2448+363448305+363730616+363666449+363444954+363341555+363404923+363482372
2438+363351055+362944653+362540956+362502339+362857365+363349518+363783746
2428+364129332+364383787+364487924+364365739+364044534+363716412+363608247
2418+363821656+364325277+364984474+365551433+365760568+365558596+365234256
2408+365196130+365548297+366003954+366303544+366544656+366961819+367565396
2398+368145022+368471023+368441476+368219582+368212694+368699129+369489643
2388+370147763+370510629+370806622+371289459+371951577+372644564+373363193
2378+374332895+375870478+378229721+381498711+385471879+389641423+393548149
2368+397182372+400727369+403843981+405690932+405825477+404606516+402635689
2358+400254863+397511171+394381369+391258638+389011281+388072294+387965636
2348+388138398+388806973+390741950+394112740+397992470+401441909+404194272
2338+406181179+407264395+407452562+406969294+406149602+405351126+404763967
2328+404226740+403369046+401956876+400065005+398042095+396320650+395061750
2318+394006235+392813839+391436043+390041707+388766265+387652579+386694591
2308+385865276+385151381+384553646+384076804+383764731+383656474+383659610
2298+383642423+383671201+383914034+384297838+384516597+384441238+384312781
2288+384440838+384839677+385245895+385410233+385287925+385028489+384871592
2278+384948119+385123003+385181574+385173180+385338625+385684704+385891779
2268+385735127+385416259+385365897+385809441+386572252+387239105+387511177
2258+387485566+387543276+387909524+388456651+388992065+389497592+389979046
2248+390334686+390517042+390653524+390870499+391069857+391003814+390592031
2238+390042291+389577748+389188840+388769647+388338863+387992969+387766678
2228+387605045+387372912+386932351+386332002+385842062+385707241+385969628
2218+386558970+387363504+388196724+388927559+389652092+390533614+391575754
2208+392750502+394145115+395759533+397384896+398885891+400396910+402084227
2198+403858309+405458798+406815072+408220108+410049472+412339597+414713813
2188+416700259+418121406+419216184+420333529+421516855+422526927+423211028
2178+423643288+423954684+424202929+424365822+424350725+424059590+423536968
2168+423033254+422807454+422816955+422695108+422100970+421001642+419580740
2158+417989290+416256346+414424031+412630548+410901324+409062152+407074446
2148+405101559+403115452+401104132+399752317+400019778+401930127+404538505
2138+407093509+409600517+412354202+415467954+418799789+422087718+425197504
2128+428236636+431401396+434766960+438183408+441411690+444480891+447740073
2118+451408762+455361576+459454101+463717482+468214749+473085519+478707018
2108+485463234+493407018+502408654+512542239+524064965+536992297+550763918
2098+564232935+576026043+585360505+592650350+598847909+604123329+607649110
2088+608693064+607378483+604194353+599299446+592685585+584630100+575626773
2078+566224300+557051378+548507829+540513159+533046401+526561920+521396386
2068+517278926+513725350+510395268+507041972+503589336+500091626+496469209
2058+492679903+488988523+485584527+482305791+479110254+476349252+474357087
2048+473149379+472507738+472102258+471699330+471466213+471998582+473990962
2038+477872076+483714609+491507707+501404024+513436429+527044941+541213863
2028+555134541+568500990+581131129+592571517+602293873+610182161+616550668
2018+621726163+625811954+628695449+630198504+630382735+629616419+628228969
2008+626266874+623534035+619650431+614255777+607358129+599319431+590554264
1998+581497254+572694085+564549190+556980170+549564081+542168592+535272543
1988+529506169+525112178+521919931+519522532+517399082+515180534+512942308
1978+511080199+509895274+509394482+509384735+509663172+510161843+510899720
1968+511801872+512719337+513642551+514735637+516154663+517887945+519772683
1958+521670641+523558269+525419886+527218964+529039258+531042737+533233337
1948+535455852+537645345+539937469+542563434+545691237+549233991+552772870
1938+555809849+558203189+560284272+562442404+564746949+567062132+569277514
1928+571350049+573359431+575511906+577889073+580319001+582657859+584924525
1918+587010096+588637796+589775157+590726688+591797822+593136078+594729403
1908+596350831+597682016+598636437+599418434+600241631+601114575+601911945
1898+602650221+603648547+605184070+606928052+608171979+608693987+608855834
1888+608889163+608662318+608213117+608033253+608638951+609914731+611026880
1878+611205207+610537586+609783691+609527022+609719309+609837620+609340947
1868+608255855+607180662+606431502+605617222+604197243+602163817+600048114
1858+598347362+597136333+596166170+595117481+593771908+592159396+590569268
1848+589303266+588431982+587754645+586906728+585702218+584338627+583024107
1838+581708173+580284935+578802848+577363622+576018848+574803577+573610381
1828+572139732+570276332+568303845+566624184+565452265+564789502+564416674
1818+563857771+562739411+561282598+560110556+559629625+559816930+560396249
1808+560994323+561269132+561152112+560990264+561219692+561851586+562519023
1798+563023690+563513660+564161051+564982833+565924772+566898071+567770892
1788+568454809+568984380+569550970+570423483+571690654+573173601+574724129
1778+576465712+578597710+581127624+583781015+585905941+586934953+587353715
1768+588251994+589945921+591824755+593366551+594513566+595217467+595585007
1758+596184310+597389620+598882713+600379804+602200466+604481706+606483894
1748+607521821+607945134+608538350+609761677+611649919+613947209+616202867
1738+618093508+619883794+622189753+624869586+626679979+627357993+628004399
1728+629245805+630757653+632183351+633642993+635310294+637258676+639695921
1718+642573697+644938259+645931359+646140494+646633293+647832945+649513590
1708+651313346+653136160+655061544+657128115+659437395+662095705+664771909
1698+667105233+669482892+672216469+674917209+677356299+679768824+682159705
1688+684412535+687062421+690829744+694670058+696337912+696181722+696237987
1678+697670449+700356554+703310457+705621890+707396864+709462327+712390711
1668+715851680+719092321+721885668+724256564+725926263+726762004+727248531
1658+727853922+728642130+729730604+731594619+733972401+735321787+735257343
1648+734466553+733524184+732797284+732508271+732643861+732907601+733065821
1638+733352744+734024793+734341908+733377402+731867460+730966291+730790546
1628+730774128+730614002+730394598+730052209+729641194+729707237+730553924
1618+731697126+732265745+732073705+732062636+733088389+735020537+736948011
1608+738205221+738936241+739258460+738827768+737722322+736875389+737143003
1598+738445901+740183734+742229889+744949076+748163522+750909459+752519941
1588+753262091+753779979+754562652+755864996+757576941+759368764+761230811
1578+763447668+765468426+765374712+762424129+758408378+755470770+754467462
1568+754165535+752837487+750654081+748909239+748058247+747492949+746762175
1558+746411239+746766910+747312162+747655473+747755951+747910850+748485004
1548+749502946+750693313+751882082+753111804+754558594+756541842+758687921
1538+759628322+759372761+759521756+761543745+765257815+768746455+770873718
1528+772349040+774230396+776621092+779321032+783083866+788703766+795213336
1518+800949949+805305875+808421011+810924177+813726379+817190975+821034979
1508+825499562+831663362+838884643+844645360+848222979+850338497+851920878
1498+853998516+857082660+860623138+864063691+867836733+872678818+878304498
1488+883169335+886312142+888629170+891673529+895990777+900602327+904224528
1478+907042841+910733545+916930550+925698976+934548388+939822148+940851713
1468+939794969+938213880+936318996+934150595+932858950+933961075+937290942
1458+939827436+937708044+932405137+928486420+926178431+923630992+920809358
1448+919449211+920874847+924711349+929375475+933022581+934508725+934670635
1438+935992718+939556256+942672314+942713145+941050025+940248966+940690665
1428+940768944+939878905+939113204+938462554+936159792+932356005+930839913
1418+934339991+939919244+943404564+944516959+944723880+944535345+943995812
1408+943268666+942073441+940012713+937526765+936018114+936664459+939095248
1398+941589804+942782754+942647471+941576645+939836660+938345104+938744558
1388+941939388+946322002+948525270+947571648+946333624+947980202+953011622
1378+959646144+965723915+969988895+972614922+974883801+977837766+981433649
1368+984625589+985734847+983664649+979562870+976761344+978114666+983201797
1358+988840022+991995927+992171979+991573168+992814266+996480311+1000936040
1348+1004388154+1006633359+1008445781+1010222047+1011907119+1013586103
1340+1015287902+1016452011+1017045904+1018586961+1022462695+1027399293
1331+1030409093+1031186970+1032321994+1034903070+1037526698+1039234461
1322+1039992291+1039660233+1039049246+1039864019+1042129762+1043880078
1314+1044739616+1046772673+1050840140+1055871559+1061379174+1067404677
1305+1072419740+1073741823+1070922772+1067041627+1064966878+1064804293
1297+1065279997+1065057887+1063177331+1060044669+1057089106+1054469413
1288+1050611635+1044468190+1037073377+1029997955+1023629203+1018223173
1280+1014668244+1013085126+1011076543+1005625501+997836215+992285371+991409537
1270+993255596+994385578+992937620+988665876+982047341+974432510+967683981
1260+962722724+959050222+955890258+952980629+950187651+947443068+944810769
1250+941795680+937116550+929709071+919749293+908678597+898236105+889240096
1240+881440787+874477958+868202858+862277342+856433241+850965903+846432633
1230+843012741+840307697+837710879+835107850+832977943+831433688+829921593
1220+828479293+828146251+829458987+831671724+833738664+835070893+835566275
1210+835841207+837053465+839903262+843924917+848090771+851998112+856084334
1200+860788799+865613481+869543266+872317489+874548182+876931376+879766845
1190+882792018+885309573+886958549+888421019+890994408+895295853+900476330
1180+905129018+909304834+914804517+922875006+932740946+942705643+951519820
1170+957830708+959886824+958417037+957664986+961321439+968820973+976244502
1160+980275627+980715235+979805334+980059297+982399139+985492076+987553911
1150+988471376+988804418+988487118+987617310+986534370+984673307+981600785
1140+979294518+980680984+985777523+991591370+995886850+998758169+1000301132
1130+1000069614+999470864+1001352281+1006569345+1012875683+1016922489
1121+1016842426+1013755269+1011286847+1012488774+1016772816+1020736607
1113+1022232222+1022826729+1026039576+1033463167+1041435638+1043787470
1104+1039411928+1032654544+1026829321+1022685543+1021030909+1022228040
1095+1023469630+1021272328+1016778904+1013164513+1012275335+1015349701
1087+1021554823+1026464857+1026278535+1022712476+1020036149+1019675066
1078+1019684044+1017553030+1012308171+1005330030+1000187802+999216778
1070+1000480936+999653373+994190155+985700473+978544374+975628534+975559478
1060+974681369+972080246+970278462+970738485+971603559+970578975+968128570
1050+966507572+967287786+970436251+974854470+979446158+983710522+987017207
1040+987905216+986184971+984233514+984499652+986414644+987104587+985279005
1030+982148927+978767960+975458754+973946413+976266024+980374814+980750654
1020+975467547+968548316+964563618+964906253+968012349+970777164+971016553
1010+968910751+965161692+959417946+951718501+943982161+938586892+935759109
1000+932707002+926375760+917297474+908905688+903462270+900147100+896726839
990+892009461+886665292+882375839+880017303+878354430+875535502+871705764
980+868567815+866999639+866577925+866226559+864294410+859586195+853031858
970+846895362+842231420+838515566+835591917+834182084+834130615+833805260
960+832174362+830233175+829506644+830519975+833231045+837427522+842100503
950+845934115+848999750+852653804+857426587+862258463+866174413+869733831
940+874151250+879588948+885108493+890234979+895493120+901325107+907657026
930+914451182+921392059+927472105+932296234+936272200+938699668+938070849
920+934632940+930801726+928545760+927804471+927779259+928178405+928477996
910+927321019+924055288+919954124+916759601+915168735+915461131+917907969
900+921454043+924190633+926109253+928892638+932913432+936834424+939620945
890+941051255+941016574+939843793+939588416+942940543+949871089+956614637
880+959430736+958205688+955161083+952498899+951575654+952639409+955503657
870+959815555+963913952+965060229+961898728+956382627+951966745+950943207
860+953463405+956807231+957071894+953876018+951205717+952655827+958773261
850+967914269+977370179+984160953+986763859+986825535+987179977+988431098
840+989054753+988359890+987254690+986690867+987443102+990401679+995131663
830+998925858+1000252615+1001176229+1004503882+1010220017+1015758932+1018858326
820+1018653988+1015923916+1012118775+1008562678+1007904588+1012252336
811+1019085540+1022781840+1020863896+1016472611+1014244316+1015547214
803+1018783675+1022045777+1022997062+1020899377+1018054438+1016650262
794+1016818690+1016140861+1011988596+1005781507+1001534667+999192858+994443380
784+986812561+980723967+977251991+972082768+962748305+953179680+948131473
774+947028302+945981212+944246700+944921701+949469852+955847460+961501119
764+965736767+968940452+971286935+973378532+976532655+981100545+985504251
754+988471499+990658778+992715264+993388788+991967333+990400080+990642852
744+992023045+992292381+990165118+985362266+979150564+975085065+976574469
734+983455821+992038357+999013177+1004863181+1012167354+1020607781+1025261330
724+1022053587+1012754421+1002779393+996694673+995626184+997111283+998081324
714+998406249+1000158839+1003192375+1004537457+1002036813+997042842+994968955
704+1000537324+1010777076+1016523035+1012004584+999949274+987860389+981080745
694+980029104+981893549+982624323+978908838+970641820+961397382+955873287
684+956457770+961600737+967349155+970829371+971637195+970987345+972011929
674+975937041+977136570+966528726+944158705+924465995+922335042+932124732
664+939964503+943026079+945243736+947865519+947307723+941744580+936493572
654+937682464+944560249+951058812+952180185+949836654+948914700+949963881
644+949429390+943669042+932700853+920957124+914379052+917041666+929698924
634+946931329+958858981+960921985+956983283+951235725+942357474+928110087
624+910133073+893622649+883808301+881904501+884337134+885942266+883796863
614+881687433+885723661+894233267+899221949+899244824+901484925+907727558
604+908330243+896760660+881826221+872921405
##END=
