##TITLE=<SNM>
##JCAMP-DX=4.24
##DATA TYPE=INFRARED SPECTRUM
##DATE=29/4/2025
##SAMPLING PROCEDURE=Instrument type and / or accessory
##ORIGIN=Admin
##XUNITS=1/CM
##YUNITS=ABSORBANCE
##RESOLUTION=4
##FIRSTX=4497.3318
##LASTX=599.83466
##DELTAX=-1.4281778
##MAXY=2.0484703
##MINY=0.44609368
##XFACTOR=1
##YFACTOR=1.9077866e-09
##NPOINTS=2730
##FIRSTY=0.45596609
##XYDATA=(X++(Y..Y))
4497+239002667+239091069+239200200+239303692+239561726+239404872+238535071
4487+237811222+238162657+239395061+240624248+241326915+241589058+241731400
4477+241939837+242182874+242350195+242330903+242056138+241561876+240922070
4467+240162370+239504224+239470654+240309648+241556768+242577534+243248239
4457+243697980+243810485+243513163+243213107+243348794+243646741+243411483
4447+242500348+241416441+240523568+239711161+238844375+238175263+238226111
4437+239301692+240887734+241729416+241038481+239448565+238334867+238401743
4427+239286508+240296026+241056602+241407474+241126680+240135938+238730808
4417+237334785+236268654+235869559+236471936+238080473+240226699+242178782
4407+243278607+243303273+242642816+241952146+241498469+240975636+240098494
4397+239111564+238339085+237584399+236615215+235921562+236140121+236990129
4387+237626749+237809144+237944270+238241795+238504344+238548381+238292783
4377+237645370+236813014+236474217+237096199+238303047+239336200+239941499
4367+240457974+241147487+241690909+241388088+239937671+237952846+236387455
4357+235573892+235241968+235276007+235868434+237023059+238392354+239537169
4347+240031962+239611762+238590996+237790180+237790633+238514201+239442597
4337+239920488+239495085+238324729+237026590+236039738+235484584+235338321
4327+235254059+234750519+234024420+233827871+234291733+234794352+235125682
4317+235728669+236617418+237083655+236747263+236216682+236380098+237370792
4307+238537993+239317376+239644223+239510629+238877743+238147520+237896624
4297+238016175+237921431+237609862+237627577+237997132+238093017+237695405
4287+237356592+237509354+237849948+237894422+237672238+237534879+237720915
4277+238387668+239529593+240613219+240893202+240226917+238974002+237391490
4267+235931326+235517733+236517129+237832795+237977418+237006782+236472998
4257+237361091+238977220+240184193+240927694+241846046+242989111+243785272
4247+243950953+243705447+243192221+242265168+240964467+239852082+239602467
4237+240289606+241288986+241897987+241843937+241280332+240634027+240425325
4227+240926522+241931323+242931171+243461425+243329330+242749463+242269542
4217+242343588+242966429+243588411+243327549+241779936+239769382+238683444
4207+239051312+240255161+241369186+241818708+241607382+241293985+241424517
4197+241915655+242157130+241521401+239938015+238323792+237974388+239202699
4187+241102201+242628007+243277436+243035116+242359959+241920200+242003072
4177+242393404+242734373+242902053+243234086+244110963+245099361+245213241
4167+244245026+243028196+242216570+241616676+241017611+240917181+241801415
4157+243147169+243923084+243921850+243775696+243822232+243846039+243775149
4147+243829387+244099606+244396210+244398913+243890654+243041334+242424319
4137+242486117+243042427+243427307+243176803+242555055+242335824+243015590
4127+244263850+245182404+245112077+244126663+242816682+241886568+241884677
4117+242798717+243922866+244581152+244811786+244927760+244925526+244763048
4107+244588072+244388759+244079408+244015407+244692298+245887727+246786958
4097+247036213+247004970+246884311+246329688+245295332+244424953+244252571
4087+244675880+245369112+246081635+246540921+246648708+246681732+246899260
4077+247192896+247375432+247475784+247528678+247363060+246776476+245787984
4067+244703905+244001223+244015141+244563921+245017895+244983747+244743755
4057+244779669+245205524+245941121+246912710+247814503+248152441+247790024
4047+247202550+246994098+247279157+247600490+247444448+246780506+246043207
4037+245733747+246162726+247358639+248881711+249799829+249307660+247582228
4027+245774987+245031080+245638847+247070596+248581952+249684449+250210625
4017+250167260+249688260+249066513+248587029+248242530+247852307+247493952
4007+247483657+247938240+248690880+249581176+250531801+251412880+252027770
3997+252135620+251500313+250170837+248712922+247911996+248163985+249246534
3987+250679502+252134230+253378085+254036465+253752312+252615167+251249464
3977+250385538+250308524+250670004+250857601+250590647+250107242+249818153
3967+249947701+250461958+251095000+251488332+251519902+251395712+251306264
3957+251281504+251424534+251844812+252371410+252807263+253293214+253895419
3947+254221313+253989742+253445585+252899304+252470887+252399138+252903491
3937+253731926+254535585+255500551+256911071+258251232+258584452+257912497
3927+257250399+257297091+257723509+257853417+257699936+257909451+258694849
3917+259197686+258345585+256324081+254397788+253367213+253059705+253331486
3907+254762095+257941147+262423961+266703885+269283042+269443506+267265381
3897+263747282+260620360+259384878+260326818+262002652+262388719+261746367
3887+262264373+264507077+266398049+266740407+266939299+267318712+266140514
3878+263514429+261935417+262696274+265072978+268375813+271857920+273172399
3868+271263838+268683461+267756487+267697281+266549108+264123415+261657434
3858+260685876+263275922+271154613+280601693+282175801+275543574+267841655
3848+263249522+262518158+264542475+267545348+270330646+272817075+275118484
3838+276493855+276071671+274295266+272417698+271035484+269865002+268698770
3828+267781606+267406505+268144023+271023986+275797140+279349481+279602110
3818+278536355+277389681+274629127+270097730+266388769+265600888+267964439
3808+272002637+275346494+277454010+279943001+282733610+282864330+279641633
3798+276012247+273424623+271092752+268934310+268132494+269121673+270973123
3788+272788175+274441952+275893181+277148892+278829725+281198494+282907883
3778+282484605+280744286+279889888+281418600+285523407+290949349+295484276
3768+298096208+299713680+301405510+303688392+307312185+312731722+318723627
3758+323295109+326502529+330569657+337763474+348434868+358985476+364783614
3748+367507613+372210283+380190326+386751132+388087325+387476809+389600353
3738+396659763+407827511+419014099+425627924+427006295+426054045+425415160
3728+425965846+427551138+429718922+432009334+433753620+434003407+432573329
3718+431019998+431533099+435356877+442691631+452553023+461876538+467280328
3708+468689942+468931418+470919337+475492255+480568121+483263127+483255785
3698+482134293+481123212+480862460+482158818+485865217+491464525+495986393
3688+496564104+493946705+490465380+487566170+486166398+486959935+490559358
3678+497365545+505188436+508231519+504790778+500345611+498447203+497512355
3668+495334137+492579394+490785119+490567231+491971003+494958098+499382082
3658+504170264+507018079+507281518+508027128+512460392+520385634+527213067
3648+527993075+524265181+520673193+519487341+520369576+522011449+523859712
3638+526454116+530290610+534734465+538372129+540900611+543938601+548212182
3628+550781905+549347172+546067737+544538963+546849308+552280498+557695442
3618+560723809+562250459+563806227+564963336+564994704+564940841+566299154
3608+568893933+571027194+571107050+569238229+567585171+568572507+572561091
3598+577949604+583012754+586459900+587610511+587332512+587395997+588385020
3588+589114478+588192939+585788054+583414912+582814987+584957682+588815609
3578+591793925+592431966+591377083+589586619+587865452+587680057+590207414
3568+594194374+596304577+595370479+594081962+595199393+598206515+599793401
3558+597896399+594545043+593069695+594095772+596002334+597976318+600326716
3548+602616065+603895646+603911580+602713230+601182644+602108307+607756385
3538+616120089+621838151+622163264+619618723+617663610+617087430+617053563
3528+617089554+616805807+614899182+610361662+604810999+601613358+602655993
3518+607087851+612303028+615728242+616569299+615903452+614575194+612174995
3508+609025281+607222632+608466847+612244292+616649405+620054561+621974745
3498+622818301+623074867+623327497+624431368+626388544+627413434+625829860
3488+622883349+621860521+624473984+628887283+631119270+628979886+624517599
3478+621005093+618770106+616281115+613980768+613888664+615896891+617659736
3468+618066330+618319772+619156892+619178637+617232271+614951233+615159497
3458+618450554+622581043+624667314+623215210+619391026+616624786+617413105
3448+620562507+622716887+622642217+621469049+619523245+616402025+612826533
3438+610329606+610092036+612540349+616778376+620359366+621094635+618968935
3428+615643011+612983247+612028904+612190054+611839447+610359850+608665614
3418+607788252+608254708+610345040+613706269+617146041+619359533+619256369
3408+616422707+612418002+610325670+611734471+615100823+617602561+617734719
3398+615856212+613460450+612431811+613816806+616531057+618332894+618547220
3388+618674253+620236957+622883474+624906759+625582354+626027939+626976659
3378+626967349+624538156+621457739+621314522+625125022+629762207+630833211
3368+627573147+623705285+622514184+623514829+624785787+625995884+627557713
3358+629322308+631310414+634158510+638196083+642378935+644513945+643066402
3348+638873615+634521676+632109418+632028124+633391998+634954890+635776638
3338+635811318+635684597+635702343+635594493+635345862+635796134+637455378
3328+639262088+639571579+638184648+636688054+636489225+637291540+637959512
3318+638068987+637947765+637351277+635350174+632435843+630860142+631895217
3308+634072155+634830356+633454047+631397956+630044517+629212958+628039540
3298+626672604+626181092+627387877+630829024+636768098+644057862+649755241
3288+651458475+649566784+646237861+643307409+641459521+640514988+640406138
3278+641567871+644009623+646904896+649571596+651694108+652442062+650866361
3268+647803627+645595321+645663868+647951655+651572449+654597942+654501589
3258+650992769+646909644+644621045+643715940+642738102+641442275+640866345
3248+641964218+644369790+646477306+647166086+646823602+646291099+646037532
3238+645977983+645440669+644132095+642905002+642387808+641603050+639719483
3228+638175775+638932414+641566809+643729187+644100102+643629023+643594718
3218+643482057+641862553+639212162+637825168+638588243+639934184+640553104
3208+641327301+643389265+645815896+646773426+646275603+645955739+646053841
3198+644780071+641113163+636778783+634351216+634499119+635920043+637241364
3188+638249883+638959845+638519259+636046451+632045932+628334472+626446468
3178+626175093+625860728+624304460+622033606+620334372+619728198+619586106
3168+618958688+617713786+616502502+615629952+614689355+613474759+612796290
3158+613610853+615394943+616482381+615994868+614557011+613322732+612824471
3148+612274285+610247063+606783358+603865653+603046279+603783485+604604234
3138+604815248+604447957+603375328+601570805+599993917+599830142+600722375
3128+601130281+600599591+599989793+599484034+598438587+596972923+595851243
3118+595118349+594290039+593474664+593149614+593231970+593149051+592563748
3108+591610155+590530528+589556126+589037558+589080173+589120664+588472875
3098+587229473+586229203+586315995+587593765+589147970+589736710+588921522
3088+587144618+584981177+583049433+582087654+582237494+582540675+581854457
3078+580446218+579925275+581173801+583198586+584481417+584577457+583733588
3068+582116460+580201150+578709180+577676667+576701891+576156453+576788496
3058+578008091+578025087+576237372+574161161+573308545+573470133+573639094
3048+573433329+573005927+572490108+572069142+572036024+572504792+573143833
3038+573068287+571403482+568456346+565711039+564272620+564017741+564337730
3028+564857235+565358808+565690294+565780148+565421793+564324108+562586069
3018+560799792+559687860+559688047+560496674+561060545+560501423+559047069
3008+557731934+557312030+557543352+557240984+555299492+552096728+549404409
2998+548560602+549203017+549964655+549920040+549021746+547620818+546059239
2988+544617133+543554189+543071925+543127537+543335677+543379729+543365045
2978+543435529+543400350+543039808+542482685+542057033+541990673+542287855
2968+542599596+542241803+540595244+537730339+534697848+532876891+532849023
2958+534031938+535338826+535913131+535408185+534025440+532311583+530693642
2948+529225042+527814304+526614579+526089012+526366948+526686500+526159371
2938+524855983+523463021+522541202+522609842+523869772+525365741+525715660
2928+524920593+523982059+523167995+522121173+520966438+520096607+519450724
2918+518880574+518614010+518659499+518391155+517303092+515670842+514032187
2908+512593330+511432503+510608004+509929941+509245192+508932014+509523160
2898+510803959+511701503+511287973+509810875+508383796+507651621+507276551
2888+506819781+506398159+506126440+505653955+504713670+503652727+503020559
2878+502873749+502842694+502669359+502280979+501580827+500668912+500039494
2868+500086764+500569310+500734709+499909086+498150615+496442695+495892165
2858+496620560+497649824+497813755+496756498+495163988+493959234+493336345
2848+492840834+492188734+491518419+491078489+491044622+491321714+491411069
2838+490863257+489852770+488944198+488408477+488071898+487702670+487230154
2828+486545467+485456655+484125210+483208702+483118285+483338829+482910708
2818+481505281+479676201+478135055+477190084+476875688+477178837+477890048
2808+478498596+478490067+477653446+476159821+474557407+473507617+473250832
2798+473428198+473517053+473315224+473004170+472725672+472178422+470978136
2788+469351103+467969201+467116928+466508006+465861810+465249045+464836921
2778+464527023+464015453+463220417+462347867+461447511+460380975+459309846
2768+458657839+458537586+458650935+458642218+458282082+457523787+456505459
2758+455404087+454416126+453840289+453832697+454137377+454295685+453990317
2748+453242177+452525904+452400620+452715610+452639940+451771577+450606376
2738+449633287+448655792+447352748+445972471+445088268+444964109+445376670
2728+445861403+445944696+445351270+444307885+443483949+443269310+443250627
2718+442746493+441692266+440554371+439581501+438695579+437918789+437333236
2708+436758899+435947492+435023141+434395348+434297058+434578494+434831123
2698+434735739+434396567+434189958+434234510+434225731+433840444+433084462
2688+432206163+431485672+431152655+431288093+431626140+431633357+431000534
2678+429936091+428899922+428220578+427947610+427842290+427538329+426866764
2668+425980030+425166155+424602659+424221341+423839647+423491258+423440426
2658+423760728+424146014+424200595+423726173+422825786+421900061+421345657
2648+421146828+420941312+420505319+420019899+419812322+419906238+419955945
2638+419691381+419233830+418827142+418504559+418165231+417725770+417107599
2628+416305721+415496969+414910791+414625763+414537470+414476797+414364916
2618+414240195+414145123+414093572+414148435+414338704+414438212+414027931
2608+412936026+411531442+410473060+410202841+410645020+411231448+411296027
2598+410723659+410130201+410091210+410337685+410096803+409162298+408224139
2588+408070237+408735896+409551990+409894536+409702331+409275710+408833936
2578+408404285+407938767+407404421+406891726+406650281+406830959+407175973
2568+407157759+406503221+405495890+404715226+404515647+404779024+405135754
2558+405307777+405168559+404684983+404019917+403538902+403492694+403766412
2548+404052503+404149137+404032289+403772349+403457577+403169706+402983342
2538+402928636+402972532+403096597+403305706+403486227+403445080+403184171
2528+402930698+402852872+402940977+403136869+403379470+403561241+403581892
2518+403431458+403178954+402914077+402706781+402601055+402603086+402641077
2508+402603429+402492142+402427251+402394727+402205490+401873222+401700168
2498+401740128+401618499+401217685+401040632+401511149+402343333+402912327
2488+402926293+402547005+402112792+401856413+401767465+401718445+401691045
2478+401747064+401847634+401880283+401831575+401805738+401871691+401955422
2468+401910432+401683891+401366713+401087340+400907881+400803530+400691306
2458+400498850+400233380+399972752+399825911+399905986+400236910+400648566
2448+400890885+400910693+400878888+400898977+400873108+400725704+400545340
2438+400401216+400238972+400097474+400195857+400614011+401080779+401266861
2428+401142952+400909756+400728954+400647222+400652565+400726079+400888136
2418+401145014+401401362+401584038+401784180+402054618+402232515+402197491
2408+402079706+402060679+402201209+402515293+402989435+403520406+403945090
2398+404114489+404017324+403904849+404113145+404700698+405479300+406414179
2388+407797299+410088554+413833382+419760396+428759111+441582854+458518871
2378+479371646+503751735+531306877+561690525+594339653+628076656+660873938
2368+690679906+716875516+739647663+756816970+763250493+756752860+741839972
2358+723479188+700896248+670937002+634477687+597770553+569136253+554542354
2348+556502216+574799265+604649098+634917523+655333273+665327415+669296941
2338+669493334+666572567+662189511+658132068+654372931+649558286+642704922
2328+633616134+622229686+608424481+592794508+576996698+562523021+549441650
2318+536997070+525035879+513908278+503478298+493284951+483494543+474839280
2308+467564950+461158328+455224722+449967304+445661386+442230643+439432067
2298+437038554+434860366+432839612+431020467+429376438+427837354+426413806
2288+425126726+423941186+422877493+422088986+421774402+421969951+422397759
2278+422612679+422402196+421957579+421571105+421295762+421012390+420723238
2268+420566867+420531188+420394969+420063233+419757459+419746243+420039926
2258+420453362+420859206+421264363+421681705+422055650+422315278+422401477
2248+422300000+422116949+421966452+421745159+421259864+420577552+419978971
2238+419594684+419274008+418752159+417911133+416953947+416250265+416000697
2228+416165534+416577564+416955821+417052580+416963538+417029648+417360447
2218+417745234+418043040+418395678+419026252+419970129+421029292+421992883
2208+422916828+424103618+425724527+427530018+429083662+430277794+431396693
2198+432654717+433982224+435311044+436731281+438273364+439825539+441358218
2188+442982595+444686704+446182142+447121488+447432167+447426731+447602690
2178+448283597+449417211+450714476+451866774+452560490+452541713+451898204
2168+451085516+450514178+450268547+450234961+450255113+450131110+449705645
2158+448970845+447991820+446759540+445219019+443461204+441803616+440548060
2148+439616899+438626595+437503197+436797422+437086168+438263179+439765084
2138+441302481+442965474+444752189+446405934+447741659+448907672+450236773
2128+451880552+453672016+455341632+456738749+457861085+458875415+460088355
2118+461671929+463447802+465119418+466663439+468286441+469987957+471433156
2108+472417680+473194158+474116665+475297644+476842195+478973393+481599978
2098+484121992+485977191+487149797+487923744+488362644+488320966+487818175
2088+487039229+486021463+484687363+483127002+481573234+480205829+479106457
2078+478274866+477691875+477409502+477408159+477417532+477139658+476549856
2068+475839644+475237033+474848528+474531788+474062490+473397674+472581267
2058+471618582+470646493+469874108+469266185+468638329+467987666+467468223
2048+467204346+467233714+467480439+467821392+468215145+468614335+468912110
2038+469231162+469962556+471231546+472686743+474102668+475784094+478008896
2028+480430902+482498865+484224531+486036178+488076272+490126582+492037769
2018+493777088+495190857+496131079+496762934+497402068+498040234+498331698
2008+498119591+497637014+497075112+496411108+495793531+495550025+495661187
1998+495768662+495840177+496326596+497471177+498793530+499535328+499544076
1988+499408264+499797237+500972342+502816106+505015039+507181916+509016839
1978+510503341+511878463+513298043+514686131+516115552+518024801+520633734
1968+523419250+525690354+527467508+529260846+531279570+533336723+535292524
1958+537290878+539586850+542212747+544880697+547310577+549549938+551809294
1948+554156067+556618627+559360685+562353560+565110302+567290114+569271784
1938+571590689+574315314+577285507+580317185+582974575+584817215+586021126
1928+587274525+589192835+592009376+595321865+598226386+600331090+602109994
1918+603750305+604636914+604553120+604316925+604818497+606213177+608027260
1908+609668008+610901100+611961544+613131963+614297633+615118632+615598897
1898+616150270+616919156+617413605+617278698+617087055+617595313+618547532
1888+619040919+618895202+618725804+618945128+619424018+619807993+619768814
1878+619188635+618289466+617478652+617187157+617869063+619678335+621661629
1868+621807346+619181886+615241166+611951796+609947757+608715477+607604482
1858+606320027+604830682+603192933+601497572+599980295+599005207+598766324
1848+599239715+600360396+601519442+601108224+598256879+594413199+591454441
1838+589797571+588716382+587740106+587395872+588245490+589442403+589131849
1828+586962472+584510348+582606660+580471400+577622867+574904928+573215941
1818+572473674+572134127+572124567+572762108+573922841+574800390+574721283
1808+573940587+573301671+573434766+574472715+576143144+577897741+579177697
1798+579890533+580656857+582387023+585276734+587900944+588292354+586712967
1788+585220622+585087028+586276879+588392894+591110457+593769784+595648665
1778+597101519+599561517+604071856+609987498+614679795+615666444+613515875
1768+610490819+608329753+608171352+610312798+613607666+616289988+618071329
1758+619753755+621187801+622037356+623577315+627454049+633033706+637315722
1748+638669224+638687907+639417927+641427591+644274687+647196579+649440188
1738+651344001+654697169+660540140+666321125+668004176+666378736+664395192
1728+663046752+662574860+663423790+665526682+668478129+672776143+679677808
1718+688810211+695892022+696956340+694135988+691577950+690935285+692243048
1708+695934512+702256811+709376988+715301815+721192588+728746791+735413760
1698+737670242+736800004+734869010+732640896+731683054+733651602+738550602
1688+745180267+753052584+761689289+767638048+768071886+766066596+765295523
1678+767007630+771045016+775945015+780039263+784057153+789614064+794945090
1668+796129818+793906704+792648555+794405339+797544243+799329833+799595960
1658+800553927+804356991+812059098+821968573+827318157+825867677+824101270
1648+825489639+827907771+826977110+822848183+819302185+818328971+819761767
1638+822697655+825407658+824881154+820323575+815071844+812055599+811775351
1628+812871161+813483083+812878035+810918172+807322686+803296860+801210526
1618+801616621+802261035+800992702+798702040+796610645+794481384+792081873
1608+789843262+788125594+786974483+786397490+786292639+786457851+786748097
1598+787071711+787431753+787807604+787877650+787499612+787339524+788016681
1588+788992644+789465036+789667677+789976606+789800771+788864486+788660971
1578+791083289+795514897+798078308+797008741+795179599+794789063+794924095
1568+793848467+791635475+788995331+786506465+785805876+788939532+794810559
1558+796775482+792822203+788534687+786265146+784951447+783465539+781787049
1548+780835955+781954198+785836307+791670092+797831115+802555405+802990743
1538+798827386+794715893+794028176+796303903+798701415+799786728+801096865
1528+804111048+808581459+813609117+819064614+824963010+830050654+833153504
1518+835080562+836890271+838756405+841125174+844896120+850544074+858383211
1508+868424468+876716314+876601715+870724127+866578142+867272420+872283332
1498+878892252+883339668+884112303+883778067+886104721+892874604+902000696
1488+908481333+909916815+908481083+907259613+908075988+911160092+915519341
1478+920402470+926031115+932420523+938440953+942378986+943572525+943623076
1468+945099112+949264468+954475771+957266193+956809298+955716736+956697824
1458+960107541+961751476+957177089+949375505+943396690+940878893+940488483
1448+939858565+937822095+935301986+934042963+935094034+938362159+942931735
1438+947514745+950776371+952497163+954104169+956303977+957991152+957976967
1428+957019500+957287751+959734501+963184272+966178272+968356896+968945074
1418+966435275+961919125+958548961+957328866+956776618+955727359+954995652
1408+955735607+957804944+960156279+961594512+961074756+958255153+954706906
1398+953725256+957464460+964554082+970954550+973805583+973990165+973431669
1388+972057422+969108036+965840912+964181043+964209474+965214306+967552831
1378+972209949+979107990+986423498+991694163+994289879+996089966+998808092
1368+1002052659+1004621757+1006303246+1007623630+1008888215+1009579306
1360+1009109851+1008160069+1007829833+1008319533+1009749079+1012700777
1351+1016553642+1019083436+1019496341+1019908747+1022144546+1025157854
1342+1026785730+1026793103+1027000306+1028968541+1032347016+1035902012
1334+1039541239+1044319204+1050347070+1055172837+1055731584+1052656415
1325+1049820566+1049184462+1049409160+1049561500+1051079777+1054698696
1317+1058379850+1060273541+1061281559+1062957924+1064850115+1065634810
1308+1065676050+1066798167+1069733368+1072900641+1073741823+1070881355
1300+1065887252+1061888545+1059104184+1054919395+1049217454+1045891093
1291+1047188170+1049371544+1046603804+1038294962+1028925176+1021845739
1283+1016701171+1011689696+1006028809+1000194336+995083759+991300503+988672419
1273+986536347+984928279+984504251+984501189+982751154+978283430+972210137
1263+965843411+959397079+952647691+945917174+940201174+936336436+933798519
1253+930640557+925110139+917408658+909485727+902730653+896457406+889123652
1243+880571241+872247715+865442340+860248408+855917215+851312460+845558531
1233+839072270+833270852+829086563+826647248+825998460+826869572+828011310
1223+827990627+826616880+824955574+824265483+825120974+827030660+828999271
1213+830844160+833563160+837943092+843258746+847882997+850991596+853034439
1203+854980242+857919443+862599805+868356171+873158568+875833392+877564244
1193+879972254+882649639+884100931+884438228+885330523+887590504+890363555
1183+892968894+896427163+902231393+910265798+919120765+928087393+937119757
1173+945430661+951973158+956854913+960967343+964729229+967962050+970425671
1163+972590424+975799625+980640013+985642052+988900617+990027108+989560278
1153+988376237+987972642+989365822+991891680+993833172+993433263+990166264
1143+986426247+986199674+990331101+995182174+997984156+1000539632+1004665309
1133+1008166443+1008365397+1006443401+1005639273+1007733480+1012609235
1124+1018984896+1023987997+1024587547+1021748324+1019923306+1021293991
1115+1023316714+1022492028+1018402592+1013183853+1008854847+1006530131
1107+1006522133+1007683054+1008402389+1008653519+1009799255+1012353169
1098+1015127532+1017509672+1020213989+1023348707+1026585339+1029432872
1090+1030198634+1026459930+1018666594+1011179439+1007445546+1006965781
1081+1007557520+1008412511+1009769825+1009905981+1006068862+998858643+992607828
1071+990157203+989466112+986244477+978820431+969507632+961943682+958484351
1061+959450504+963014936+965203745+963211703+959026414+957278003+959816420
1051+963570433+964800775+963865678+963188396+963449336+964510155+967261773
1041+972070794+976761279+978096722+975318235+970710668+967167732+965953886
1031+966728770+968765990+970954737+971631332+969818123+966258253+962959261
1021+962096084+964763597+970000019+975084039+977284846+975775068+971932075
1011+967892940+964279520+959736001+953383210+946421246+940546532+935666278
1001+930262144+923535688+915956179+908184026+900622012+893972227+888736741
991+884487529+880578927+876900272+873762680+871251881+869089190+866864576
981+863890259+859727652+855051788+851307711+849181574+847633304+844879187
971+840420773+835633185+832121929+829934743+827704443+824571662+821425572
961+819546816+818777805+818200750+818012793+819297061+822416845+826888693
951+832254711+838068938+843537307+848011155+851926194+856602058+862443904
941+868345111+873485368+878383868+883788253+889972083+897111193+904985323
931+912713673+919707942+925911205+930687734+932950651+932388593+929506505
921+924924369+919672075+915644313+914354296+915554271+917938411+920293370
911+921226468+919530608+915853640+912589952+911409223+912238845+914547377
901+917329176+919030848+919699507+921241215+924819831+929604920+934023343
891+937028590+938772877+940719430+943746547+946577960+947538864+947241682
881+947592789+948862060+949477169+948663981+948227331+949999112+952752105
871+953873035+953016481+951579686+950160262+948923359+948734027+950232121
861+952816340+954770954+954398352+952069324+950137205+950317601+952535342
851+955826836+959257986+962030662+963640979+964606945+966125721+968281039
841+969111286+966983149+963836684+963993898+969541062+978096785+984998200
831+986816720+983846090+979974979+978954151+981060792+983936257+987048854
821+993204816+1003595680+1014786548+1021226319+1020540851+1016831391+1016003268
811+1020096828+1027368534+1034094427+1036478254+1033249371+1027308610
803+1022491466+1018839555+1015000249+1011837850+1010235218+1008903461
794+1006496326+1003216517+999309164+994803574+990313355+986707933+984826240
784+984132649+981645408+974568095+964197164+954677288+948613930+945556382
774+943308211+940166120+936644241+935599418+939096803+945549321+951728027
764+957371544+964887131+973752158+978689461+976602816+971568659+969669095
754+972902353+978239127+980169184+975200762+965992502+959582161+960759328
744+968365832+976860506+981654968+984441578+989469674+996050287+1000196335
734+1000533820+998265279+995054329+992540343+992020713+993592164+995177613
724+993345846+986354639+977524916+972432711+973005017+977603586+983933195
714+989205797+989825217+985134794+980398944+980556283+983470738+983373636
704+978392655+971308656+964857950+959998441+958161300+960876614+966440586
694+970164294+968450625+961041201+951662792+947035542+951146536+961600198
684+974600338+988165910+997732464+996615533+983117320+963428091+946287339
674+936764651+933425292+930914244+926867611+925915454+933086620+942520641
664+947985262+949792972+948030501+942669545+937563405+936955919+940437995
654+945668544+952096693+957596992+957937539+954296687+952546214+952887698
644+948104359+933862192+918256713+911416721+915558208+930760154+952922253
634+968310532+963644603+946037146+932831054+929824119+930345125+923601298
624+906057702+884602878+869411741+866332448+871942910+877046176+878164544
614+879095330+882538664+885992934+884152794+876899397+871613861+874340172
604+883127529+890569633+890580130+883863360
##END=
