##TITLE=<SNM>
##JCAMP-DX=4.24
##DATA TYPE=INFRARED SPECTRUM
##DATE=29/4/2025
##SAMPLING PROCEDURE=Instrument type and / or accessory
##ORIGIN=Admin
##XUNITS=1/CM
##YUNITS=ABSORBANCE
##RESOLUTION=4
##FIRSTX=4497.3318
##LASTX=599.83466
##DELTAX=-1.4281778
##MAXY=2.2048619
##MINY=0.65414786
##XFACTOR=1
##YFACTOR=2.0534376e-09
##NPOINTS=2730
##FIRSTY=0.67189199
##XYDATA=(X++(Y..Y))
4497+327203502+327527556+327365239+326471301+325729610+325981620+326618670
4487+326568889+325915671+325557278+325895643+326416296+326433247+325981707
4477+325525900+325152964+324635069+323977496+323516116+323583284+324233483
4467+325248346+326371362+327405325+327862525+327027948+324931287+322911256
4457+322751551+324937527+327646102+328151806+325896833+323112412+321957292
4447+322523778+323708679+324484565+324224920+323082398+321997436+321681944
4437+322128027+323150930+324438993+325337952+325573765+325708101+326160106
4427+326606827+326829521+326968182+326789261+325844875+324380562+323307530
4417+323317254+324290782+325442042+326081385+326234849+326163182+325686011
4407+324695938+323708476+323269853+323326165+323610569+324147071+324977642
4397+325766154+325792220+324540528+322604676+321471906+321853318+322723337
4387+322661104+321623803+320651523+320537274+321462821+323192148+325079759
4377+326397864+327046844+327553796+328000518+327642676+326287562+325079700
4367+324842320+324725429+323651671+321959004+320590015+319789283+319263579
4357+318810878+318562322+319000074+320428133+322413854+324240130+325566624
4347+326057061+325273773+323666823+322633789+323069481+324472664+325534260
4337+325226837+323580468+321645980+320425143+319948843+319823215+320183002
4327+321391502+323102485+324338096+324516843+323880024+322844611+321563137
4317+320317396+319700751+319959728+320547810+320847076+321047129+321854943
4307+323413390+324843974+325091485+324070672+322564706+321232145+320398003
4297+320304856+320780286+321174991+321266048+321734105+323084952+324649843
4287+325304397+324830419+323794541+322510106+321173337+320527898+321157169
4277+322332085+322612513+321586794+320354898+320282390+321568391+323006290
4267+323281318+322497886+322018887+322851142+324459573+325286516+324449878
4257+322718780+321623687+321960688+323344858+324651672+324917005+324183789
4247+323315280+322997408+323370837+324187476+324891549+324927426+323995203
4237+322162714+320103207+318827307+318611290+318780110+319062975+320074935
4227+321925159+323701829+324723107+324970879+324626883+324235051+324386803
4217+324744819+324496988+323778750+323255369+322655647+321273015+319595413
4207+319084832+320480642+323064430+325368023+326227680+325499660+324115722
4197+323161815+322765107+322283930+321581221+321358150+322098797+323360678
4187+324289476+324544969+324476234+324385961+324098451+323479658+322899820
4177+322859473+323350199+323872536+324046319+324000021+324215225+325074040
4167+326449038+327698814+328147887+327564043+326188407+324533446+323135053
4157+322139725+321251999+320334899+319699271+319645107+320218531+321423461
4147+323009860+324216416+324420416+323833204+323129479+322742262+322730158
4137+322995927+323474027+324156243+324971663+325721308+326174387+326142370
4127+325608655+324959936+324735530+324879300+324747518+324156359+323797734
4117+324338009+325482331+326315283+326347473+325734051+324695270+323433041
4107+322488772+322301288+322524388+322475274+322054764+321723946+321678896
4097+321646386+321553297+321713090+322149739+322427322+322368224+322205761
4087+321979787+321620610+321508364+322085880+323089219+323912476+324494405
4077+325098916+325396760+324687897+323210087+322279750+322640930+323388108
4067+323140248+321802608+320495591+320226513+321081003+322306251+323056767
4057+323189129+323201582+323584068+324387557+325150236+325256154+324617972
4047+323869372+323634545+323884582+324177171+324259346+324297632+324401461
4037+324071195+322776949+321122105+320493820+321359979+322693846+323250115
4027+322835932+322241493+322362767+323389646+324635359+325170728+324705981
4017+323886468+323619161+324080396+324596347+324497249+323690741+322463112
4007+321372751+321207182+322358296+324365265+326327213+327422799+327134040
3997+325627697+323796456+322427409+321621858+321194672+321008465+320839152
3987+320646501+321053456+322778023+325287126+326731062+326020690+324387673
3977+323665023+323880373+323914653+323602151+323618871+324047219+324457860
3967+324774861+325062081+325090963+324787749+324527060+324644705+325158073
3957+325932739+326647378+326777708+326150846+325430228+325428370+325936251
3947+325953783+325295050+325016161+325877066+327078019+327017150+325159872
3937+322693236+321390893+322006986+323803655+325594432+326887371+327801366
3927+328419549+328678990+328634811+328581982+328941450+329947517+331273170
3917+332032074+331443586+329612897+327539457+326243993+325912914+326117610
3907+326843163+328625987+331441554+334174423+335762826+336003138+334833273
3897+332250297+329161647+327197087+327365326+328727029+328999823+327718233
3887+326782265+327403206+328480273+328838521+329177176+329758611+329395080
3878+328066148+327348026+327861741+328781629+329880843+331653304+333322053
3868+333773796+333610985+333622334+333121623+331448404+329476587+328367881
3858+328668424+331044729+336077476+341298229+341623822+337430994+332768367
3848+329709237+328363672+328318245+329478996+331798206+334677254+337046157
3838+337998815+337773539+337722916+338497060+338889763+337257733+334012222
3828+331262168+330271833+330861686+332794985+335642597+337368557+336609943
3818+335021105+334228907+333866043+333166556+332390003+332293199+333581929
3808+336123222+338177417+338674587+339162237+340810638+341865325+340831972
3798+339229289+338310853+337278081+335665760+334627938+335118171+336778704
3788+338986161+341628989+344379246+346604408+348502904+350915579+353751000
3778+355928298+357111516+358231978+360472234+364430439+369589104+374452451
3768+378046632+380553818+382064632+382498002+382666880+383775644+385935090
3758+388105566+389784706+391763983+395291982+400947963+407362587+412085822
3748+414999528+418086263+422612899+427495955+430916962+433221165+436109966
3738+440984169+447786561+454254014+457771245+457823116+455957275+454584629
3728+455537171+458679753+461966686+463803412+464281425+463575552+461739638
3718+460033387+460121048+462415788+466185639+470126689+472215774+470929511
3708+467147063+463616741+462668234+464240758+466125843+466939899+467922803
3698+470477564+473932562+476491735+477570747+478568165+480876924+483286929
3688+483105889+480525904+478239321+477768942+478680527+479992885+481773706
3678+485143597+489812319+492639236+492196868+490996901+490433840+488815889
3668+485347075+482097616+480477835+479724010+478624622+477324571+477072416
3658+478284225+479822992+481147628+483662913+488079654+492330681+493204503
3648+490333640+486052135+482098835+479337287+477838345+476924060+476685344
3638+478264516+481419144+483570782+483072712+481887346+482774607+485043919
3628+485545356+484127573+482989782+483022379+484235785+486860994+490488991
3618+493583302+495226855+495754097+495773487+495801992+495924601+495578544
3608+494404237+493103606+493088628+495644086+500887829+506754892+510279727
3598+510594261+508965222+506546712+504163673+503303668+505327530+509746564
3588+513774143+514724654+513317146+512232880+512707410+513906796+514167746
3578+512866709+511295722+511138049+512234099+512976256+512913500+513383443
3568+515058461+516498189+516592758+516239212+515933038+514858931+513076224
3558+511879160+511699368+511842528+511917650+511842528+511513365+511649094
3548+513209921+515444749+516393170+515320631+512836172+509709874+507051313
3538+506004492+506294005+506519194+506443899+507382624+509926878+512685001
3528+513789527+512850105+510906067+509231687+508466890+508273049+507802003
3518+506674778+505193949+503814249+503015142+503296701+504535796+505552545
3508+505126839+503553646+502437045+502885915+504293422+505212177+505020601
3498+504094531+503333914+503734715+505327239+506776139+506988673+506398211
3488+505791958+504979731+503495999+501679040+500251214+499273650+498194668
3478+496917548+496150022+496360931+496916968+496824198+495958678+495031912
3468+494490795+493979111+493169032+492513666+492663212+493663126+495109703
3458+496605917+497622028+497467083+496024569+494153620+492832206+492048599
3448+490966598+489298197+487859573+487281534+487121481+486734322+486076024
3438+485224175+484013324+482506429+481166553+480348405+480043798+480141299
3428+480445006+480543378+480038602+478870711+477189481+475183528+473424942
3418+472817702+473823160+476189102+479188467+481684275+482519229+481605496
3408+480213866+479449272+479158743+478737100+478352496+478775677+480080111
3398+481105307+480586018+478724474+477121355+476951955+477780756+478420360
3388+478575567+479105827+480538617+482039940+482511015+481988243+481316331
3378+481185566+481844589+482994630+483922557+484334882+484838526+486090421
3368+487858470+489388645+490201394+490242670+489888544+489821376+490325803
3358+490949820+491124968+490742453+490229260+490398892+491872813+494389840
3348+497068487+499176295+499983935+498611840+495249612+491798911+490161685
3338+490398428+491036030+490838822+490018351+489705327+490513141+491904917
3328+492863787+492979081+492772527+492955337+493309986+492838824+491445713
3318+490451140+490709479+491396600+491438805+490878066+490176663+489443970
3308+488801549+488466987+488230419+487797340+487585038+488212887+489508816
3298+490676852+491248041+491388473+491302669+490719057+489236312+487257326
3288+486183655+487232479+490239071+493956586+497197598+499232026+499710793
3278+499034238+498258701+497851165+497120097+495465339+493331930+491540805
3268+490685909+491128393+492462811+493386965+493221396+492834296+493061865
3258+493392248+493194111+492917196+493129846+493520895+493490184+493018325
3248+492551691+492344208+492146477+491544288+490578916+489903812+489982068
3238+490269955+489832812+488671858+487675079+487352417+487465680+487783871
3228+488277384+488542224+487856728+486104760+484232969+483473687+484169749
3218+485473167+486186064+485728689+484312212+482572435+481157352+480406720
3208+480399231+481193548+482561870+483568866+483137296+481229280+478979996
3198+477615100+477484654+478046031+478590748+478925020+479186144+479077991
3188+477953262+475742555+473196704+471125761+469880281+469534079+469997317
3178+470809573+471231419+470813636+469668589+468288889+467217830+466529431
3168+465739207+464625856+463712384+463322090+462861668+461681091+460093008
3158+459100264+459362492+460554882+461577466+461506031+460358893+458773974
3148+457401937+456790576+457037477+457421937+457159041+456392009+455682189
3138+454905549+453609068+452069431+451047544+450833036+451126235+451392498
3128+451059474+449930739+448632662+448131777+448607874+449187973+448871901
3118+447464887+445728796+444809664+445233193+446353249+447067859+446906615
3108+446037380+444744876+443529293+443067623+443357774+443406307+442471297
3098+441177980+440668241+441047679+441361720+440939526+440146282+439757701
3088+439982687+440190461+439625281+438401513+437494920+437648239+438606355
3078+439498695+439678081+439134700+438317799+437637819+437166830+436843530
3068+436702576+436706292+436669950+436554743+436514047+436514976+436229237
3058+435391408+434077744+432699844+431874120+432039891+432858765+433248450
3048+432455787+430969617+430011821+430195125+430878270+430941983+430205836
3038+429646345+429990225+430723267+430855484+430138000+429124269+428357150
3028+427799923+427048421+426074079+425410731+425388728+425667037+425749038
3018+425515546+425087314+424581088+424191258+424198631+424603584+424823200
3008+424212593+422975356+421953585+421498039+421182954+420577398+419755940
2998+419135174+419056163+419328550+419268784+418517310+417539602+416950446
2988+416713413+416365005+415759739+415202396+414917440+414820230+414891403
2978+415300419+415979036+416495799+416491010+415961591+415162978+414443462
2968+414015579+413752132+413368979+412792797+412176008+411618810+411070698
2958+410529697+410182334+410204771+410464387+410605863+410449699+410198647
2948+410203262+410478871+410585457+410168981+409423690+408767860+408328511
2938+407995428+407716307+407527981+407455589+407473760+407519215+407541943
2928+407483803+407208629+406633667+405900219+405219425+404661531+404233183
2918+403955397+403697842+403155303+402250684+401441505+401276198+401695954
2908+402146304+402316081+402353903+402374715+402210337+401726170+401087320
2898+400632007+400580020+400890490+401347952+401693951+401704052+401360578
2888+400991822+400997338+401360782+401650759+401570152+401237273+400800217
2878+400131179+399230479+398555229+398463969+398663528+398677490+398544112
2868+398609422+398883667+398922301+398310156+397248154+396524488+396639695
2858+397127257+397136459+396510439+395795974+395396914+395289951+395432327
2848+395843026+396227428+396084703+395352445+394500713+393908567+393561378
2838+393360803+393283737+393233782+393118836+393017358+392982758+392854083
2828+392476474+391909291+391294823+390738758+390360074+390230499+390234447
2818+390125393+389741282+389166233+388754082+388885167+389498821+390002145
2808+389925021+389500650+389271019+389348927+389440100+389373716+389222893
2798+389041824+388795996+388477747+388106582+387660121+387069107+386284572
2788+385431650+384878341+384932767+385431388+385856601+385883916+385553330
2778+384954943+384152672+383384044+382929688+382768502+382637301+382404797
2768+382151335+381925884+381645834+381226920+380648097+379921006+379155686
2758+378614482+378542786+378928059+379482208+379824666+379682377+379075863
2748+378382152+378029941+378059520+378156876+378120505+378035776+377961990
2738+377761560+377355011+376901410+376622027+376607833+376832994+377169850
2728+377334692+377025906+376251327+375393209+374854907+374732995+374836707
2718+374888317+374722952+374400145+374068688+373696420+373158845+372632880
2708+372478515+372654882+372733457+372555407+372379128+372340493+372285255
2698+372159076+372072982+371989676+371776793+371488296+371214400+370834294
2688+370262612+369694239+369318401+369070396+368866773+368777603+368817834
2678+368852347+368812000+368800767+368892520+368970805+368867238+368560251
2668+368140088+367681117+367275788+367067521+367076751+367103049+366964359
2658+366726340+366556969+366450934+366245279+365890340+365570291+365475664
2648+365552614+365606865+365578506+365553165+365553165+365478421+365260024
2638+364963951+364682566+364374911+363962934+363586283+363527185+363828076
2628+364212158+364446201+364579492+364761402+364977274+365058201+364941310
2618+364817772+364896435+365093265+365147110+364965402+364639577+364235554
2608+363806306+363493746+363422833+363561001+363766481+363894315+363866972
2598+363744218+363678472+363738644+363847640+363869787+363665990+363183769
2588+362603582+362215001+362092856+362133494+362355113+362828801+363379874
2578+363703377+363733478+363668661+363709386+363897247+364127690+364244697
2568+364160171+363893967+363529739+363187339+362980059+362939886+363025776
2558+363172884+363268643+363184872+362908479+362528083+362096020+361644683
2548+361280136+361111403+361156975+361385532+361737685+362092276+362320890
2538+362376448+362297205+362179182+362126614+362151229+362155815+362070854
2528+361969144+361997039+362180604+362329221+362244057+362039650+362016487
2518+362188586+362263940+362097036+361850105+361723258+361755797+361843284
2508+361853530+361793358+361790426+361846303+361854953+361901454+362178543
2498+362600853+362874721+362921309+362901658+362907957+362902761+362865984
2488+362814781+362768367+362793243+362964994+363196628+363252533+363057851
2478+362862965+362956634+363307800+363615223+363652406+363457201+363197702
2468+362947056+362646890+362264956+361920205+361820063+362077472+362570433
2458+362986590+363062669+362796900+362420307+362196220+362202955+362243824
2448+362072044+361739862+361546195+361659806+362026849+362541320+363033410
2438+363232244+362990915+362452091+361922295+361702824+361929813+362409016
2428+362745697+362745639+362538243+362326493+362231372+362321877+362599896
2418+362981888+363370672+363708921+363968420+364146790+364274043+364409772
2408+364630608+364969524+365360428+365705120+365980817+366214656+366382257
2398+366432502+366435027+366624456+367223946+368327050+370137391+373213879
2388+378210517+385483607+395234509+407802226+423374213+441584384+461820681
2378+483698819+506761394+530041843+552578453+574052742+594247821+612413058
2368+627883161+640599901+649996038+654337049+652642873+645871219+635289049
2358+621193770+603731212+583500488+561135949+538725722+520690756+511075990
2348+511522770+521210625+536413392+551453782+562973227+571015614+575913705
2338+577967407+578245541+577892576+577906973+579138753+581366557+583057075
2328+582860854+580526464+576110913+569635507+561816220+554040473+547100000
2318+540583434+533814568+526747654+519619727+512377608+504858457+497069416
2308+489024707+480716551+472392605+464537238+457457785+451002872+444792103
2298+438684959+432893627+427699404+423186990+419156073+415254992+411394143
2288+407952527+405285722+403249437+401545624+400157680+399053793+397906742
2278+396530032+395238718+394440598+394102814+393819106+393278048+392534846
2268+391857072+391422657+391187685+390945515+390524569+390000839+389605582
2258+389366721+389042085+388478357+387834311+387392030+387275662+387377807
2248+387521780+387630543+387687609+387655738+387534087+387341581+387023013
2238+386598525+386327822+386436991+386776924+386974915+386828388+386434989
2228+386015146+385670279+385348401+385050499+384887630+384815150+384545056
2218+383928586+383241697+382854480+382712190+382415711+381859558+381463575
2208+381589638+382026491+382281433+382175456+381954127+381955434+382296846
2198+382807892+383214469+383405320+383514316+383755325+384201408+384717823
2188+385102109+385272786+385317749+385408544+385699247+386260247+387036162
2178+387822555+388339492+388463030+388379520+388389331+388605378+388928387
2168+389187567+389253342+389182952+389230237+389534176+389928534+390240890
2158+390564365+391021943+391457228+391594931+391430610+391251602+391245216
2148+391287015+391230703+391187192+391336302+391663869+392045426+392407390
2138+392700357+392884909+393027431+393290877+393744566+394255001+394679024
2128+395084673+395626545+396310270+397093151+398047783+399145953+400089438
2118+400646955+400959429+401307169+401777809+402266271+402646087+402892175
2108+403086887+403291787+403460142+403573434+403765881+404151589+404601823
2098+404835604+404705013+404340669+404057832+404136582+404610937+405209788
2088+405542029+405432423+405111910+405020214+405389232+406052377+406630097
2078+406853893+406767829+406678281+406854270+407255739+407656077+407994354
2068+408407231+408941207+409472891+409902371+410194931+410292229+410258268
2058+410426391+411080567+412023211+412778545+413212147+413614661+414170320
2048+414718868+415114097+415495508+416085448+416900752+417757680+418513246
2038+419262834+420229454+421432758+422609938+423526778+424201098+424782679
2028+425425854+426299995+427499409+428938759+430503041+432210714+434026744
2018+435656423+436798307+437538373+438269122+439304071+440719648+442402126
2008+444089452+445549991+446867255+448356008+450116510+451923630+453628778
1998+455350123+457139187+458802682+460234107+461603619+463004334+464221369
1988+465122853+465990143+467157919+468537909+469814854+470965649+472229417
1978+473664906+475143384+476753441+478775213+481191778+483626223+485846132
1968+487931675+489878965+491500284+492877720+494454221+496476399+498735784
1958+501035633+503534779+506374293+509260308+511711792+513634002+515469132
1948+517764917+520672759+523902219+527012204+529567314+531286105+532413968
1938+533755759+536015725+539108526+542239469+544691882+546471513+548182408
1928+550392622+553183719+556165987+558776712+560747106+562477101+564694804
1918+567539543+570236651+572046122+573200458+574472120+576193930+577994286
1908+579395175+580386787+581253178+582147725+583124650+584321191+585831860
1898+587541304+589170169+590415940+591249879+592108490+593316991+594396670
1888+594692395+594537798+594805367+595666591+596591848+597207215+597569643
1878+597852364+598176709+598669583+599570980+601154797+603280252+605017388
1868+605208848+603726394+601551709+599662357+598463958+597871928+597511067
1858+597001299+596288518+595693760+595530223+595690393+595704035+595239723
1848+594540469+594175776+594120742+593407380+591444881+589023410+587162737
1838+586099196+585486673+585015163+584772441+584964192+585246622+584676827
1828+582874033+580598102+578615342+576892894+575109606+573310179+571751964
1818+570490345+569401435+568483783+567864468+567536292+567311102+566993201
1808+566492838+565913812+565635503+566071776+567171774+568324542+569002898
1798+569394875+570112707+571480042+573174508+574261909+574002119+572905836
1788+572117063+572130183+572690400+573568459+575002846+577150420+579530208
1778+581481619+583036176+584969300+587920045+591233798+593236412+593432575
1768+592768849+592139665+592200912+593490803+595679304+597457948+598258913
1758+598839970+599631124+600485498+602045222+605513165+610610903+614799465
1748+616100328+615370943+614454452+614387459+615481651+617533611+619754217
1738+621705976+624257835+628272991+632226842+633149370+631307332+629246664
1728+628597916+629712776+631810656+633471974+634135351+635020145+637809094
1718+642416396+646048225+646383310+644710033+643394714+643612995+645552157
1708+648800078+652192319+654307673+655387179+657533708+661772370+665465851
1698+665575920+663284199+661001709+659746708+659760815+661021389+663127745
1688+665880469+669968366+675537092+679676773+679332167+676365806+673992288
1678+673952986+676725448+680983441+684333362+686420096+688726040+691164172
1668+691795504+690715418+690378882+691863775+693424718+693060490+691697451
1658+691639050+694164958+699755687+707606555+713098476+713688881+713661189
1648+715484418+717128436+715640524+712242187+709983150+710046893+712392545
1638+716840664+722465238+726276452+726229138+724869641+725305391+728178576
1628+732506698+737488387+743285321+749632952+754892485+758162291+760980325
1618+765452537+771788498+777923362+782418795+785449247+786896695+786340601
1608+784183332+781668859+780316735+781267477+784190704+787027316+788124759
1598+788277034+789284263+791415872+793817720+796712269+801025704+805952996
1588+809249217+810208204+810076248+809582619+808532372+807663311+808788621
1578+812863862+818298891+821348907+820734584+819283537+819881198+823447019
1568+828678222+833565110+837336789+840438182+844433484+851776093+862760459
1558+870109744+868048264+862322387+858145726+856705128+857623302+859687570
1548+861398581+862138763+862451556+863072496+864379629+865999787+866389733
1538+865092991+863510917+862080129+860013888+857029473+853836239+850958700
1528+848864245+848647299+851272015+856683532+863798572+870189278+873497458
1518+873904065+872834545+871617278+871760090+874151373+878116544+882208099
1508+885627799+887583913+887011795+885384555+885463566+888243691+892586153
1498+896320271+898400387+900007018+902754053+906979072+911583704+914534971
1488+915109004+915284500+916958357+919718338+921974820+923138793+924135920
1478+925530308+926425087+926597622+928064286+931659076+934146496+933138977
1468+930720815+929823830+930828795+931440040+930104055+928485813+929435568
1458+933866910+938030160+936719892+930847895+924257949+919413266+917372395
1448+917547716+918196871+918612418+919472539+920445980+919982423+917928373
1438+916073505+915687739+915768608+914931128+913714210+913167636+913613429
1428+915292279+918567833+923231911+928236763+932299871+934476704+934014366
1418+931082837+927541862+924655732+921884082+918734388+915732847+913512590
1408+912582108+913988397+918579734+924900717+929463724+930411332+929129104
1398+927822203+926662816+924275307+920941990+919257044+921128400+925911081
1388+930846617+933267217+933697568+934845344+937486083+940163163+942206821
1378+944540398+947517151+949968751+950607340+949708265+949173882+950753345
1368+954567403+959208376+963054538+965434094+966593829+966993934+966725726
1358+966037328+966110185+967724886+969665673+970445680+970802651+972221886
1348+974656999+977559443+980865010+984301547+987766761+991823774+996227598
1338+999240576+1000510439+1002673513+1007883352+1014386624+1018769897
1330+1020907312+1023139121+1025932076+1027693420+1027166643+1025211516
1321+1024527297+1027400134+1033786834+1040739905+1045630217+1049160568
1312+1052541721+1054975209+1056073465+1057556385+1060406697+1062723961
1304+1062154920+1060099245+1061341242+1067696245+1073741823+1072136295
1295+1063909414+1057180430+1056235086+1057663668+1056281413+1052047338
1287+1048489237+1046578928+1044234959+1040819322+1038286911+1037414367
1278+1036546234+1034944421+1034161512+1034604576+1033915016+1030523065
1270+1026198310+1023232123+1021250989+1018073023+1012722113+1006411695
1261+1001011557+997500247+995722184+994580503+992616785+990121645+989082486
1251+989261872+986950064+980087093+971621844+964896576+959674778+954101175
1241+947336546+939746571+931938662+923943125+915247984+906001567+897529294
1231+890738367+885099106+879641668+873886300+867912999+862344215+857921523
1221+854609802+851781841+849347308+847506373+845864503+844314648+844023510
1211+845983803+849234394+851651336+852032284+850832840+849662771+850138055
1201+852574852+856062882+859943818+864664208+870750713+877600623+883398776
1191+886295763+886297969+885826691+887876967+893262476+899543345+903196189
1181+903706421+904370147+908068737+913802219+918265316+920119603+921316435
1171+924906116+932022840+940871416+948981667+955324131+960549470+965420509
1161+969742013+973047871+975394627+977911828+981438231+984287962+983449669
1151+978999751+974973623+974798533+978046280+981940858+984545371+985364971
1141+985033369+985516839+988544911+993470752+997535312+998763840+997785987
1131+996884067+998400425+1003211785+1009527892+1013779152+1013996620+1012257105
1121+1012826726+1018022748+1025902469+1031889993+1031653483+1025690109
1113+1019792452+1018538031+1022579718+1028847292+1032251318+1031522282
1104+1030936174+1033305338+1036124185+1036154605+1033806688+1030846423
1095+1027867813+1025321237+1023654637+1023505439+1026722185+1033407745
1087+1037557527+1032460776+1021774747+1014419366+1011732649+1008660108
1078+1004416976+1004304469+1010426329+1017329241+1018772916+1015196471
1070+1011046108+1009083202+1009594189+1010856389+1010724492+1008069704
1061+1003116577+997808744+994433280+993187916+992825429+993751847+997169923
1051+1001095502+1000724772+995753649+992358563+994098427+997789238+997607762
1041+992396298+987224425+986539278+989138102+990186316+987043531+982229384
1031+980276464+983029594+988521109+993444977+995781050+995131780+992124259
1021+988579046+986901648+988448078+992632227+996789208+997156106+991993174
1011+984104513+978973162+979195507+981551783+980703738+974717607+965584568
1001+955777703+946584869+938812315+932962262+928541602+924419570+920025441
991+915777258+912438194+910496419+909672756+908474125+904850250+898468252
981+891998129+888277130+886966630+885723239+883770377+882240667+881257937
971+878955244+874321121+868915003+864549552+861518462+859440436+858141024
961+857318231+856433147+855231497+853626433+852054983+852265833+855670382
951+860647543+863782665+864515010+865726413+869373800+874511188+879705063
941+885002679+890475965+894699243+896412286+896987539+899536843+905500333
931+913012923+918784256+921826725+924712798+930295399+937684045+942824743
921+943789128+942640597+941291956+939473603+937419902+936724188+937261009
911+937232795+936369307+936188586+937500654+939441383+940348005+938740039
901+934929464+931785111+932259930+936673624+942828052+948168163+951373008
891+952540522+952412688+951281632+949344618+947161167+944858474+942340170
881+941289924+943797952+948471841+951626760+952124801+951933340+952450655
871+953756221+956489787+961257665+967022438+971976784+974831972+974724921
861+971802275+968084179+966182055+967151433+970798297+977108599+985245149
851+991666681+992428459+987832478+981323981+975255066+970539146+969198574
841+972082151+976652182+980251268+981359394+980217830+979234055+980112753
831+982669430+985883970+988914828+992399316+997654437+1003720450+1007590182
821+1008327926+1008563507+1010394748+1013313563+1016703540+1020993347
813+1025818408+1029827584+1032331897+1031581265+1023359028+1009606265+999610609
803+999403126+1007147350+1017090641+1025515368+1031677982+1036733515+1042011625
793+1046107998+1045685949+1039947474+1030321968+1017687663+1003813220+993100603
783+988574286+987485898+984491730+978780657+973257677+968828077+963846504
773+957945131+954414200+957280883+966914400+978988488+988007916+991669700
763+990266894+984020451+974212889+965669733+964814604+974504899+990929633
753+1004663472+1008540750+1005094461+999999451+993385414+984872793+979531985
743+980605279+986051860+994828740+1007551750+1019838779+1021790074+1011796392
733+1001156110+997099678+995955791+992786301+988389676+985074239+984290516
723+988695850+999545705+1010519563+1010264011+997399002+982339338+975137798
713+980201342+995439928+1011372717+1016633760+1009427111+997977331+989235864
703+983303374+978650733+975897138+975433058+977519734+982963993+989722933
693+993267217+992836227+990618234+987170436+983358409+980728120+977713633
683+971076199+962311337+954741041+947382409+941848573+944078873+955324015
673+967621550+969312127+959182542+948494192+946089325+947131095+944825732
663+941745818+943466176+949437678+953702115+953339861+949470478+943720567
653+938291401+932966558+928379401+925894594+923482238+918328826+913628755
643+916117916+926379689+937258745+938505503+929958921+922749080+923321023
633+929278708+935948303+941896525+950259135+962031635+968110593+960773267
623+950351092+950910147+959818983+961637625+948393353+931198828+921165960
613+917739815+917607628+919225986+920301253+919700921+921451119+928422128
603+935309017+933023741+919595845
##END=
