##TITLE=<SNM>
##JCAMP-DX=4.24
##DATA TYPE=INFRARED SPECTRUM
##DATE=29/4/2025
##SAMPLING PROCEDURE=Instrument type and / or accessory
##ORIGIN=Admin
##XUNITS=1/CM
##YUNITS=ABSORBANCE
##RESOLUTION=4
##FIRSTX=4497.3318
##LASTX=599.83466
##DELTAX=-1.4281778
##MAXY=2.0650096
##MINY=0.42131096
##XFACTOR=1
##YFACTOR=1.9231901e-09
##NPOINTS=2730
##FIRSTY=0.44465545
##XYDATA=(X++(Y..Y))
4497+231207232+230444318+229100898+228070115+227878658+228218229+228192582
4487+227435526+226664322+226700490+227380576+227886716+227815883+227477831
4477+227302351+227374626+227652552+228253095+229020642+229154499+228090617
4467+226465288+225431545+225402133+225994061+226731127+227353256+227855274
4457+228463194+229182315+229430256+228648359+227276255+226536942+227056905
4447+228097590+228525009+228167416+227723959+227765613+228302823+229060654
4437+229814208+230404322+230566770+229981366+228643447+227138648+226309674
4427+226589335+227725741+229005239+229559340+228884058+227499138+226593364
4417+226626929+226850262+226507004+225733460+224981176+224413624+224110889
4407+224165916+224450149+224665579+224539904+223926235+223058349+222576523
4397+222756079+222955454+222436917+221431517+220840334+221192595+222386275
4387+223991707+225290436+225532922+224763500+223952470+223736901+223575290
4377+222787862+221779688+221433702+221894980+222658777+223392790+224131995
4367+224935617+225634531+225711563+224521494+222176533+220020967+219474877
4357+220488118+221793464+222577236+223125092+223898884+224807230+225423224
4347+225423425+224877955+224280573+224022250+223864265+223301068+222216777
4337+220848624+219594090+219068813+219606317+220595461+221130796+221214879
4327+221463827+221947590+222136986+221760643+221179176+221008515+221524201
4317+222357049+222851846+222689724+221987850+221156969+220885056+221651983
4307+223081997+224360798+225167349+225560722+225448855+224981130+224872811
4297+225533340+226376106+226584857+226133946+225573305+225218006+224999152
4287+224887517+225080089+225591250+225924281+225516883+224534527+223839115
4277+223998711+224650036+224991512+224680176+224058930+223666595+223722009
4267+224007312+224219611+224338824+224483776+224605686+224615681+224612814
4257+224708844+224906066+225314858+226028726+226726958+226913100+226486487
4247+225643643+224594807+223861801+224126928+225306273+226463986+226946866
4237+226937243+226677881+226036753+225190562+224771000+224939662+225090363
4227+224831962+224625009+224987049+225667352+226225684+226960596+228386053
4217+229928214+230232019+229004433+227497759+226855562+226985529+227222080
4207+227243605+227152998+227101612+226942450+226275071+225094501+224191501
4197+224409255+225666856+227078321+227831395+227722688+227050583+226285035
4187+225830621+225861443+226239026+226667654+227011424+227374440+227867625
4177+228445327+228940790+229171762+229117572+228942634+228694693+228180635
4167+227391424+226822152+226989031+227773655+228588063+229046583+229201995
4157+229304225+229599243+230168623+230727358+230823357+230447169+230041027
4147+229750177+229268413+228594556+228304450+228808049+229757894+230387819
4137+230295724+229823846+229627493+229909897+230292997+230394451+230158256
4127+229696064+229188049+228772841+228336837+227758717+227349940+227553019
4117+228306681+229156607+229783819+230140932+230340493+230540349+230684852
4107+230457490+229794682+229177775+229105438+229566096+230187498+230597809
4097+230578005+230179548+229768571+229730652+230062582+230413883+230546594
4087+230524837+230445015+230269954+229992973+229754237+229808335+230448502
4077+231699905+232905796+233090574+232122877+231018967+230746573+231195284
4067+231616194+231649418+231473319+231221829+230803259+230300171+230139878
4057+230613940+231347086+231589696+231187598+230907084+231446913+232428371
4047+232853636+232365394+231466330+230649644+230004657+229592006+229562625
4037+229923921+230560881+231386431+232285851+233104412+233748407+234099755
4027+233976854+233491277+233209462+233485590+233840455+233574709+232861616
4017+232560880+232952967+233422133+233479593+233374218+233551062+234052057
4007+234502085+234453101+233950587+233712487+234327163+235420860+236045640
3997+235721504+234785869+233949224+233704134+234014572+234518899+234980518
3987+235363230+235588670+235528854+235173230+234582030+233771140+232902511
3977+232509013+233131236+234567696+235845567+236261550+236087325+235968267
3967+236087666+236172322+235944465+235416444+234910382+234718258+234722256
3957+234604376+234399608+234456278+234824052+235101683+235079415+235132676
3947+235611651+236275078+236791942+237285344+237935584+238590519+239071741
3937+239248539+238822437+237742655+236687621+236492755+237155066+237907954
3927+238181557+237974123+237457864+236764482+236143499+235896550+236127709
3917+236734559+237433705+237749055+237407827+236733273+236220330+235899634
3907+235643635+235740131+236535292+237725020+238587684+238800572+238581268
3897+238249756+237934701+237697638+237793157+238428289+239104082+239112125
3887+238808475+239211688+240380202+241258269+241478301+241558385+241510936
3878+240972920+240175713+239538226+239256240+239881826+241824364+243753591
3868+243891957+242818095+242278033+242627351+242933031+242616256+241607230
3858+239986457+238546727+239049039+242287223+245451830+245940521+244592095
3848+242913924+241749346+241422777+241613645+241686385+241908447+243425023
3838+246191003+248260379+248418844+247466736+246427275+245447088+244464406
3828+243773597+243542950+243560600+243969222+245316082+247045872+247654892
3818+247318700+247631849+248907132+249803407+249630360+248993555+248772330
3808+249302055+249945291+250081813+250454964+251995497+253792215+254264883
3798+253706846+253362255+253677589+254331068+255062338+255895590+256851386
3788+257886399+259120152+260697907+262329109+263580094+264675744+266315841
3778+268629717+271130943+273784560+277242776+282045140+287761320+293102708
3768+297385357+301113115+304758836+308330608+312197182+317068008+322926879
3758+328885081+334481971+340191271+346688465+354497204+363531204+372099354
3748+378343493+382662683+387163427+393077774+399017164+403528786+406934097
3738+410255233+414334756+419147379+423438613+426006536+426966376+427175824
3728+427327750+427766915+428633561+429969806+431633303+433224772+434286795
3718+434532102+433992025+433220185+433161021+434515955+437207754+440492070
3708+443547816+446097421+448598090+451522148+454517489+456963300+458809250
3698+460016752+460572450+461149966+462459279+464549543+467422215+470970743
3688+473815894+474346611+472786568+470672656+469148689+468141150+467149357
3678+466476507+466870950+467834262+467998151+467480543+467301313+467843188
3668+468803989+469896819+471116284+472278135+472748695+472166158+471268365
3658+471514198+473577344+476399313+478574559+479971364+481019626+481272898
3648+480043453+478446559+478441662+480634481+483923973+486450923+487055124
3638+486173694+485254609+485554338+487769007+492068268+497607853+502206379
3628+504376821+505306165+506264828+507084861+507571600+508362500+509996491
3618+511963839+513520380+514698532+515815164+516992480+518594425+521057995
3608+523848816+525733538+526462297+526940141+527876241+529301033+531083975
3598+533063162+535111648+537466341+540281956+542932691+544740550+546264642
3588+548929447+552971377+556690922+558715730+559414675+559521723+559030367
3578+558006062+557037047+556452775+555947596+555421280+555239043+554922919
3568+552959414+549063955+545394556+544293451+546285779+550297026+554564520
3558+557543528+558935716+559924317+561682341+563778060+564852139+564703747
3548+564406094+564673622+565229939+565486372+565184256+564687259+564986957
3538+566526173+567852346+567027943+564601223+563095603+563454497+564085135
3528+563408442+561637774+560116719+560198912+562126713+564601099+566111306
3518+566473672+566436915+566365260+566184015+566238438+567122905+568413808
3508+568728755+567655295+566442431+566336994+567278239+568557180+569799115
3498+570721826+570699078+569416542+567903918+567969684+569963934+572006345
3488+572571402+572549769+573346589+574668485+575304143+574563420+572369021
3478+569400550+567214085+566868889+567503680+567419318+566584129+566602663
3468+568188616+570152864+570813812+569623201+567581967+566315734+566621382
3458+567972721+569123600+568879131+566679525+563382285+561313405+562143449
3448+564525539+565130267+562847600+560235421+559729312+560703409+561149144
3438+560423794+559269382+558334769+557723409+557302778+556942210+556775160
3428+557026262+557276806+556608854+554866946+553040801+552256254+552841704
3418+554263768+555674799+556424572+556347896+555689365+554406458+552290160
3408+550423910+550784354+553485730+555873461+555551448+553262336+551482493
3398+551674213+553793859+556899316+559224690+559080637+557107586+556339962
3388+558665522+562344095+564121954+563041862+560883104+559777164+560555636
3378+562426659+563778308+563969222+563715331+563404909+562872147+562931342
3368+564731392+567533432+569325796+569871762+570712962+572391645+573899311
3358+574159463+573550024+573755257+575566092+577504121+577437301+575198706
3348+572692831+571668154+572151949+572957446+573414773+574151467+575815397
3338+577861280+579343160+580097271+580505754+580859007+581377451+582100571
3328+582584365+582583373+582620874+582865654+582474713+581044467+579567174
3318+578886949+578439850+577635592+577190352+577948741+579316940+579758212
3308+578613098+577044253+576874910+578129428+578562828+576477027+573218961
3298+571636046+572739196+575038846+576692487+577478521+578275031+579208218
3288+579449588+578822112+578448156+579327353+581130688+582736539+583317340
3278+583027807+583071568+584561010+587087898+589012972+589020720+586864752
3268+583392156+580451827+579648375+580855846+582774721+584280713+584454830
3258+582773916+580500423+580277214+583075288+586672970+588124663+586974280
3248+585051375+583963225+583821217+583949403+584016037+584219472+584495430
3238+584096865+582515809+580197068+577742702+575523013+574590260+576303096
3228+580041299+582801189+582383409+579736270+577241986+576224313+576713996
3218+578255816+580057229+581059157+580716069+579509652+578261580+577184030
3208+576026890+575009032+574920269+575859778+576735567+576749266+576357085
3198+576074247+575571051+574632534+573805527+573446943+573147802+572575307
3188+572069074+572025065+572005354+571003053+568820431+566255422+563832421
3178+561607401+560179572+560387656+561812510+562854481+562483747+561065031
3168+559543356+558388572+557302034+555930736+554543631+553513685+552775070
3158+552403469+552792860+553712162+554204634+553600651+551842875+549238319
3148+546651306+545297053+545536812+546266378+546013230+544448662+542509332
3138+541360994+541598026+542984324+544501350+545032005+544381780+543232699
3128+542059133+540778086+539326579+537861435+536600036+535920245+536169301
3118+537005853+537586344+537643433+537554918+537405968+537012052+536530861
3108+535975102+534702980+532471947+530355959+529551391+529766418+529770633
3098+529194294+528706781+528648081+528642378+528435224+528186415+527956388
3088+527611441+527225459+527000515+526898673+526813877+526898797+527210892
3078+527360277+527009689+526305971+525489626+524533566+523464198+522510246
3068+521692537+520858217+520191318+520076274+520316838+520166834+519399675
3058+518544372+517828505+516881216+515713757+515032198+515319345+516202107
3048+516835100+516585950+515473750+514123527+513171341+512861818+513192013
3038+513901961+514335299+513978078+513121319+512383386+511764154+510655022
3028+508665638+506283734+504616084+504222695+504411068+504205835+503593824
3018+503122985+502895654+502624004+502191596+501782369+501594244+501426420
3008+500849368+500068231+499841179+500138553+500009965+499131852+498200215
2998+497630354+497188152+496880364+496981121+497250633+497081320+496322652
2988+495303554+494150134+492707924+491128790+489911370+489315754+489182734
2978+489233376+489223210+488963492+488457662+487965624+487791849+487917895
2968+487887988+487292000+486358844+485667864+485339932+485063509+484722652
2958+484468141+484356196+484211243+483776727+483069352+482597056+482769282
2948+483003586+482077713+479777567+477521089+476622583+476596487+476206074
2938+475632029+476012897+477241381+477920150+477303181+475975613+474876554
2928+474532040+474740496+474647580+473660373+472169692+470979483+470395180
2918+470043693+469320326+468103928+467077392+467043548+467948253+468743120
2908+468249439+466329324+464171247+463113315+463391505+464366625+465458401
2898+466327340+466676193+466442168+465818969+464840842+463394728+461713411
2888+460352402+459609231+459326857+459270265+459341331+459402727+459248136
2878+458839468+458366583+458037411+457879534+457716141+457352195+456755774
2868+455968779+455036553+454256996+454217140+455182807+456526243+457071960
2858+456222360+454633773+453535055+453494392+454092487+454526663+454152706
2848+452862825+451374127+450638208+450692910+450634210+449826388+448538677
2838+447339047+446473610+445936911+445712308+445727990+445787991+445743796
2828+445594598+445302492+444769420+444138473+443736282+443549954+443183963
2818+442474573+441716061+441152708+440651899+440016799+439345189+438895425
2808+438656565+438220220+437255142+436051607+435303879+435300470+435558762
2798+435326008+434294172+432811176+431528393+430858054+430735943+430901940
2788+431231639+431638231+431916017+431928042+431650256+430921899+429624146
2778+428155779+427174987+426821920+426646905+426277473+425738357+425204540
2768+424860399+424891267+425233952+425440704+425096655+424278389+423382331
2758+422638695+422001673+421389817+420838583+420410606+420054718+419613663
2748+418983800+418251693+417640767+417334374+417357154+417560434+417656388
2738+417342526+416570655+415688637+415107898+414815545+414427920+413713293
2728+412814818+411966613+411243369+410656618+410314769+410308478+410424421
2718+410183175+409370735+408379902+407774616+407628115+407505322+407052985
2708+406425509+406000446+405820658+405632068+405393983+405297874+405276645
2698+404990676+404367167+403756148+403491223+403510377+403437792+403024940
2688+402464439+402078488+401789792+401249808+400411489+399584483+399030522
2678+398808057+398809296+398732621+398306814+397664244+397176049+396952840
2668+396843467+396802526+396877683+396943015+396791989+396411895+395928163
2658+395409812+394852906+394203115+393425790+392715595+392446455+392712310
2648+393166785+393420552+393330209+392937254+392406878+391918434+391450105
2638+390852475+390152477+389571613+389277618+389240179+389237327+389050876
2628+388783596+388747241+388917856+388872142+388405858+387854345+387662718
2618+387874211+388097203+387876938+387101969+386055597+385122596+384552487
2608+384418289+384619028+384949905+385246659+385408131+385350453+385101614
2598+384824261+384587044+384285827+383910476+383660055+383665820+383775968
2588+383698207+383259941+382556874+381936991+381729093+381895089+382105436
2578+382182856+382200614+382146315+381895678+381541712+381310848+381151081
2568+380834182+380404656+380116084+380032992+380056423+380175899+380381101
2558+380517252+380498222+380467570+380549298+380669642+380760946+380863935
2548+380907479+380682039+380155940+379551584+379030103+378534036+377986428
2538+377469099+377189422+377333971+377867230+378457360+378778412+378889583
2528+379099093+379496975+379867585+380009128+379911656+379701310+379558093
2518+379545603+379490343+379269800+379123918+379329151+379721269+379898516
2508+379737943+379456158+379300792+379317342+379334419+379183330+378929842
2498+378762885+378723307+378723276+378728731+378738029+378669225+378438578
2488+378147527+378045840+378210225+378388711+378355270+378288140+378530100
2478+379080962+379551646+379558279+379087191+378535027+378356510+378632065
2468+379046374+379242774+379088989+378672263+378159397+377672875+377292101
2458+377110546+377185517+377443096+377700180+377784790+377685768+377620560
2448+377806609+378127723+378274566+378209915+378181216+378295858+378388928
2438+378316437+378173065+378174553+378396831+378695569+378881215+378887599
2428+378769517+378650630+378657665+378788113+378915926+378998491+379124414
2418+379302497+379396807+379349792+379303272+379414690+379659904+379898980
2408+380068541+380218514+380386308+380527014+380569815+380523016+380554195
2398+380896942+381567405+382270967+382685400+382725474+382547142+382443348
2388+382609345+382821923+382512307+381301457+379267909+376629913+373467460
2378+369893177+366285732+363127711+360557248+358244642+355880558+353609235
2368+351787367+350591487+350023206+349909743+349824017+349481146+349292835
2358+350127187+352435980+356027246+360729845+366363834+371722794+374749964
2348+374145175+370597515+366665144+364754729+364908545+365668391+366326735
2338+367136076+368251035+369355487+370131727+370698489+371444976+372481368
2328+373451498+373986152+374174897+374464336+375230039+376553671+378235298
2318+379864114+381028691+381633202+381948613+382324523+382969355+383957057
2308+385184953+386305304+386961758+387200277+387503881+388354255+389815959
2298+391512834+392934000+393806131+394268789+394693387+395301245+396007411
2288+396636189+397149085+397565688+397796489+397744856+397516130+397335661
2278+397289482+397293821+397256103+397151317+397010331+396894667+396827785
2268+396764064+396652832+396480389+396294279+396280456+396678618+397456842
2258+398242318+398739842+399046638+399461566+400174520+401148710+402133965
2248+402847352+403238727+403466956+403587145+403430819+402846546+401965520
2238+401178463+400815168+400838660+400921968+400802430+400450881+399977097
2228+399538304+399239598+399024230+398818997+398776320+399120710+399793404
2218+400550615+401371423+402445254+403775952+405101815+406255205+407396848
2208+408812248+410581244+412513384+414360666+416053048+417760957+419725701
2198+421972075+424213738+426130010+427705209+429207389+430877331+432704624
2188+434494539+436159771+437872297+439754849+441546345+442864088+443682603
2178+444296721+444972824+445772185+446496544+446821904+446660526+446203447
2168+445536734+444590345+443495066+442539131+441716743+440682551+439232686
2158+437537051+435783056+433881102+431701889+429331173+426910125+424477454
2148+422030434+419570707+417314973+415980990+416329285+418265919+420971386
2138+423910166+427060656+430288627+433265652+435980541+438805112+442013373
2128+445446360+448739137+451836475+455032152+458435882+461784632+464897187
2118+467944564+471195037+474759526+478587700+482540805+486484922+490392251
2108+494387134+498738463+503806403+509958029+517460344+526295433+536017314
2098+545858577+554969284+562670013+568693237+573116748+576015795+577357526
2088+577226552+575864427+573325266+569302985+563675165+557107277+550512735
2078+544122062+537816619+531940734+526941567+522699983+518871623+515355327
2068+512081208+508909643+505868681+503080339+500543534+498149046+495685538
2058+492851916+489531432+486038164+482950403+480636372+478933298+477438618
2048+476085203+475091766+474470830+474079207+474028534+474610668+475975923
2038+478169516+481321835+485686212+491575238+499168857+508280896+518415598
2028+529086626+539956472+550597345+560227363+568005388+573792448+578323875
2018+582386570+586089999+589039316+590928562+591775900+591651062+590335364
2008+587480575+583113285+577727640+571911694+566035065+560142195+554100623
1998+547934957+541864314+535982664+530276680+525000067+520577300+517116853
1988+514459796+512612917+511664605+511340857+511057306+510492683+509874659
1978+509630283+509933173+510638844+511453856+512118988+512702764+513735220
1968+515643868+518019141+520017636+521542905+523239378+525314952+527228000
1958+528690603+530260192+532589223+535512692+538239978+540397683+542483918
1948+545069878+547989070+550733030+553265249+555937554+558879433+561885095
1938+564684841+567083358+569044755+570735029+572419105+574372010+576763708
1928+579425228+581942136+584183087+586436620+588893713+591378017+593632728
1918+595504061+596975403+598299221+599803849+601456436+602980714+604427262
1908+606116048+607955769+609403247+610150292+610423895+610635822+611016907
1898+611555744+612160286+612862020+613776301+614778664+615424115+615448724
1888+615228924+615341799+615840718+616397469+616870540+617294023+617563410
1878+617559505+617335491+616891119+616051715+614796082+613444867+612369052
1868+611637565+611059801+610463193+609692160+608526590+606964873+605407558
1858+604209384+603263862+602253751+600985349+599359043+597431800+595604973
1848+594358575+593738723+593339972+592740203+591794248+590508117+588899168
1838+587114118+585408720+583876012+582439010+581104159+579928734+578811885
1828+577625240+576462832+575404621+574227274+572745023+571280065+570333117
1818+569870274+569377864+568664414+568080700+567898153+567981461+568098551
1808+568164504+568145536+568022620+567882905+567880735+568082745+568397692
1798+568664972+568842188+569136431+569897237+571213679+572615722+573609840
1788+574358807+575432204+577181178+579401922+581580701+583435360+585009721
1778+586329200+587381460+588527566+590453818+593200815+595590034+596719652
1768+597085365+597492236+598142522+598944425+599949328+601212834+602627150
1758+604096819+605557934+606858941+607959364+609117867+610633653+612430107
1748+614180383+615834643+617531798+619229696+620849059+622482120+624083508
1738+625409247+626669778+628594789+631393544+634078371+636009953+637581897
1728+639057021+640447286+641959477+643637974+645006607+645810492+646694959
1718+648596107+651391390+653888588+655658017+657316058+659339379+661603388
1708+663765865+665594552+666921406+667862466+669255954+672223805+676363981
1698+679615476+681615180+683775178+686612240+689603087+692517444+695208345
1688+697294147+698962664+701247314+704837682+708831201+712113998+714512887
1678+716428291+718605459+721347435+723851761+725398167+726468651+728018405
1668+730344771+732926826+735345859+737620654+739735464+741420841+742528517
1658+743237317+743957337+745572547+749289551+753961126+756006079+755350214
1648+753918108+752978103+753224556+754594800+756207469+756983338+756531714
1638+755374636+753853582+751567134+748894767+747324868+747526816+748730010
1628+749428273+748957682+748213922+748092245+748032491+746952709+744896723
1618+743067230+743068222+745135366+747449706+748669513+749021093+749194093
1608+749400566+749386867+748904685+748005527+747151000+747050336+748191173
1598+750496278+753366440+756028456+757989357+759249578+760239357+761567948
1588+763507030+765614031+767183867+768209040+769300909+770540985+771257038
1578+770928826+769715466+768302018+767248270+766479530+765541322+764126820
1568+762537830+761249220+760075778+758419038+756021328+753238069+751314607
1558+751977290+754352872+755964611+756089945+755572679+755508586+756019654
1548+756327348+755893328+755033904+754545708+755088017+756856578+759454687
1538+762159348+764745494+767332198+769761397+771617730+772836358+773955811
1528+775707636+778404301+781553955+784790635+788760352+793735469+798475600
1518+802449842+806694649+811517221+816039536+819873257+823209300+826092417
1508+829436456+835269385+842546198+847484496+849809994+851662235+854805380
1498+859947609+866390659+872136623+875872470+878023914+879163326+879304776
1488+879555754+882002433+886958892+892816430+898320467+903255975+907364477
1478+910133479+911860076+913939679+917691767+922995095+928146064+931648475
1468+933279243+933888309+935258182+937793810+939108330+937598432+934515351
1458+932258037+931725522+931420989+930258891+928663020+927205996+926152372
1448+925533450+925308010+925465762+925867488+926325559+926931774+928064491
1438+929723587+930826365+930229758+928836641+928692897+930744173+933855643
1428+935698772+935477485+934626243+934602502+935138426+935287501+935622159
1418+937958194+942331745+946179041+947334941+946224229+944806194+944082826
1408+943926934+944556579+946116250+947351615+946680378+944357483+942303046
1398+942159860+943928793+946305491+948099528+948956660+948912464+948230069
1388+947551331+947551827+948901989+952219436+957105170+962076568+966130833
1378+969352141+971530858+971885165+970965367+971000451+973340701+977261016
1368+981383899+984848499+987134636+987983089+988216711+989367404+991655711
1358+993182345+991864416+988767946+987557685+989931098+994087452+997676890
1348+1000161814+1002172800+1004340236+1006965432+1009915493+1012718339
1340+1015264938+1018220206+1022158063+1026529134+1030168346+1033008755
1331+1036545444+1041770609+1047009101+1049003288+1046957901+1043939966
1322+1043334371+1045047766+1046111927+1045029294+1043306850+1042485546
1314+1043021470+1045767414+1051260417+1058183790+1064841246+1070505329
1305+1073741823+1072599312+1067974721+1063366247+1060838615+1059773586
1297+1058601198+1056206338+1052347637+1047394029+1042384138+1038703644
1288+1036460834+1033778983+1028735187+1021880121+1015836194+1012295786
1280+1010376353+1008114637+1004737437+1000790220+996903749+993415905+990771865
1270+989416869+989019792+988377067+986109711+981473467+975031099+968613959
1260+963883994+960400054+956316594+951445799+947496908+944744890+940809327
1250+933777480+924839774+916560723+909676276+902495293+893128154+881750587
1240+870443064+861385107+855559678+852420128+850305441+847647889+844212608
1230+841056322+839126166+837918508+835878638+832296204+828241815+825607569
1220+825775177+828528435+831624161+832668859+832230190+833301170+837231774
1210+842006803+844849939+845324994+845400864+847330339+851811186+857740006
1200+863510393+868530449+873353392+878363035+882789025+885653236+887356279
1190+888952026+890319047+890781829+891086796+893192680+898298276+905477772
1180+911997993+915815723+918127832+922037734+929029105+938118426+947575754
1170+955986709+962337959+966390860+968515712+969455594+970641432+973331961
1160+976924870+979250369+979245410+978875296+981589132+988336033+995696092
1150+999444398+999593100+999580083+1001060723+1001779256+998923040+993386524
1140+988826708+987101474+987021265+987689961+990560991+996981231+1005490991
1130+1012241177+1013814981+1010269366+1005341482+1002939246+1004057025
1121+1007321599+1011511859+1016268912+1021057826+1025355568+1028921018
1113+1031212610+1031733658+1030953946+1029730173+1028581091+1027877808
1104+1027659992+1027704373+1026341195+1020892511+1012693483+1007379555
1095+1007919136+1011122592+1012649659+1012532631+1012726955+1013459310
1087+1014706018+1017128833+1019793018+1019835168+1016052708+1010743739
1078+1007416560+1007203145+1007302260+1003659638+995991575+988503579+984705189
1068+983910725+983869567+984171434+984481856+982752408+979090199+977596046
1058+980251925+983035804+981644918+977347300+973967185+972852258+973185552
1048+974481415+976245761+977022993+975798848+973605874+972712295+974253247
1038+976801272+977888678+977802209+979121873+982922867+987012649+987596674
1028+983669478+978050026+974008963+972031078+970351280+968084544+966505967
1018+967087264+969385860+971721772+973553806+975107527+974493564+969187012
1008+960341230+952133338+947267191+944469676+940363839+933179695+923967519
998+915369802+909247277+904740520+899857327+894450670+889653140+885514514
988+881287372+877000229+873070368+869324232+865753823+863184661+862038059
978+861421121+860192326+858094686+855544181+853267156+851967264+851266212
968+849459158+845169225+838817479+832249033+827481257+825509508+825792161
958+827040976+828345826+829327982+830097218+831552506+834562816+838571770
948+842282327+845652338+849876876+855609700+862357469+869428615+876539989
938+883523735+890233880+896741952+902877184+907867735+911594656+915172813
928+919256087+923148756+926373411+929488043+932039725+932066751+928854059
918+924315627+920998614+920143343+921714543+924988476+928328982+929400768
908+927301888+923670424+920372192+917847845+916745997+918654149+923608500
898+929350064+934256129+938447691+941709228+943104948+942515407+940699489
888+938538934+937052963+937065298+938547735+941151857+944830740+948811862
878+951026593+950449201+949111437+949822840+953359405+958075424+961058771
868+961000753+959400543+958059866+957538198+958546883+961754183+965489658
858+966720374+965691420+966189409+969696964+973453886+975207571+975818435
848+976433390+976766498+976429857+975889842+975639112+975648843+976111377
838+977792167+981232159+986035763+991190017+996094409+1000743917+1004087336
828+1003878198+1000422214+997809353+998736899+1001381683+1002553203+1001660678
818+1000717883+1001816633+1005712712+1011469152+1016241267+1017348694
810+1016196328+1017681927+1025181204+1036610962+1045065741+1044143526
801+1034136328+1021412071+1010945625+1003647427+999476568+999285158+1002498160
791+1005278071+1004194632+999889823+994984688+990724198+986838781+983727001
781+981850585+978915463+971091569+958700111+947278039+942284140+943960220
771+947584989+949726763+951616816+954572269+956479243+955945551+956365253
761+961216461+968592698+973057739+972149470+969980918+972071431+978871391
751+986373892+991207559+992596027+991796046+991711188+995288477+1001300172
741+1004211306+1001880973+998680306+997980308+998199053+998147668+999911146
731+1004509765+1009462815+1010955666+1006895079+999417000+994463330+996685065
721+1004457326+1010262610+1007336971+996766266+986079710+981100750+981146681
711+982465540+984349580+988682220+994834560+998456354+995939632+990397164
701+988677385+994041955+1003751500+1011169515+1012931010+1010989758+1005905609
691+996773704+985144540+973023461+961063482+950790243+944701625+942811386
681+941975020+940676803+941925432+946662216+950313453+950254505+947903903
671+943393799+937173028+937182822+952203753+972424436+981239163+975136784
661+961702487+949713127+942125768+938580836+939413607+944737886+951333233
651+952601388+947072682+941683814+942105189+945838433+947487239+946690605
641+946218340+944541517+937753457+926895327+917455851+914375311+916819201
631+921238249+927357860+935348184+942960709+948193808+948236206+937442974
621+916697338+899486470+897270934+906656668+912844401+904033517+885440441
611+872010174+871920047+881462108+888706627+886202859+878774679+874681053
601+876047640+879067621
##END=
