##TITLE=<SNM>
##JCAMP-DX=4.24
##DATA TYPE=INFRARED SPECTRUM
##DATE=29/4/2025
##SAMPLING PROCEDURE=Instrument type and / or accessory
##ORIGIN=Admin
##XUNITS=1/CM
##YUNITS=ABSORBANCE
##RESOLUTION=4
##FIRSTX=4497.3318
##LASTX=599.83466
##DELTAX=-1.4281778
##MAXY=2.2413108
##MINY=0.68102717
##XFACTOR=1
##YFACTOR=2.0873834e-09
##NPOINTS=2730
##FIRSTY=0.696953
##XYDATA=(X++(Y..Y))
4497+333888353+336713071+339514918+339831818+337229169+333246357+329883954
4487+328069558+327393697+327287502+328141773+330533516+333517570+334724721
4477+332959011+330010251+328604845+329538698+331812796+334375982+336404823
4467+336749736+334920206+332516242+332017933+334008940+336544713+337421485
4457+336570469+335545612+335180169+334897020+334182581+333611801+333927073
4447+334794537+335219745+334964980+334756416+335006584+335045704+334019591
4437+332250911+331205152+332049743+334148115+335252840+334182895+332675834
4427+333010867+334782144+335609403+334461475+332648793+331674077+331585244
4417+331462401+330742194+329855056+329614997+330189032+331100499+331968562
4407+332651934+333013950+333067805+332990450+332830486+332552421+332351224
4397+332464501+332746050+332970576+333503007+334841795+336267989+336171103
4387+334237834+331951772+330675376+330352394+330146429+329393812+327931096
4377+326434943+326258789+328118615+331083452+333452265+334247657+333480135
4367+332024529+331189818+331514913+332249998+332440657+332159165+332206137
4357+332986081+334092405+334667697+333998203+332120530+330069930+329350237
4347+330794735+333542584+335315861+334532462+332156709+330528034+330541826
4337+330836682+329916477+328345111+327889606+329006924+330427207+331185820
4327+331740353+332597908+333090363+332369071+330849303+329691409+329397267
4317+329744607+330505590+331335990+331551720+330985081+330521980+330916549
4307+331652804+331775275+331351495+331257236+331905171+333033225+334369272
4297+335612430+336137208+335562945+334437889+333721879+333555862+333243902
4287+332485688+331915450+332158765+332939594+333563400+333771222+333617255
4277+333216175+333098501+333743181+334452509+334009511+332514443+331292044
4267+331271770+332513786+334697908+336990595+337904517+336523497+333825190
4257+331837096+331459917+331815223+331741666+331135478+330534030+330210677
4247+330241287+330915036+332431291+334252054+335344786+335370486+335215234
4237+335817767+336896678+337441417+337013467+336016165+334928230+333812683
4227+332714726+332058938+332137578+332609473+333108838+333843608+334891338
4217+335384563+334315446+332086607+330429263+330427378+331205780+331121315
4207+329884782+328688539+328626803+329836096+331657230+333124914+333785899
4197+334056826+334341802+334329895+333643468+332554077+331696436+331472281
4187+331710999+331809512+331550978+331574878+332447539+333669224+334294173
4177+334137864+333642326+332896476+331670080+330371811+330062849+331203153
4167+333068204+334634888+335400525+335265090+334523124+334099201+334790911
4157+336098774+336690399+336141492+335334478+335070376+335182196+335169575
4147+334906786+334381750+333467542+332312532+331394241+330974030+330818035
4137+330618124+330467441+330710670+331418456+332186492+332488201+332161649
4127+331517341+330901986+330337288+329816022+329678188+330296626+331510973
4117+332668010+333164148+332876602+332243858+331881784+332034438+332537486
4107+333371027+334771979+336543228+337715456+337275999+335252697+332832542
4097+331260405+330833626+331202982+332241631+333801033+334941651+334651849
4087+333260178+332020246+331509831+331401523+331410203+331659543+332383148
4077+333590156+334814097+335282880+334712157+333599893+332520125+331795692
4067+331881356+333070917+334678719+335361348+334441715+332523666+330924573
4057+330573693+331171143+331567340+331150898+330443883+330311503+331120116
4047+332528035+333641183+333606775+332446368+331076941+330448081+330930770
4037+332229752+333504007+333946148+333693124+333725677+334516785+335396470
4027+335436790+334484747+333173857+332220986+331928157+332219929+332849818
4017+333394471+333362861+332726462+332053313+331761598+331617596+331293472
4007+331000871+331239246+332186435+333525080+334784029+335643183+335850690
3997+335352439+334685001+334556962+334918636+335234908+335469256+335801805
3987+335845151+335228626+334488516+334464873+335110638+335472255+334910212
3977+333976587+333692553+334301882+335241247+335938924+336106369+335650607
3967+334835684+334200999+333985382+333913481+333616855+333127427+332934054
3957+333398240+334227212+334961811+335772593+337083512+338591372+339342161
3947+338951790+338247002+338202029+338586461+338321987+337157611+336056113
3937+335851775+336503594+337591215+338705677+339186253+338312964+336459820
3927+335341760+336338576+338822409+340751280+341100475+340717842+340714416
3917+340957102+340312651+338435406+336714356+336624295+337728763+338424099
3907+338531293+339718827+343142423+347599872+350819245+351642078+349910920
3897+346292951+342713160+341164295+341949721+343359097+343564491+343091996
3887+343530825+344688433+345025207+344675212+345153504+345879393+344996053
3878+343342877+343129260+344291008+345550214+347220551+349516236+350157747
3868+348014315+345604354+345078747+345562179+344948424+342864072+340807076
3858+340822381+344902536+353664637+361880829+360879729+352882181+345468862
3848+341879305+341972137+344334954+347504899+350797258+354380732+357994332
3838+359862239+358596180+355556587+352851713+350785779+348535896+346161799
3828+344818899+345459724+348363825+353269440+358219515+359449252+356670764
3818+353825172+352622276+351306846+348755167+346243380+345367978+346960332
3808+350516508+353894902+355851300+357451450+358984952+358778645+356812966
3798+355049512+353701216+351565209+349021126+347847042+348520933+349621575
3788+350058862+350572532+352226793+354928155+358226710+361819351+364554265
3778+365186295+364601580+365170875+368505524+374578027+381701230+387552235
3768+391335621+393684989+394805191+394969609+395498499+397160584+398935431
3758+399884418+401117639+404588865+411090489+419069563+424758919+426587649
3748+428067269+432692191+439267000+442467813+441141161+440192830+443214176
3738+450448857+459867174+468225911+472726220+472959227+470892607+468964650
3728+468765224+470903287+474887869+479141380+481726782+481386695+478498471
3718+474848464+472330480+472211892+474875505+478884845+481002577+479813444
3708+477355682+475922378+476201815+477416675+477894024+476683961+474896150
3698+474395015+476047819+479744056+485175849+491793976+497741753+499746122
3688+496541655+490971714+486147109+483174163+482032945+482246535+483545946
3678+486442136+491085019+495879414+499519969+503012668+506245005+506287209
3668+501879674+495485302+489578644+485197208+482598843+481626497+482109186
3658+483901166+486263784+488350106+490787251+495076112+500911155+504258510
3648+501451467+495261547+490409815+488150108+486996041+485396006+483484382
3638+482544246+483204317+484891901+487193754+490866690+496262789+500635088
3628+500067591+495780729+492023556+491051211+493029310+496394941+498264761
3618+497724049+497754088+500591628+504448970+506186696+505399614+503799008
3608+502149687+500429437+499409234+500123502+502436605+505110012+507382397
3598+509317950+510559566+510319992+508886031+508065997+509593503+513457641
3588+517301849+518052038+515400447+511426202+507851494+506016282+506907075
3578+509690874+511973995+512772385+513624001+516040873+519841620+524086050
3568+527604163+528654063+526348384+522168715+518574533+517040802+517328805
3558+517997213+517846673+517041601+516723730+517670033+519394624+520616709
3548+520782155+520750459+521414642+522081795+521654730+520528989+519394738
3538+517666150+514829296+512106603+511122551+511931392+513513894+515073153
3528+515894787+515227063+513419492+511965486+511525572+511285084+510706223
3518+510260826+510275218+510381784+510253574+510175848+510623357+511659551
3508+512734750+513181917+513248335+513932107+515240312+515680512+514317595
3498+512166111+510804051+510899082+512319850+514324677+515811464+516221453
3488+515860749+515195539+514197665+512950452+512235671+512540235+512759193
3478+511086800+507618030+504808075+504680035+506744484+509083630+510276360
3468+509632109+507273946+504661189+503272345+502735744+501776420+500667869
3458+500786257+502087438+503040195+502813299+501758488+500172387+498345970
3448+497208179+497423082+498377780+498874004+498135522+495953770+492756498
3438+489846773+488995328+491146983+495133793+498113364+498129240+495855828
3428+493077853+490709982+489023769+488293567+488292939+488036061+487028936
3418+485882750+485135016+484859291+485537066+487917273+491650289+494906954
3408+495749376+493675732+489854026+486312555+484651013+484857578+485556255
3398+485820329+486071610+486856580+487627443+487423505+486315810+485272764
3388+485081675+485959447+487706654+489694919+490978282+491070514+490439968
3378+489848886+489571962+489595206+490132777+491577246+494139518+497467856
3368+500339204+501434791+501019891+500621039+500697566+500403395+499660744
3358+499390673+499827503+500556677+501733302+503631392+505596813+506639174
3348+506650882+506381668+506479439+506851679+506988341+506668472+505895153
3338+504552224+502951561+501980015+501845922+501680419+500967294+500164278
3328+499393929+498025701+496231037+495346754+496027784+497302010+497855172
3318+497407148+496552391+496010252+496204880+497149985+498533232+499783758
3308+500238520+499569426+498291774+497586758+498118960+499233679+499689870
3298+498994791+497695323+496692595+496538114+497015149+497410632+497586529
3288+498463159+500789569+503830304+506054774+506763787+506247803+504999163
3278+503608434+502664872+502207539+501883215+501812856+502475839+503650866
3268+504573298+505042280+505541931+506320104+506755792+505886072+503571313
3258+500888368+499120546+498388574+497939637+497717881+498476922+500220759
3248+501565344+501076487+498860184+496458275+495392670+496100884+497826903
3238+499071032+498666868+496953014+495431333+495099185+495690210+496252567
3228+495819392+494043403+491762623+490463783+490901641+492548106+494156993
3218+494513585+493152438+490890904+489251064+489096583+490004280+490809124
3208+490647161+489623303+488566379+488095226+488016358+487738978+487048182
3198+486155390+485276190+484633366+484470205+484587565+484340338+483474730
3188+482469490+481751853+481159970+480416520+479594658+478953604+478643529
3178+478592387+478564061+478303870+477605336+476405267+475034612+474202956
3168+474254069+474581106+474302840+473280467+471904016+470317401+468612399
3158+467408846+467371525+468269257+469060337+468784927+467293171+465397423
3148+464285931+464300808+464395866+463437798+461777170+460735437+460881637
3138+461601873+462070142+461946585+461249022+460226621+459399248+459176292
3128+459433685+459469378+458533383+456731809+455150620+454700626+455116582
3118+455422089+455054990+454211712+453421660+453124434+453443733+454119366
3108+454700540+454855735+454401087+453259755+451797810+450864099+450898422
3098+451326400+451434080+451318262+451281998+451036056+450265735+449325029
3088+448762444+448631120+448607620+448469900+448219276+447915225+447547240
3078+447124231+446795880+446535861+445853888+444386433+442746364+442144659
3068+442910811+443911225+443933698+443199213+442776432+442984767+443205267
3058+442933683+442265189+441498494+440834255+440331520+439890264+439458203
3048+439230479+439338187+439511343+439429933+439199268+439063291+438892334
3038+438427520+437853599+437662711+437915020+437978840+437276993+436161846
3028+435628101+436155564+437193100+437763166+437289386+435897458+434222409
3018+432945956+432368152+432397477+432756610+433055235+432958977+432508270
3008+432082262+431904480+431784522+431334785+430232287+428486052+426740131
2998+425960330+426463436+427506996+428090598+427933204+427474787+427261026
2988+427481354+427760648+427388808+426124691+424751637+424415120+425341692
2978+426463436+426463293+425173276+423638517+422764258+422386079+421836772
2968+420965881+420247987+420098903+420333423+420319517+419761158+419180955
2958+419252170+419805332+420010469+419508563+418829246+418608004+418812285
2948+418875305+418394243+417574181+416966736+416842352+416957341+416966793
2938+416841752+416680075+416381307+415854844+415340202+415156881+415267759
2928+415375467+415318358+415119645+414742038+414017319+412853429+411466498
2918+410331190+409811523+409882253+410269998+410725074+411018674+410845861
2908+410008865+408796060+408007750+408287958+409365156+410207006+410076368
2898+409231891+408463683+408223081+408344325+408328705+407798301+406921357
2888+406386470+406643634+407211616+407191970+406490381+405886763+405832680
2878+405937162+405796530+405614693+405730511+406068999+406298950+406198980
2868+405759609+405167098+404683924+404398662+404202320+404058518+404046440
2858+404091014+403974568+403700871+403483226+403298306+402937860+402582725
2848+402677612+403095882+403151192+402599829+401938188+401607353+401528627
2838+401441850+401209100+400822298+400453542+400381327+400632152+400822127
2828+400525043+399769971+399083744+398980661+399411266+399814031+399749354
2818+399299817+398751652+398156201+397493132+397067067+397221120+397660263
2808+397620172+396861644+395998778+395669999+395811230+395894410+395658120
2798+395405839+395486620+395647583+395291135+394301542+393154956+392321815
2788+391953802+391974133+392186894+392466045+392874035+393340590+393449784
2778+392955844+392268418+392005886+392223130+392366618+391910684+390902103
2768+389917536+389507091+389630162+389700949+389279110+388522439+387825561
2758+387338760+387030569+386880628+386841108+386887081+387129825+387590898
2748+387947689+387845035+387367771+386846791+386333063+385698605+385134593
2738+384993132+385159378+385130766+384709356+384111477+383536385+383117601
2728+383022571+383177338+383190159+382839821+382389513+382246483+382464155
2718+382662839+382450135+381880011+381325479+380935307+380519693+379995885
2708+379611339+379592350+379841547+380147482+380465097+380789849+380963262
2698+380834366+380445023+379907337+379307288+378747730+378248394+377727184
2688+377254804+377068170+377210401+377451117+377603400+377651686+377610224
2678+377455629+377166570+376769631+376338968+375927152+375530470+375171423
2668+374954578+374983190+375263655+375679640+376005849+375993171+375533697
2658+374787076+374119867+373854736+374034174+374416608+374681024+374654383
2648+374394649+374047281+373657537+373214454+372806150+372574828+372578169
2638+372782878+373066112+373201690+373069910+372865601+372840901+372924366
2628+372886246+372754751+372716402+372696842+372433111+371970039+371722070
2618+371952849+372421632+372597558+372154360+371294406+370592188+370459238
2608+370823796+371359197+371817015+372038057+371894084+371435324+371000350
2598+370982103+371423559+371931776+372100563+371925779+371665732+371474044
2588+371346204+371202888+370915999+370511693+370308669+370523914+370912515
2578+371170621+371401972+371768957+372069495+372085286+371935345+371740745
2568+371394148+370894040+370460066+370193707+370000249+369849452+369825237
2558+370005218+370430340+370990355+371330928+371176875+370732678+370485651
2548+370673941+371098492+371326587+371023936+370234284+369358796+368804463
2538+368702294+368927248+369238095+369407739+369399686+369446573+369793227
2528+370350102+370758177+370811374+370658235+370553411+370545701+370464206
2518+370171092+369830034+369868269+370533080+371485152+372010016+371720243
2508+370924737+370248475+370022550+370103674+370152903+369973836+369660591
2498+369489005+369609935+369893169+370163982+370441334+370760804+370975478
2488+370992611+371028533+371347289+371823239+371992797+371587149+370875137
2478+370370061+370286253+370412551+370454526+370358754+370303729+370452642
2468+370780393+371163111+371527898+371809676+371881720+371660306+371206086
2458+370697584+370366321+370364779+370596957+370768657+370676225+370420974
2448+370323260+370576912+370991954+371214224+371166909+371058201+371041240
2438+371137070+371348860+371593831+371685006+371550628+371321162+371153431
2428+371142181+371362595+371790002+372221035+372457583+372511808+372487394
2418+372396019+372250075+372154360+372155274+372206244+372357898+372728453
2408+373260798+373742802+374024580+374051336+373834034+373550172+373518533
2398+373935318+374706067+375589864+376498932+377680555+379663309+383055809
2388+388347684+395830990+405683596+418064351+433002695+450187838+468998259
2378+488769460+508940399+528964624+548340371+567006705+585328212+602846931
2368+617295676+626347350+630528732+632272968+632312260+629156849+621645702
2358+610210394+595923783+579415672+560956531+542188771+526783443+518161289
2348+517784309+525127898+537306314+549408717+557867139+562784947+565720258
2338+567321264+567786934+568114742+569575373+572090130+574145841+574509857
2328+573226950+570976210+568263227+565293422+562140524+558608819+554038522
2318+547861337+540551729+533453083+527301483+521324980+514348377+506464705
2308+498706674+491396551+484037429+476674881+470061265+464375935+458857764
2298+452922466+446912755+441545667+437090702+433194811+429289896+425157600
2288+421141093+417755617+415146630+413055425+411224696+409619578+408274908
2278+407162702+406253091+405524803+404889318+404232388+403506384+402705310
2268+401823855+400923924+400190039+399814973+399778509+399811575+399695215
2258+399508495+399409011+399294906+398909560+398197463+397382739+396765929
2248+396521986+396594429+396741457+396734947+396512506+396168450+395897780
2238+395891355+396122505+396301572+396231927+396121163+396288979+396643001
2228+396716329+396237124+395434822+394747510+394427926+394458108+394654279
2218+394770754+394628665+394247574+393790927+393360407+392959899+392641742
2208+392494600+392496484+392563188+392684717+392839284+392896079+392782488
2198+392625723+392610561+392817268+393227914+393746781+394200173+394433151
2188+394448856+394434750+394628180+395098704+395661061+396076389+396316278
2178+396532894+396830520+397189310+397532138+397753722+397827336+397965056
2168+398430355+399102504+399535508+399557695+399476029+399578540+399798783
2158+399987843+400184014+400459082+400751511+400991656+401205588+401394392
2148+401471518+401406042+401307214+401308899+401434483+401598729+401725998
2138+401866087+402129818+402466507+402663192+402682752+402784607+403124351
2128+403468578+403561295+403572003+403874398+404509283+405176378+405687394
2118+406121254+406567736+406995143+407379918+407778399+408255805+408838236
2108+409466154+409990076+410332019+410600604+410959080+411485629+412194129
2098+413011679+413719979+414101584+414169002+414148128+414253410+414548551
2088+414980898+415445369+415815381+416021118+416143675+416368343+416816338
2078+417445541+418085281+418552437+418786414+418889468+419018021+419260308
2068+419592913+419890254+420033627+420074831+420207183+420566943+421180156
2058+422009585+422893039+423557508+423872124+423995823+424158956+424404669
2048+424674197+425063312+425808705+426974280+428287797+429381728+430120124
2038+430610637+430990358+431329874+431708652+432254475+433075681+434207161
2028+435604372+437106579+438435458+439377478+440042604+440858669+442183693
2018+443937296+445721880+447263035+448545628+449611175+450531009+451496701
2008+452689488+454132815+455732222+457337882+458868101+460453202+462189272
1998+463847330+465306648+466983409+469153853+471238319+472523624+473235979
1988+474134367+475451054+476805347+477856104+478673597+479576840+480785789
1978+482236769+483708308+485085045+486439509+487973812+489992459+492708469
1968+495843835+498636943+500569983+501913940+503326199+505180142+507415120
1958+509801324+512194095+514531813+516694090+518583956+520365199+522358376
1948+524711056+527398512+530364433+533338864+535832433+537760791+539673272
1938+541959591+544349335+546466553+548402163+550428806+552527064+554527779
1928+556536146+558943709+561939384+565117068+567875111+570267368+572863849
1918+575665866+577933054+579291630+580159294+581092576+582466001+584434449
1908+586770168+589068594+591071708+592475972+592953863+592720514+592515092
1898+592882762+593915586+595504771+597467051+599614880+601771503+603579131
1888+604617552+604852158+604570094+604123384+604019217+604724747+606158365
1878+607705916+608763126+609199328+609530049+610636030+612917895+615473828
1868+616527954+615401185+613220975+611252355+609816167+608804816+608283693
1858+608325611+608751761+609223029+609363289+608931428+608059195+607293186
1848+607436588+608991450+611089650+611443843+609014979+605486587+602709412
1838+601086476+600121440+599291126+598786108+599349949+600815777+601479274
1828+600289456+598249222+596228519+593803081+590831163+588155586+586434993
1818+585523126+584988468+584748380+585065794+585889483+586341219+585424898
1808+583407850+581733572+581550422+582872506+584853575+586399642+586807689
1798+586380567+586317004+587645427+590056016+591607394+590637962+588214979
1788+586659204+586866968+588141651+589561392+590869483+591912073+592346619
1778+592547701+593783264+597044612+601989661+606573550+608533489+607988380
1768+606608444+605535529+605480190+606915350+609257922+611085767+612110939
1758+613204013+614427868+615433451+617121321+620754852+625739192+629571178
1748+630781727+630392697+629979396+630233305+631085663+632148013+633027099
1738+633990934+636296214+640835101+645814644+647734149+646504697+644326258
1728+642440047+641643599+642514061+644638589+647302345+651039872+657037048
1718+664362190+668651166+667139079+662532518+658343027+656059963+656178807
1708+658885224+663289218+667311949+670359195+674417334+680311542+684707256
1698+684945859+683091972+680713992+677835620+675520060+674756165+675188255
1688+676581496+680245352+687063362+693391202+693982628+690549208+687794535
1678+688191845+691876317+696712687+699983345+701664532+703077762+703426929
1668+701404741+699005974+699100547+701591318+703685578+703505798+702670801
1658+703933661+708873000+717762083+727580966+730620502+726972179+724631778
1648+726023535+728197348+727431054+724292833+721639300+721126857+723758974
1638+730172649+738709254+743629860+741441484+736902311+735230889+737666607
1628+742930384+749203570+755464763+760753154+764015702+766324808+770537599
1618+777854917+785522773+789604556+791187173+793626774+797352022+800469512
1608+801602963+801417072+801333863+801528892+800920220+799082381+797309818
1598+797402621+799975344+803739142+806386392+806960571+806836243+807826692
1588+810144193+812602755+814442535+816162214+818364983+820712923+822899986
1578+825738610+829355351+831348470+830860185+830826661+833017779+835392561
1568+835150645+833501610+833769282+837440848+844204376+853658900+863727751
1558+867309769+862262094+856231109+854621651+857635373+861788942+863252886
1548+862118864+862157527+866004476+872495477+878793277+882906470+882727375
1538+878158906+873044813+869608538+866942841+864007987+861963869+862442503
1528+865017168+867444604+868424317+869554170+872604956+876406845+878839879
1518+879754601+879364886+877836352+876860865+878430404+882660786+888594684
1508+895745985+902283531+904389270+902470850+900142213+899230061+899964888
1498+902190385+905697876+909719065+913284807+916657005+920885845+925193210
1488+926468635+923820299+920413721+919459937+921333869+924625714+928321551
1478+932298823+936757072+941671738+945140166+943210723+936183864+930399421
1468+929897257+932972829+935108208+934481774+934086292+936799332+942608676
1458+949133486+951511637+946715587+938212277+931013690+927685923+927660680
1448+928311899+928384428+929175737+931520879+934184291+935455890+935304322
1438+935632644+937970019+940558790+940600422+938335691+935308833+932146570
1428+929325420+928340854+930500618+935035450+939837098+943455552+944285809
1418+940469071+934373267+931368054+933121885+936295399+936798305+934597364
1408+932446623+931258689+929950655+928558041+929006921+932793562+938921633
1398+944322930+947167608+948565133+949494589+948866328+946189380+942823007
1388+939631618+936373639+933937750+934818035+940627664+950142153+959798445
1378+966115434+968147730+967568641+966194473+964397696+962391899+961442626
1368+962618852+965024644+966537701+966727876+967984854+972404439+978627883
1358+983563052+985575018+985137674+984138944+984785765+987747918+991324682
1348+993546239+994357421+995069462+997016437+1000555737+1004420789+1007022924
1338+1008691205+1010805510+1013394167+1015656386+1017811467+1020677562
1330+1023865068+1025799479+1026180970+1027148632+1030598956+1036068669
1321+1042346138+1049061751+1055582507+1060014885+1060369306+1056132699
1312+1049420056+1044440227+1043962792+1047404664+1053147703+1060396604
1304+1067792505+1072820077+1073741823+1070347352+1063579427+1056093751
1295+1051480108+1051622310+1055694099+1060982661+1063421577+1060474044
1287+1054993366+1051588159+1050235579+1047660971+1042996615+1038589594
1278+1036741647+1037668533+1039033448+1037434498+1032531425+1028250501
1270+1027400941+1029010856+1031307455+1032987272+1032727196+1030325173
1261+1027129329+1023965580+1020238847+1016006581+1012413826+1010185759
1253+1008965101+1007199620+1003372374+997774850+991766480+985493694+978180602
1243+970045477+962081794+954858593+949247077+946106572+943909343+939058182
1233+929917760+918776965+909126041+902759767+898956107+895382598+890486606
1223+885097817+880951786+878230864+875432387+871609881+867471160+863937571
1213+861126930+859258081+859002744+860252185+862048105+863959158+866340393
1203+869452743+873218083+877770333+883383620+889260238+893645100+896125135
1193+898417108+901915632+905882511+908943919+911005056+912587044+913612844
1183+914012096+914594727+916403782+919232869+921780693+923952165+927517336
1173+933562484+940718639+946576868+950440207+953727655+957610582+961910695
1163+966381792+971179442+976044366+980439623+983464710+983316225+979896398
1153+977363366+980195537+987794862+995330338+999287679+1000241978+1001204728
1143+1004907248+1010065715+1012002181+1009711864+1007624515+1008327075
1134+1010044927+1011902354+1014632299+1016180536+1013615294+1008926610
1125+1006648971+1007754610+1011112530+1017337116+1025531521+1030472972
1117+1028804577+1024580649+1022890895+1023997790+1026687302+1031485294
1108+1037104292+1038630027+1035027107+1032409439+1035842858+1042941904
1100+1047672736+1047241559+1041790235+1035171594+1032906634+1034551842
1091+1034157787+1028495615+1022022146+1021866923+1028945409+1037068998
1083+1041160204+1041884009+1042609527+1045077454+1049149357+1053553180
1074+1055316377+1052602879+1048149599+1045057809+1041070542+1032235255
1065+1020187677+1009682853+1002699054+999000533+998523326+1001184626+1006135443
1055+1012250379+1017770349+1019753759+1017280121+1013673089+1012077109
1047+1012993944+1017367956+1025506850+1033186242+1034123636+1027431324
1038+1017627918+1008307201+1001276001+997428995+995834842+996898563+1001992839
1028+1008602000+1011900869+1009698501+1004468875+999115780+994485232+992772634
1018+996501995+1004404570+1011688422+1014201009+1009929337+998946279+985911621
1008+979312283+983923413+995378995+1003861802+1003783220+998263478+991789552
998+984033863+972366861+957556671+943867596+934598221+930177550+929099438
988+928943301+927630641+924909091+921995196+919166680+914684731+907643480
978+899246965+891351985+886032641+884916608+888240149+894402771+900154891
968+901660924+897442821+890527839+885318773+882758957+880001884+875172139
958+870630854+869726640+872232260+875107434+876824772+878550848+881349953
948+884482691+886780603+888032042+888454995+888626666+890376899+895514863
938+903044971+909737797+914315005+918822253+924718516+930117471+932581743
928+932941076+934682514+940412761+949363066+957299679+959916890+957378604
918+953420749+950540263+948745085+947629909+947215066+947358239+948250174
908+950649627+954040557+955661837+953368950+948706479+944853020+943489760
898+944918524+948634864+952444291+953101735+950233642+947256984+946743856
888+947680051+948297747+948838744+949482310+949157758+948807677+951617861
878+958754370+967450881+973575982+975214681+974079345+973550626+974819141
868+976235683+976463321+976476685+977622871+979395434+979981605+977686491
858+972933958+970088081+974247247+984675316+993965308+996241804+993399353
848+990427150+989813794+990598935+990000885+987006409+984309244+984874285
838+987559685+988739909+986847759+984292911+985580615+993178568+1005403300
828+1016960765+1021919578+1018940635+1013178636+1011131948+1014399978
820+1019838624+1024322857+1027918581+1033102062+1041381674+1048062108
811+1044600705+1033174477+1025648253+1029042038+1041180649+1054340834
803+1060253830+1054424328+1040419494+1027904989+1022929273+1024918166
794+1029341177+1031589462+1028783904+1020956941+1011063759+1004209028
785+1003849581+1008047924+1013008564+1017705472+1022815054+1026982900
777+1025633290+1015317955+998615501+983818217+977719272+979768130+982401218
767+977908419+967929801+962818049+968680676+979587779+984117357+979592005
757+973170391+971730091+976956176+986089460+994393857+998411849+998451368
747+997893752+1000551625+1008081618+1018025970+1023745937+1020849347+1012898799
737+1006968099+1006701283+1011002424+1016298981+1018730815+1017830542
728+1014450234+1007160329+996851162+987764708+986040460+994471869+1005542533
718+1009229632+1005841786+1000424614+995399326+992252596+993347155+1002069251
708+1016702060+1027954789+1027660789+1017216159+1005057217+998461534+998474669
698+1000160882+1000093150+1001548413+1006846798+1011518807+1009707296
690+1001905690+996079728+999255698+1010210087+1022467714+1030068523+1028557293
680+1017298739+1004221592+999489732+1003393962+1009140770+1011713208+1007876824
670+995918793+980791874+969083411+962726560+961564611+966879672+978781508
660+987602174+983753912+976208042+976505468+979038043+974112697+965121730
650+956644976+948148462+941587445+940834800+944417503+949735020+959298509
640+972664516+981054006+978404585+974547871+978297676+980082575+968120204
630+946998621+930197996+925105718+927575016+927916131+922935902+922581538
620+938422611+964034366+976101362+966110637+951988215+945552210+941510747
610+934468925+929617764+929061118+923858391+911824234+901753041+898944628
600+898648116
##END=
