##TITLE=<SNM>
##JCAMP-DX=4.24
##DATA TYPE=INFRARED SPECTRUM
##DATE=29/4/2025
##SAMPLING PROCEDURE=Instrument type and / or accessory
##ORIGIN=Admin
##XUNITS=1/CM
##YUNITS=ABSORBANCE
##RESOLUTION=4
##FIRSTX=4497.3318
##LASTX=599.83466
##DELTAX=-1.4281778
##MAXY=2.1259794
##MINY=0.38816583
##XFACTOR=1
##YFACTOR=1.9799726e-09
##NPOINTS=2730
##FIRSTY=0.40115365
##XYDATA=(X++(Y..Y))
4497+202605656+202474599+202283199+202713713+204086250+205527257+205418477
4487+203320801+200836021+199837328+200596365+202088082+203264342+203557763
4477+202887608+201724007+200873319+200933647+201799658+202592621+202433718
4467+201451808+200702571+201054273+202345288+203556213+203787470+203161838
4457+202518822+202248324+202049429+201779563+201658667+201591565+201184035
4447+200470245+199888444+199660288+199768421+200155901+200450286+200079859
4437+199176595+198645324+198850572+199082777+198734702+198162068+197945351
4427+198049992+198113842+198052159+198008404+197944764+197674778+197277619
4417+197077745+197217818+197675817+198541632+199701124+200450948+200055611
4407+198637362+197207538+196783315+197443958+198337347+198764535+198855193
4397+198886681+198714879+198333103+198115603+198167126+198267296+198549489
4387+199358513+200418722+200921952+200458760+199307848+197944087+196736293
4377+196046059+196223807+197150055+197954187+197802509+196937266+196396151
4367+196768836+197700246+198530283+198930196+198961805+198918907+199043371
4357+199169446+198876927+198166704+197593468+197567865+197923692+198300636
4347+198577515+198730804+198571841+197973709+197309228+197202390+197739712
4337+198381976+198720433+198853025+198938174+198904954+198806665+198971574
4327+199497848+199937032+199790502+199088542+198296753+197888094+198045296
4317+198621346+199375762+200219751+201130541+201854702+201957567+201407134
4307+200863475+200988978+201574617+201785494+201241789+200373115+199789854
4297+199776368+200237091+200775949+201072606+201327104+201909190+202637220
4287+202992429+202960730+203023782+203345501+203530579+203274441+202859205
4277+202759968+202980990+203128453+203063354+203051011+203166745+202973584
4267+202166352+201354784+201577070+202873610+204000860+203998332+203393758
4257+203242170+203764772+204579425+205426620+206124380+206461016+206337861
4247+205668745+204473956+203345667+203082424+203618151+204128124+204242413
4237+204243602+204175146+203770582+203179449+202916402+203087964+203323556
4227+203508333+203979110+204911123+205989245+206772545+207069985+206972630
4217+206770242+206814028+207236263+207847024+208434980+208976788+209421315
4207+209507397+209076989+208427108+207979601+207689927+207156247+206317677
4197+205707353+205805476+206359235+206648126+206326542+205699059+205327142
4187+205632319+206519869+207232109+207123419+206625954+206733982+207677705
4177+208832681+209646988+210025047+210166354+210455892+211089004+211638187
4167+211458332+210567381+209697262+209450065+209735704+210116080+210439816
4157+210848385+211303539+211570063+211623707+211610447+211459973+210998046
4147+210352485+209862411+209728178+209963108+210456313+210885744+210880069
4137+210571972+210648405+211460304+212436660+212832961+212687394+212511618
4127+212456859+212350473+212185775+212117725+212244718+212585598+212987017
4117+213100297+212823087+212563818+212712591+213135278+213437204+213482781
4107+213501340+213765591+214209095+214495321+214571981+214809725+215425949
4097+216187876+216801300+217217485+217480667+217531452+217256214+216747686
4087+216447611+216773244+217607871+218458769+219024359+219303044+219367617
4077+219321031+219246615+219072224+218714500+218301432+217949323+217436385
4067+216499495+215444388+215014115+215506432+216397217+217054684+217500460
4057+218169110+219160277+220072075+220491737+220380172+219970686+219504333
4047+219142651+218996784+219095930+219386913+219820317+220312333+220617390
4037+220442592+219794714+219112578+218978977+219623002+220640103+221364761
4027+221631270+221918520+222612563+223462829+223971748+224033446+223931183
4017+223921610+223949983+223688216+222957898+222120607+221698296+221659056
4007+221600880+221572703+222076144+223245389+224558455+225374117+225475326
3997+225137577+224790932+224558320+224260368+223951548+223994085+224476919
3987+225104297+225663745+226055772+226022808+225469335+224910248+225051781
3977+225980979+227053802+227518936+227133216+226269629+225523597+225239343
3967+225436658+226016652+226788934+227372707+227401591+226946693+226510911
3957+226469834+226735635+227127903+227828989+229125378+230742478+231855730
3947+232092481+232111341+232537370+232780608+231835862+230026760+228712069
3937+228574464+229348432+230765567+232720130+234495831+234873874+233581820
3927+231859884+231118203+231472283+232018577+232420281+233268425+234718208
3917+235635274+234739039+232315942+230003882+229143982+229849705+231554045
3907+234169325+238132728+243054108+247014364+248295701+247092559+244440221
3897+241119654+238208710+237145369+238535396+240916032+241672841+240593711
3887+240158652+241629522+243297030+243655551+243820715+244324366+243514921
3878+241250455+239962435+241179230+244291839+248287122+252032874+253353285
3868+251755151+249899404+249515461+249024167+246485561+242945222+240812912
3858+241530992+246122118+255350249+265160346+266229993+258571774+249563973
3848+243329437+240915837+242168078+246035766+250884279+255568441+259302543
3838+260574729+258668136+255484452+253232690+252060253+250878590+249415878
3828+248294693+247942388+249020750+252921507+259370337+264004692+263699952
3818+261294600+259265756+256237227+251419344+247142230+246023574+248936069
3808+254190652+258275523+260222334+262533099+265922393+267400789+265541008
3798+262499173+259548672+256321818+253075909+250819120+249970660+250294215
3788+251557099+253451544+255220923+256412160+257701625+259702893+261408844
3778+261385634+260184614+259762679+261543257+265728494+271020376+275165606
3768+277186803+277876149+278059692+278629466+281206499+286501392+292356545
3758+295668231+296931476+299755571+306730253+316845031+325143316+328272693
3748+329539430+333237016+339124923+342597182+341839018+340539710+342307885
3738+348633380+358322640+366952217+370254902+368827562+366783967+367282727
3728+370881271+376140280+380946889+384297409+386784071+389478177+393060797
3718+397558843+402607817+408418116+416021516+425311450+433245359+437031089
3708+437782239+438575082+441608940+446962775+452614819+456353225+458111105
3698+459210675+460652526+463114593+467178090+472820832+478307003+480393165
3688+478171175+474684436+472505404+471859709+472441042+474563720+478934215
3678+485778759+493061885+496572888+496188463+496320288+498048545+497673573
3668+493691325+489919654+489478664+491528670+493357986+494258239+496212456
3658+500600653+506261336+511867260+518561557+527809797+537815026+543318778
3648+541558490+536293341+531496064+527906670+524863420+522289969+521408410
3638+523508630+528531926+534985512+540958161+545695351+549726727+552855894
3628+553293302+550911973+548326420+547953856+550973866+557058922+563512750
3618+567413055+569555661+572211476+574888062+575628133+575363641+576726620
3608+578974408+579002646+576382654+573515270+572089916+571659734+571640949
3598+573179793+577398656+582770915+586354047+587885065+589872275+593414586
3588+596083887+594982511+591345252+588617550+588439456+590556233+593431143
3578+594593690+592926363+590282047+588916119+589146834+590834090+594938198
3568+601591854+607459802+608415777+605177755+602469981+603819352+608032496
3558+611068642+611150404+609768701+608508978+607502067+607096750+608138401
3548+610269146+611817503+611623515+610303283+609430997+610097012+612241665
3538+614795007+616559269+617259784+617790031+619424486+622619218+626179832
3528+628116890+628048855+627300234+626297719+624125912+620980369+618811151
3518+618999059+620989400+623335568+624883805+625011264+623999416+622997442
3508+622628912+622039239+620477395+619150240+619738408+621539155+622453648
3498+622561720+624184976+628469525+633590779+636376221+635448182+632732400
3488+631394468+632666653+635092957+636648539+636974563+637202328+637810063
3478+637756659+636452564+635457393+636245450+637576639+637660869+636925976
3468+636560757+636534807+636086863+634415682+631827480+630912687+633932697
3458+638803247+640840550+638849667+635894139+634558495+634864108+635561914
3448+635587381+634989340+634600279+634461079+633443933+630786673+627249540
3438+624514371+623846489+625353183+628047109+630012825+629523699+627633604
3428+627998341+631870168+634735806+631146413+622970770+617880824+620219225
3418+627465685+634215854+636854269+634505934+629115974+625146310+625673126
3408+628948115+631035811+631068805+631339679+633295641+635725558+636307163
3398+634268836+631389350+630020170+630578716+631631926+631406509+629493535
3388+627607775+627797187+629966526+632056028+632620835+631884377+630677817
3378+629722685+629423393+629822870+631278629+634116210+637177764+638535865
3368+637682785+635850067+634937622+636589536+640493574+643593179+643368183
3358+641004856+639076288+638247291+637900194+638105261+639188876+640249553
3348+640097468+639267146+639232647+639667767+638405094+634665905+630374251
3338+628173063+629975617+636162604+644068698+648737793+647801264+644171713
3328+641687188+640736993+639922144+639403275+639932921+640401516+639464145
3318+638187083+638499199+640432282+642693377+644961997+647450134+648955925
3308+647716191+644254318+641424683+641258330+642855757+643861945+643650376
3298+643633096+644931652+647489751+650491879+652461208+652120855+649888118
3288+647723597+647128806+647926376+649599784+652536046+656649184+660211123
3278+661706979+661657970+661230918+660236531+657796078+654162432+650670094
3268+648321157+647817942+649638799+652720582+654490323+653615206+652096170
3258+652344767+653865428+654466059+653206517+651072160+649679318+649975961
3248+651447192+652519429+652608235+652785847+653493587+653923469+654052734
3238+654632894+655032251+653453007+649721163+646124725+644984876+646575559
3228+649535844+652503714+654627897+655128824+653886320+652094544+651075471
3218+650703268+649775590+647565733+644519110+641692005+639889993+639520319
3208+640638132+642157710+641975522+639418809+636696344+636491036+639085500
3198+642591144+645259543+646787731+647347360+646677069+644699432+641861128
3188+638500343+635010774+632576462+632619992+635321866+638983027+641061632
3178+640365813+638315024+637016889+636626925+635709783+633300037+629814983
3168+626826521+626168754+628081909+630379007+630842666+629727080+628404320
3158+627044653+625011083+622364179+619844614+617955422+616894143+616976627
3148+618185113+619584216+620222356+620061782+618961128+615995786+611234393
3138+606807152+604960165+605971953+608226846+609681761+609460438+608335641
3128+607419884+606708472+605486740+603877272+603256051+604702597+607305128
3118+608482306+606494253+602488164+599340092+598739642+599991718+601305025
3108+601593359+600961722+600051083+599303726+598808519+598742050+599507890
3098+600845401+601244336+599285484+595397882+591451459+589015762+588487261
3088+589190605+589920923+589981792+589940370+590741551+592130299+592874945
3078+592497444+591969063+592298699+592859472+592119883+589799966+587236328
3068+585602476+584676544+583773853+583238186+584121551+586364403+588072370
3058+587241446+583997162+580253939+577514436+576226957+576259530+576766176
3048+576867746+577053005+578306827+579918222+580013711+578324950+576489763
3038+575454976+574502373+572958952+571449368+570989624+571668042+572716015
3028+573426885+573480229+572737509+571368269+569829966+568453140+567427565
3018+567053796+567437800+567889176+567371331+565820144+564284550+563666038
3008+563773147+563623953+562542987+560820088+559204599+558108159+557504579
2998+557292227+557437146+557736378+557715426+557118287+556380383+556130944
2988+556266411+555971333+554746832+553077939+551833991+551308861+551175261
2978+551083805+550822444+550062505+548653407+547090540+545932869+545032405
2968+544049638+543319982+543421613+544231826+544951185+544870447+543880515
2958+542278452+540396906+538604226+537341915+536942137+537387312+538184098
2948+538475382+537613812+535905965+534421849+533779134+533456361+532656263
2938+531538149+530958711+531193882+531603293+531553622+531082618+530528227
2928+530012730+529437628+528707551+527909500+527198148+526333086+524732770
2918+522488052+520752810+520470196+521306539+522247643+522657114+522361736
2908+521324541+519803217+518365099+517241024+516066797+514575516+513076830
2898+511963051+511128213+510268148+509563178+509495444+510001308+510458283
2888+510600855+510782200+511156570+511293904+510783223+509687085+508411287
2878+507463199+507126819+507168001+507098763+506739986+506204319+505477795
2868+504434609+503181630+502071372+501331723+500926827+500885133+501326274
2858+501882953+501685623+500454047+498991937+498058871+497436385+496508707
2848+495143923+493690904+492555871+492032758+492189599+492582393+492387892
2838+491307498+490022880+489251440+488855786+488425604+488102078+488163610
2828+488347304+488177127+487516891+486453475+485095916+483678841+482556994
2818+481994745+481969729+482092613+481813340+480851163+479468106+478330273
2808+477914450+477951568+477724375+477000831+476207626+475634932+475158811
2798+474750152+474516667+474236431+473485884+472263430+471053108+470264178
2788+469887400+469655992+469350499+468953430+468607387+468372698+468006787
2778+467143019+465779379+464427509+463651162+463542699+463616393+463187444
2768+462021736+460640033+459792401+459630141+459592241+459147969+458413497
2758+457792697+457291530+456662963+455944537+455267774+454506028+453652797
2748+453054153+452885361+452911341+452831084+452363181+451291908+449932542
2738+449041712+448889176+448951852+448629019+447792014+446725678+445895988
2728+445601754+445586551+445177923+444028139+442594838+441689437+441615081
2718+441922320+441932886+441309257+440199692+439035489+438139028+437476264
2708+436884123+436365224+435948377+435536347+435107910+434782097+434554362
2698+434173308+433320679+431931811+430415906+429351767+428867910+428606097
2688+428277906+427894233+427560563+427392433+427445627+427521669+427290050
2678+426657119+425776975+424823799+423986583+423484633+423356180+423358829
2668+423248920+423093133+423097889+423115651+422634803+421458468+420095670
2658+419264204+419242680+419769165+420291495+420312086+419788522+419185393
2648+418895042+418701234+418069325+416876222+415579743+414691110+414309725
2638+414187655+414094995+414015040+413935385+413611077+412879766+412147402
2628+412030147+412472011+412727260+412278142+411326351+410368389+409695239
2618+409318851+409112670+408949779+408779060+408619751+408457703+408147092
2608+407633190+407305872+407654113+408465770+408989516+408934125+408590069
2598+408086493+407360360+406673572+406392795+406401525+406238693+405720547
2588+405170130+405027829+405281694+405392175+404915452+404055899+403398794
2578+403251285+403437086+403616023+403631075+403523544+403314925+402948201
2568+402461633+402029975+401759011+401613851+401623996+401897910+402258734
2558+402192054+401500299+400739607+400620938+401179032+401833187+402121822
2548+402116253+402114085+402140968+401963687+401537568+401111359+400848252
2538+400710106+400761222+401190772+401927321+402537645+402622658+402141871
2528+401318021+400449708+399923675+400120102+400978210+401814914+401965523
2518+401550212+401241828+401363418+401599702+401571645+401317720+401097722
2508+401030620+401107686+401326872+401641366+401916454+402001317+401782853
2498+401324072+400987632+401112683+401530885+401740076+401553162+401246856
2488+401154136+401391535+401841375+402186726+402110894+401640463+401204108
2478+401229968+401704734+402191181+402311024+402143677+402005320+401923107
2468+401680741+401386296+401480160+402045148+402612393+402785550+402640600
2458+402494206+402610015+403001996+403327568+403204564+402677297+402129739
2448+401863321+401953692+402290975+402607727+402681933+402575245+402517115
2438+402595505+402703607+402743194+402735126+402719502+402708665+402791390
2428+403038060+403213716+402921860+402183444+401536996+401421277+401733754
2418+402095541+402333752+402566997+402931403+403371971+403691673+403758082
2408+403672618+403678458+403872537+404120863+404274964+404346280+404422834
2398+404498334+404443064+404206448+404044128+404332131+405074310+405851107
2388+406317294+406455862+406285113+405583665+404014175+401485579+398359573
2378+395157916+392039918+388786182+385293874+381780944+378507671+375568398
2368+373005725+371035764+370015126+370018136+370619971+371430364+372595892
2358+374549867+377604196+381824263+386946089+392267442+396684870+399066379
2348+398812544+396336479+393129133+390709362+389261942+388149427+387282830
2338+387104826+387740347+388742291+389571740+390043316+390279359+390450228
2328+390681967+391055465+391619850+392475791+393717421+395237420+396759317
2318+398032225+398922544+399497797+400051826+400855326+401907604+403096913
2308+404444238+405940184+407317733+408295835+408942313+409524972+410127800
2298+410682642+411248623+411976563+412879465+413828607+414656130+415162595
2288+415215187+414929984+414586680+414344044+414182989+414034276+413831617
2278+413561647+413338788+413295379+413363624+413291134+412903367+412288438
2268+411722005+411431112+411428222+411579915+411792960+412074189+412472221
2258+413013788+413625437+414152584+414562025+415004009+415559393+416102194
2248+416485325+416653996+416551975+416120437+415395448+414502510+413608037
2238+412883529+412419269+412180185+412085689+412075122+412077952+412023886
2228+411931106+411895885+411915392+411808373+411472776+411136547+411118304
2218+411447700+411956845+412547059+413111445+413459053+413575073+413726344
2208+414159387+414866796+415677520+416438785+417106727+417731531+418379304
2198+419092643+419898972+420776287+421614797+422275996+422703831+422984639
2188+423297237+423783593+424485192+425348478+426183044+426706278+426792074
2178+426611000+426448138+426508948+426902525+427571641+428210624+428496730
2168+428443868+428359848+428493358+428863304+429358029+429873857+430399499
2158+430998233+431685773+432430540+433325526+434531994+435934318+437119384
2148+437845577+438312968+438905079+439869845+441214520+442717752+444117728
2138+445403370+446798047+448411188+450111931+451824655+453705870+455867712
2128+458161439+460415519+462620650+464695673+466394038+467664627+468792345
2118+470042856+471456830+472986011+474537289+475937475+477111402+478224218
2108+479458653+480756126+481972318+483233365+484916377+487232621+489973028
2098+492645791+494713228+495799282+495868550+495092927+493482495+490928973
2088+487652117+484202586+480889546+477515515+473799716+469848114+466101098
2078+462952996+460527986+458737625+457392498+456262101+455167799+454076176
2068+453078838+452294514+451789945+451532678+451389535+451233447+451100900
2058+451174654+451538669+452030113+452463668+452872808+453323522+453677873
2048+453846243+454096526+454781929+455912055+457287165+458928031+461104865
2038+464004942+467589218+471789115+476651326+482111729+487682070+492656448
2028+496741319+500212314+503338199+505971738+507931794+509464919+510918570
2018+512117603+512499199+511843478+510488688+508878678+507254098+505688582
2008+504137545+502482500+500655983+498715645+496818776+495148378+493756771
1998+492536244+491527737+491086295+491430743+492206878+492860160+493261895
1988+493598816+493963283+494440217+495258528+496481915+497825115+499066655
1978+500408290+502179445+504315037+506336595+507917224+509337701+511145793
1968+513400927+515566713+517218386+518519532+519897983+521578858+523498154
1958+525487712+527478173+529520895+531637913+533788646+536034749+538579120
1948+541608161+545168655+549024587+552491879+554797949+556015767+557162178
1938+558982433+561168569+562988041+564320795+565764693+567889176+570666430
1928+573612144+576354597+578881930+581199318+583233610+585247733+587529599
1918+589488271+590166328+589837354+589712243+590298906+591263611+592397199
1908+593710626+594879134+595470011+595571280+595662254+595987916+596470179
1898+597197727+598444083+599996655+601139214+601610037+601763867+601686500
1888+601140598+600299258+599579116+599084691+598815684+598907079+599369533
1878+599926272+600118274+599626559+598876193+599118347+601173953+603861859
1868+604362966+601426705+596983147+593424520+591301722+589826336+588332828
1858+586800185+585410414+584184950+583046305+582045053+581365611+581125985
1848+581527931+582909212+584619227+584315119+580734997+575944524+572448392
1838+570763785+569994212+569334940+569025714+569823223+571381394+571842765
1828+570235283+567749254+565343601+562611142+559485949+556928934+555626585
1818+555390571+555787640+556665346+557974679+559343137+560043049+559643271
1808+558558873+557645464+557631316+558957688+561425896+563851297+564892285
1798+564661630+564851826+567133210+571445937+575137020+575217157+572647378
1788+570902925+571598743+573855984+576368505+579005475+582058239+585101248
1778+587646884+590309863+594415356+600205696+605275171+606527969+604430640
1768+601558920+599342259+598612002+600114662+603208065+605930650+607583709
1758+608929648+609954140+610636111+612604295+617283686+623300647+627457376
1748+628821077+629229766+630129929+631674072+633750509+636172298+638198763
1738+639720569+642500773+647978154+653541693+654474669+651642265+648903424
1728+647825528+648329706+649857352+651661230+653836830+658014692+665876593
1718+676397199+684280775+684974064+680513047+675698791+673793162+675981225
1708+681604489+688261396+693138930+696482255+701776124+710719894+719130647
1698+722215922+721349054+718793364+715614767+713797704+714465104+716702718
1688+719971385+726225323+736879831+746768138+748535590+744989667+742691425
1678+744260072+748842769+753547748+756566373+759657369+764728108+769784940
1668+771125401+769563737+768920058+770641573+773046081+774118619+774333981
1658+775871561+781005579+791354774+804437271+810156145+806846717+804688517
1648+807270398+810146331+807525376+801209786+796781641+796576755+800093598
1638+805745762+810672726+810299379+803730916+796181854+791570678+790221367
1628+790862999+792389441+794421807+795950958+795109136+792053362+789233060
1618+787776098+785859029+781570446+776498382+773235013+772413240+772749619
1608+772338161+770434399+767832048+765628392+764219896+763314495+762648660
1598+762509340+763177944+763987796+763675620+761935080+759824746+758465018
1588+758070779+758204681+758524022+759128024+760149926+761590211+763965098
1578+767788999+771076813+769930883+765638145+763553640+765306281+767878769
1568+768210874+767050795+765886983+765390632+767737462+776131357+789251544
1558+795530468+789562877+780273214+772731377+767793756+765743207+765829425
1548+766818875+768879840+773420091+781195112+791242126+799747043+800187522
1538+793262390+787620522+787319785+790177777+791845225+791882012+793862719
1528+799560219+807366308+815426653+824141394+833041514+838074022+837359178
1518+834590775+832667023+831921172+833014481+836886187+843445739+852616612
1508+864521691+874721752+875440269+869872998+866223999+866851783+870262661
1498+874481524+878533432+882004156+884796883+887544935+890993804+894740459
1488+897297233+897873720+897291393+897579004+900896621+907479111+914802938
1478+920358228+924602619+929584191+935320344+938884811+938744347+938048709
1468+940144173+944448290+946859662+944284043+939423970+937408763+940686823
1458+947755490+953291754+954270729+953924837+954605302+955923667+956842675
1448+956178345+953325892+949551902+946934560+946716970+949688152+956289367
1438+965331096+973039106+976161831+976418495+977297526+979841776+982220034
1428+982161813+980287553+979468248+981740361+986858363+993205864+998630383
1418+1000920738+999607551+996806516+995079342+995600318+997621726+999234445
1408+999273219+998093512+996968896+997288176+999185015+1001291496+1002502330
1398+1003362275+1004634099+1004758969+1001724690+996877501+993330072+991721387
1388+990168574+987973527+987177102+989135172+992161805+993994222+995135696
1378+998321940+1004769325+1012036556+1015883216+1014606455+1010614093
1370+1008047084+1010194928+1016870379+1023782807+1026532004+1025464043
1361+1024342737+1024759133+1025483670+1026070453+1027705810+1030737019
1352+1033834336+1036365582+1039530090+1043872379+1047974680+1051058029
1344+1054261311+1058021994+1059975850+1056976551+1049645801+1042857400
1335+1040425015+1042028101+1045927503+1051200239+1056240814+1058850089
1327+1059545486+1061206371+1064130772+1065196205+1063308096+1061575925
1318+1062112495+1062674231+1060911595+1059010964+1060887512+1066646364
1310+1072171971+1073741823+1071157836+1065787564+1058460185+1050955074
1301+1046301271+1045531939+1046424095+1046830737+1047660035+1049875191
1293+1051258640+1048578080+1041081398+1030984352+1021647245+1014948193
1284+1010087216+1005605909+1001498068+998278229+995557149+992397096+988092136
1274+982555691+976960484+972844154+969384870+964127306+956649529+948963976
1264+942346264+935785267+928079484+920111497+913840942+909660009+905996922
1254+901603156+896958144+892838323+888795988+883692977+876636713+867339765
1244+856731858+846824165+839018678+832964268+827258158+820847078+813818991
1234+807401469+803183871+801849069+802477275+803100664+802024996+799152614
1224+796218821+795126235+795965528+797304484+798270273+799305662+800931808
1214+803038590+805371692+807748987+809928139+811989645+814515954+817994565
1204+822393630+827199456+831483042+834286125+835626646+836856084+839465840
1194+843795786+848987001+853741952+857178899+859291462+860687795+861911393
1184+863340780+865759799+870155251+876407082+882775053+888051943+893778463
1174+902036650+911773716+919778730+924735376+927828599+930668047+934600563
1164+940106422+945758767+949644622+951968874+954002685+955714265+956799927
1154+958366347+961808292+966568361+970193276+971185858+970569634+970065456
1144+969946726+969217493+967374479+965750983+967151230+973516432+983400764
1134+992183058+996080594+995876851+995200359+995902500+996606266+995833863
1124+994466670+993050589+989842731+984225427+979343258+978682420+981590384
1114+984142702+983607758+980388280+976434270+973887671+974831605+980374793
1104+989263113+998589261+1005063258+1006413533+1003460112+999315485+996742094
1094+997004659+999278457+999817856+994829120+986052907+979500279+977660216
1084+977422035+975725025+972669552+969251269+965819379+962839948+960774950
1074+958760947+955145785+949101189+941529428+934660470+930445219+928897885
1064+928807754+929058037+928622315+927699875+927809995+930378208+935504579
1054+941651408+946004715+945847152+941881401+938044976+937340307+938955314
1044+939465393+937442479+935088846+935326365+938831708+943085070+943888660
1034+939948257+934930801+932630933+932688010+932327668+931297637+932665733
1024+937697639+943150155+945601023+946277515+948795395+953864087+958518612
1014+959288787+954918984+946531350+936122670+925685632+916829764+910084292
1004+904478307+898689292+892518199+886406652+880640696+875402639+870748175
994+865994970+859979273+853002723+847066681+843466691+841572622+840137756
984+838548638+836567629+834007605+831101748+828307997+825886028+824117492
974+823047845+821726410+818707483+813814958+808758186+805368381+803520672
964+801382882+797925103+794623141+793866633+796125499+799341245+801336101
954+802576196+805365190+810358683+815601315+819508183+822936099+827400007
944+833093594+839335792+845533135+850918218+854630735+857040603+859990893
934+865201133+873184714+883523975+895111157+905772228+912952459+915751327
924+915356365+913181248+909961288+906565883+903783813+901569922+899343627
914+896425067+892138651+886619365+881612385+879359178+880210874+882256365
904+884114791+886684750+890686625+894534068+896562400+897064832+896617550
894+895733764+896760603+902154115+910739651+918831906+924625377+928092790
884+928075871+923383898+916303009+911412229+911090179+914310440+919143601
874+924783723+929953624+932378905+931615292+929915453+929682630+931433827
864+934030638+935926514+936494512+936374819+936335383+936344776+936151630
854+936289324+936993933+937247046+936323462+935004435+934949646+937359875
844+941902233+946433152+948598396+948802981+950389630+954812717+959001115
834+959464834+957462391+957666976+961213381+964568146+965332240+964756956
824+964386439+964316779+966253054+973345864+984561746+993708296+996105339
814+994014632+992631785+993167452+993095564+991407404+989706903+989589016
804+991227083+993494680+993705587+988995189+980582329+973902001+972826212
794+974854665+974068053+968637995+962369908+959265727+958531797+956330309
784+951634542+946189853+940714699+935070122+929503272+924381296+920267977
774+917684230+916313846+915632658+916071932+918346995+922450560+927597101
764+932526293+936501737+940003889+943578772+946064260+946227663+946115436
754+948669501+954124906+960023259+962009506+957169602+947918472+940310105
744+939975832+948391583+960537251+968236892+968223285+962569255+954179274
734+947872473+949165852+957469435+964473018+963165791+956047634+951182744
724+951711065+953534090+953921104+955561217+959696934+962318430+961100914
714+960834134+964218942+965975557+962175739+955942030+950898986+948206204
704+950174509+959109549+971578411+978817826+975446144+963985096+950547555
694+940086554+934663721+933907935+935826268+937620032+936910726+933376604
684+927919332+922070229+918010555+917261693+919047148+920045871+917391983
674+911144607+903093172+893665875+883305542+876340733+877520139+883502541
664+890627381+900939789+914711663+926262721+931181617+931624805+930996660
654+929282671+924168823+914652359+904706855+901158523+906365513+916043755
644+920387007+912697058+900069369+891571977+887042624+881991151+876934801
634+876676209+883126545+892682445+900895416+903935115+899302325+889216417
624+877873677+867281966+857832452+850254791+845773242+847572304+858308513
614+871022661+871644123+860268690+852176917+856675624+871802589+886515928
604+887621218+875238032+858878920+844258240
##END=
