##TITLE=<SNM>
##JCAMP-DX=4.24
##DATA TYPE=INFRARED SPECTRUM
##DATE=29/4/2025
##SAMPLING PROCEDURE=Instrument type and / or accessory
##ORIGIN=Admin
##XUNITS=1/CM
##YUNITS=ABSORBANCE
##RESOLUTION=4
##FIRSTX=4497.3318
##LASTX=599.83466
##DELTAX=-1.4281778
##MAXY=2.1234336
##MINY=0.38788944
##XFACTOR=1
##YFACTOR=1.9776016e-09
##NPOINTS=2730
##FIRSTY=0.39709061
##XYDATA=(X++(Y..Y))
4497+200794035+200086367+200251623+201279528+202653876+203295659+202629674
4487+201410516+200772214+201054896+201960961+202999972+203584791+203450518
4477+202946564+202487414+202076457+201599132+201116427+200781347+200830429
4467+201466833+202469526+203351041+204026159+204773869+205517766+205731397
4457+205160398+204219235+203540892+203315024+203184956+202780855+202247003
4447+201959770+201798522+201300024+200614462+200539926+201348564+202344189
4437+202853086+202827271+202335599+201469123+200789258+200902795+201578019
4427+201948965+201562135+200838070+200475337+200558854+200423707+199481068
4417+197951696+196620734+196141345+196725214+198153075+199746992+200663183
4407+200653749+200321367+200332790+200722272+201158035+201327918+200931895
4397+200003964+199265779+199407722+200094987+200384299+199997394+199572301
4387+199736066+200367541+200821387+200761168+200513870+200407914+200191630
4377+199612236+199078489+199074119+199389684+199584899+199684662+199812229
4367+199699476+199143727+198504837+198289368+198540538+198898133+199015422
4357+198879883+198817945+199052012+199342002+199256631+198786374+198497423
4347+198889693+199702113+200196874+200100773+199812516+199722006+199834593
4337+200013247+200184532+200317765+200344560+200066851+199359077+198628592
4327+198631199+199470715+200096961+199349145+197529376+196311228+196832226
4317+198505877+200021581+200782281+200988377+201087929+201441847+201899189
4307+201804218+200993968+200263981+200260560+200578957+200520607+200177178
4297+200154287+200645416+201349378+202012424+202523853+202696871+202471786
4287+202129036+201983882+202084760+202313883+202492266+202464839+202368723
4277+202535140+202892945+202883934+202241096+201437491+201043383+201056222
4267+201273094+201917393+203256387+204820194+205714444+205644790+205094452
4257+204625023+204395825+204262124+204133201+204165119+204560795+205289532
4247+206121573+206770092+206983648+206781395+206546560+206583647+206742394
4237+206729193+206517581+206273493+206163000+206307581+206692573+207022755
4227+206876788+206201700+205475284+205173674+205284483+205502425+205656771
4217+205766691+205898206+206093015+206251792+206062936+205320003+204331295
4207+203814050+204298533+205622306+207008032+207681537+207507283+207128169
4197+207395690+208423083+209309014+209162791+208261729+207727515+208235824
4187+209432136+210453154+210751207+210434844+209947723+209602531+209505240
4177+209659119+209948160+210261931+210713140+211411586+212026545+211988524
4167+211227808+210379221+210072065+210189942+210102024+209635082+209447823
4157+210182121+211497018+212302656+211927279+210797984+209864326+209629944
4147+209981013+210655663+211491472+212289365+212691732+212365031+211542273
4137+211274495+212466466+214556787+215955834+215967423+215356051+214914396
4127+214551527+213987234+213504785+213588212+214209214+214860476+215202473
4117+215384020+215686610+216070576+216210455+215940402+215529626+215359200
4107+215450208+215573133+215653531+215751290+215863184+216026602+216348873
4097+216793873+217235663+217680768+218162117+218579615+218807216+218777905
4087+218547169+218434551+218808029+219592706+220307458+220605481+220535571
4077+220381677+220349307+220281326+219799104+218901403+218150257+217984126
4067+218144289+218092509+217794170+217778527+218426293+219440364+220175490
4057+220370992+220280482+220167488+220076978+220046537+220121691+220256129
4047+220529438+221189742+222108736+222584615+222173869+221369828+221015925
4037+221292504+221634772+221587046+221414148+221619566+222045910+221975639
4027+221221961+220581112+220930027+222235866+223606040+224132417+223737615
4017+223252846+223466552+224179044+224541265+224178742+223509004+223040119
4007+222860138+222794102+222706229+222671357+222987238+223849434+224897111
3997+225341222+224745372+223552722+222678892+222670408+223398647+224418068
3987+225340453+225898252+225966051+225647307+225179491+224777124+224774713
3977+225574263+227003676+228100587+228061329+227161564+226280063+225837354
3967+225711038+225946430+226913558+228585281+230144597+230707836+230151770
3957+228949144+227623699+226649352+226499361+227481258+229452827+231622791
3947+232945856+233132226+232840276+232573026+232094601+231263238+230583840
3937+230491748+230886083+231659442+232976147+234589865+235593764+235628470
3927+235450193+235653637+235833255+235616489+235570119+236214886+237030697
3917+237010563+235696013+233504559+231333479+229875945+229302775+229784260
3907+232032468+236610246+242594365+247653386+250186130+250208358+247848798
3897+243419790+238844800+236882635+238804579+242716929+244902792+244677361
3887+244747738+246352279+247696396+247700164+247787886+248011343+246339936
3878+243286874+242017759+243805445+247240350+250980044+254119020+254807505
3868+252975695+251562994+252168730+252870265+251424471+248505847+246228193
3858+246394987+251013951+261532071+272778248+273033141+262934961+251879553
3848+244815974+242848218+245411433+250902615+257342750+263388204+267930281
3838+269134912+266378410+261884225+257904678+254735411+252087865+250583976
3828+250827129+252151445+254103649+258050916+264438066+269308969+269265598
3818+266930572+264604136+260566781+254225504+248531029+246392877+248784008
3808+254268062+259391718+262674402+266127496+269945192+270506396+267136126
3798+263511898+260986629+258004682+254285001+251541821+250836638+251787250
3788+253651672+255725505+257228008+258279256+260268818+263716759+266580136
3778+266592885+264571555+263111882+263997542+267645430+272940341+277610422
3768+280413701+281920573+282784472+283661573+286006303+290649410+295987119
3758+299551852+301801280+305701167+313618759+325140265+335266596+338955112
3748+339025308+341183383+346098652+348379908+345725882+343280484+345862687
3738+354716242+366981720+376574094+379584523+377653764+374657319+373346265
3728+374819411+378771591+383889008+388760093+392334168+394205733+395273046
3718+396987613+400139790+405645379+415177744+428463908+440231325+444948907
3708+443842714+441954753+442908860+447226938+452626796+456500824+458624629
3698+460266559+462354016+465482865+470407568+477720524+485963505+490278720
3688+487431196+481162527+476615657+475269068+475957583+477185210+479133300
3678+483500265+489922256+494184636+494973547+496685129+501242005+504432642
3668+502487897+497815917+494204227+493102042+494137889+496846739+501781660
3658+509080631+516759545+522623014+527425801+533349068+540500836+545257630
3648+543358216+536260519+528982525+524954694+525022268+527760535+530883025
3638+533565473+536759515+541073011+545689534+550313894+555872589+560749279
3628+560219842+555062429+551003735+551084691+555141335+561762159+568407156
3618+572027496+572660071+573299277+575702269+578899505+581086213+581161743
3608+578686658+574593182+571262245+570402776+571415174+572340287+572790396
3598+574768958+579513274+585037489+587982575+588214652+589713749+595652025
3588+603501833+606980033+604787298+601391017+599817656+599498957+598919609
3578+597866281+597070227+596158074+593548926+589797899+588935960+594207723
3568+603217553+609479833+610685066+609602744+606810587+601343457+595292939
3558+592545449+594793220+600541133+606417804+609746752+611276350+613756439
3548+617525429+620325664+621131302+620822610+619870311+618471037+618272717
3538+621130940+626318915+630416972+630398768+626707298+622380057+619533106
3528+617841596+616309346+614983674+614481966+615105861+616428097+617147656
3518+616205002+614366410+613725938+615542347+618977447+621650311+621612515
3508+619326889+616959945+615933020+616583679+619403926+624706855+631200428
3498+635826716+636173506+633011050+629164360+626963667+627187606+629203361
3488+631436966+632508016+632452498+632507956+633505585+634813595+635269430
3478+634690383+634071853+634471085+635746303+636368149+635147484+632970120
3468+631329306+630458083+630234626+630915184+632257252+633224501+632876928
3458+631167937+629181178+628622927+630095320+632161407+633414080+634258780
3448+635197938+635632073+635655703+636128115+636495640+635396620+633350968
3438+631973274+631200669+630004358+628925471+629160381+630374113+631567230
3428+632703744+634131228+635390351+635501025+634221769+632577036+631945666
3418+632579688+633373633+633277607+632306139+630818857+628653187+626149228
3408+625153407+627395089+632102876+635953907+636133420+633290386+630281283
3398+628602191+627632350+626607715+626099437+626789157+627853095+628074804
3388+627474297+626978858+627529031+629547498+632287935+633562248+631754037
3378+628576994+627320764+628651439+630614991+632367624+635140552+639446213
3368+643737285+646073788+645918869+644586084+643867309+644036032+644043687
3358+643771042+644405366+646346855+648719706+650534669+651066155+649649943
3348+646470248+642836827+639895297+638235494+638567214+641398733+645899881
3338+649566697+649998480+647696880+646026951+647609836+651615786+654926529
3328+655439510+653757886+651558158+649305083+646714622+644524840+643786232
3318+644173228+644912861+646140457+647765418+648953290+649646145+650639917
3308+651623019+651269780+649575437+648082248+647925340+648813200+649541922
3298+649132381+647954998+647467877+648239458+648820916+647471735+644487225
3288+642059942+642213836+645288825+649794253+653391747+654609036+653808400
3278+652451805+651521508+650842155+649947604+649120928+649053475+650041942
3268+651972280+654267732+655686234+655262709+653592659+652178437+651796806
3258+652318527+653564991+655558200+658261867+661298639+663117700+661585148
3248+657012328+652992936+652633729+655010499+656343103+654777337+652750491
3238+653398619+656053459+657077310+654668351+651075981+649561573+650576081
3228+651498421+650052612+647295779+646083613+647429479+649441797+649585866
3218+647634973+646134309+647672949+651690954+654296485+652460124+648091591
3208+645491546+645939605+647143934+647050018+646133826+645823748+646365120
3198+646767788+646255652+645227581+644590424+644491445+644243997+643396102
3188+642244820+641194566+640279520+639630126+639848580+640953507+641178351
3178+638558352+633920611+630168740+628517498+627584970+626204504+625061480
3168+625313269+626723754+627715958+627106470+625594895+625029050+625862779
3158+626406924+625229600+623065438+621331551+620232109+619308805+618654107
3148+618683222+619296869+619751077+619181374+617566781+616199637+616418693
3138+617753889+618218646+616574818+613532078+610686031+609043951+608498359
3128+608240965+607604833+606468680+605212873+604655345+605428734+606913484
3118+607639373+606840847+604736422+602002133+599786190+599180560+599985053
3108+600901908+601246949+601438216+601772528+601956562+601795253+601471069
3098+601332727+601705256+602414447+602612043+601819908+600631071+599402871
3088+597311526+594194884+591744452+591053345+590834650+589649310+588221464
3078+588013680+589092446+590439457+591137496+590985289+590504257+590164340
3068+589762214+589076110+588379517+587666529+586371660+584238903+581587017
3058+578850920+576697909+576249187+578247399+582101022+585981530+587825607
3048+586782527+583939313+581371456+580444415+580805852+580837559+579477226
3038+577499689+576265462+575735061+574957151+574049820+573854393+574050966
3028+573382102+571554963+569595510+568101176+566618234+565220709+565192920
3018+567146345+569515218+570167504+568771185+566451139+564134830+562215162
3008+560987022+560553189+560584896+560736379+561137722+561864936+562081943
2998+560761275+558425496+556874016+556949064+557724322+557997027+557499659
2988+556401965+554760428+552896579+551446670+550657187+550354583+550657066
2978+551715639+552688192+552237601+550361454+548492059+547499976+546740331
2968+545383313+543708140+542542752+542134839+542163110+542430692+542926553
2958+543348330+543097446+541948454+540313909+538711674+537397093+536560531
2948+536472041+537142050+538093445+538748444+538793533+538077531+536599894
2938+534788729+533276371+532133950+530894176+529543549+528752558+528901811
2928+529603286+530237790+530407297+530077326+529653921+529488996+529229853
2918+528251091+526542221+524537980+522609270+521245381+520961102+521579693
2908+522139390+521918947+521134225+520292479+519401665+518208730+516737964
2898+515234467+513959612+513224922+513160664+513344457+513189900+512738585
2888+512514164+512610009+512479684+511796956+511066848+511035984+511780198
2878+512625561+512723757+511588569+509599579+507964190+507397199+507167412
2868+506304689+505181014+504750617+504847215+504470497+503370543+502250154
2858+501591296+501175095+500694515+500123364+499408477+498450391+497457554
2848+496799932+496512247+496301509+495935641+495346045+494561354+493776120
2838+493242765+492890339+492345200+491497697+490727322+490309222+489861585
2828+488798190+487270400+486158239+485964982+486204655+486109292+485484643
2818+484552206+483369458+481932389+480651174+480060040+480061246+480019111
2808+479611469+479079470+478632164+478253246+478066077+478157462+478097302
2798+477325511+475934496+474536579+473573821+473096315+472878193+472551266
2788+471939608+471268664+470759240+470274802+469606963+468769587+467913675
2778+467245625+466930603+466810225+466450837+465735437+465067266+464696516
2768+464266239+463380790+462293465+461648080+461658689+461830848+461507990
2758+460507497+459153102+457876166+456933029+456352686+455963249+455543793
2748+455042778+454564790+454182435+453904757+453669606+453242674+452430013
2738+451401068+450459107+449642136+448882581+448273816+447900564+447689826
2728+447532074+447324833+446947090+446318252+445428372+444394786+443510211
2718+442958410+442582837+442223600+441931153+441578065+440799341+439609992
2708+438507867+437762267+437143345+436418813+435662544+435078041+434798343
2698+434736466+434522473+433860029+432941878+432160171+431556289+430956324
2688+430394427+429980215+429635746+429334770+429259149+429392457+429282145
2678+428475904+427016261+425400161+424189111+423711877+424003480+424840283
2668+425746287+426122734+425613943+424410820+423122672+422312814+422108797
2658+422163260+421941491+421116593+419841496+418674179+418092721+418053599
2648+418182025+418296466+418391799+418232329+417513192+416459291+415723517
2638+415572395+415620288+415473778+415214002+415067221+414960526+414668862
2628+414192291+413733351+413365283+412918550+412225424+411362278+410592807
2618+410112227+409891362+409784125+409739277+409767277+409684904+409193203
2608+408360167+407703630+407606942+407911987+408220167+408371741+408472498
2598+408566444+408478195+408041830+407315941+406432602+405462701+404625657
2588+404319406+404650613+405206874+405566865+405748879+405874472+405752375
2578+405229599+404678311+404595939+404838535+404787207+404267897+403776436
2568+403702624+403800940+403624772+403151245+402697971+402455828+402423397
2558+402637631+403111671+403613078+403809861+403604579+403147508+402636697
2548+402219260+401978834+401941612+402117568+402511888+403052386+403543817
2538+403723631+403393238+402611229+401754986+401228985+401104266+401163611
2528+401275310+401554103+402095174+402710419+403075895+403107723+403046298
2518+403102087+403170625+403044670+402748637+402456461+402240448+402117478
2508+402130317+402188939+402116242+401978653+402003881+402149185+402211062
2498+402299794+402655173+403087047+403184911+402955275+402697519+402491664
2488+402311970+402300095+402441994+402383221+401997039+401662577+401642413
2478+401749741+401885883+402297835+403036261+403658981+403705969+403174754
2468+402463544+402047553+402173900+402717472+403334827+403773060+404005258
2458+404131574+404246226+404402773+404636688+404890375+404895680+404339177
2448+403312101+402425296+402239032+402726966+403480402+404205417+404776869
2438+405054125+404997040+404825755+404777713+404790341+404615982+404188116
2428+403730563+403492639+403473621+403475158+403359722+403155223+402969471
2418+402940115+403196877+403696686+404150713+404289537+404146403+403911342
2408+403627003+403281540+403090362+403394865+404277994+405424424+406348753
2398+406718690+406540744+406117158+405834929+405974265+406544783+407153457
2388+407229832+406594965+405639652+404801463+404069245+403058565+401387460
2378+398994475+396259825+393735190+391602644+389558015+387381797+385356488
2368+383837017+382683866+381519653+380452069+380118753+380956279+382784443
2358+385187313+387920426+391005030+394653853+398710407+402149727+403728725
2348+403041355+400854226+398672551+397534892+397172340+396958407+396912172
2338+397165016+397312701+396840168+395848326+395025146+394939940+395470583
2328+395995981+396118951+396053005+396305397+397137950+398439179+399978783
2318+401534573+402851022+403730443+404175880+404381645+404652542+405292923
2308+406369278+407572401+408501041+409108751+409746691+410735339+411940572
2298+412855045+413172539+413162171+413322063+413822806+414450861+414932797
2288+415187479+415339746+415488878+415501084+415239561+414906244+414783876
2278+414782580+414671756+414518645+414435459+414227916+413752279+413268293
2268+413047910+412964875+412767127+412490896+412373621+412537763+412951915
2258+413583436+414390581+415210355+415842569+416252622+416554744+416850567
2248+417176861+417488899+417645596+417538690+417209231+416722382+416046043
2238+415187660+414337113+413754027+413530510+413490997+413364168+413086007
2228+412852664+412820957+412867704+412723907+412293359+411772723+411448207
2218+411446941+411756387+412397643+413412301+414669073+415808963+416471648
2208+416624035+416637568+416946110+417649394+418517814+419294005+419886796
2198+420337387+420717843+421113428+421648290+422388405+423224334+424028014
2188+424846341+425706894+426385765+426635685+426511147+426309842+426361773
2178+426897570+427867893+428860971+429404091+429403308+429191967+429144708
2168+429364759+429770080+430318053+431009099+431781705+432547950+433273206
2158+433942642+434524915+435029637+435530802+436078775+436681542+437415780
2148+438374197+439441811+440395316+441289084+442388857+443697199+444954513
2138+446089912+447310034+448785019+450512756+452437036+454516234+456671657
2128+458804203+460958932+463320722+465872573+468284124+470330229+472042957
2118+473347471+474132885+474716423+475595272+476763071+477787947+478469319
2108+479058463+479935231+481305450+483195189+485568101+488260826+490840256
2098+492790908+493922027+494392028+494355378+493813132+492695304+490820394
2088+487933115+484110055+479967421+476141587+472727072+469487579+466365571
2078+463481367+460910587+458763303+457231866+456307296+455657480+455009865
2068+454471778+454211942+454004490+453486536+452756699+452223495+451982798
2058+451865855+451904645+452216080+452650305+452996221+453306239+453738746
2048+454341242+455152336+456290417+457799731+459518698+461274948+463224184
2038+465766662+469049164+472836027+476938605+481371064+485985809+490423603
2028+494556562+498549009+502361219+505577685+507842666+509189074+509890308
2018+510223896+510360068+510265188+509763660+508813591+507608057+506331513
2008+504949329+503290552+501247973+498911591+496594800+494679291+493332521
1998+492438362+491921403+492008327+492875692+494121252+495021680+495350506
1988+495478841+495756158+496271520+497074024+498229888+499676571+501171297
1978+502443019+503487003+504650553+506231690+508146054+510197674+512362500
1968+514579046+516619394+518362141+519932308+521544791+523377174+525424213
1958+527396445+529080842+530755292+532825599+535226059+537648701+540117276
1948+542890747+546076711+549597590+553133297+556068016+558030603+559303530
1938+560307368+561296378+562714037+564937876+567523877+569592496+571045298
1928+572702327+575314429+578845073+582481206+585341540+587454404+589440380
1918+591094155+591485792+590740795+590174045+590576774+591594235+592548403
1908+593187911+593788297+594831558+596384665+597865015+598745822+599243009
1898+599939301+600983948+601962590+602598963+603304175+604483910+605569005
1888+605715786+605194306+604747815+604236160+603136115+601705798+600711544
1878+600436789+600464096+600333892+600392182+601691090+604536052+607150504
1868+606740542+602834898+597896119+594251848+592348274+591349741+590307685
1858+588789480+586861794+584796249+582912086+581667912+581495693+582338765
1848+583860165+586063992+588512796+589091903+586161645+581376520+577357249
1838+574827369+573003545+571513611+571289310+573203794+576054845+576930167
1828+574831046+571725374+568905970+565704695+561845948+558428389+556408777
1818+555702901+555716163+556193096+557403332+559361278+561076658+561330677
1808+560243050+559120521+559096771+560638967+563515998+566503401+568002799
1798+567888268+567980255+570261541+574864682+578979919+579075522+575914272
1788+573520384+574106845+576883932+580150913+583159715+585633655+587288695
1778+588848494+592004258+597868330+605648454+611895363+612906977+609379046
1768+604776327+601407896+600437513+602355433+605965344+608767508+610004569
1758+610883387+611789934+612793591+615497498+621394905+628964110+634145334
1748+635100406+633910424+633076514+633657550+635800434+638945107+641766801
1738+644028256+647934503+655073190+661864183+662482352+658309066+653986045
1728+651303778+650587654+651730799+653820577+656418693+661086454+669816948
1718+681330015+689326964+689340889+684759208+680618653+679320771+681555822
1708+687071960+694124688+699864584+703896454+709404876+718213914+726408401
1698+729482004+728496129+724685606+718800195+714251004+713994876+717776223
1688+723734995+731776793+742532324+751552281+752440624+747890529+744130641
1678+744469172+749642861+757520035+764399037+769674718+774902840+778192063
1668+775938686+770522794+767680424+769441074+773078353+774882103+775102607
1658+776931132+783176715+795442434+811309565+819994066+818418293+817093164
1648+819787366+821008151+815167709+806448246+801340684+801304878+805201360
1638+811762386+818271391+818707998+810914311+801421158+795600065+793727536
1628+793702580+794084633+795082383+796279357+795836121+793914403+793293944
1618+794801841+794535827+788590497+780062483+774230479+772795521+774060129
1608+774932075+773779165+771407158+769251736+767725212+766462713+765444227
1598+765245665+766111765+767169493+767123439+765832489+764445753+763806005
1588+763498397+762648694+761063820+759383703+758626228+759928270+764223080
1578+771209018+777403604+777506562+772676709+769282659+769724871+770729071
1568+768418308+764369500+762375205+764024458+770220371+782680492+798705918
1558+803960622+793566227+780610546+772004229+768147411+767683980+768526028
1548+769660432+772507444+778852187+788283131+798821956+807528037+809045398
1538+802920134+796853160+795304333+796222936+795378959+793147404+793852797
1528+799528254+808226558+816664876+823919843+830825971+837128458+841986401
1518+845040172+845230475+842353143+839395639+840094462+846017849+856996355
1508+871457221+882638387+881807612+873600707+867533071+867146798+872110110
1498+879588835+885144034+886556328+886852723+890902738+900161945+909489570
1488+911005846+905204103+899728353+899474213+904181578+910735009+916320408
1478+920766279+925844244+932927835+941100440+946129457+944347287+938727288
1468+934987835+935347825+937800668+939427497+941031480+946035722+956228241
1458+969075177+976506824+973902920+966875329+960634990+956398109+954191148
1448+953699446+954192594+955097152+956411853+958695189+962486904+967534909
1438+972520164+974935452+973697065+972244263+974380215+979960551+985279935
1428+987058006+986240011+986373892+989977535+996872571+1004799958+1010275648
1418+1009796726+1003552168+995755346+990388763+988854161+990485150+993877995
1408+997511837+999615540+998761557+996072177+994751749+995678671+996301481
1398+995391920+995234288+996572619+996652128+994749820+993901986+995458047
1388+996223177+992660043+987188512+985584770+989668541+995997852+1000286574
1378+1001740882+1002180683+1002852199+1003491285+1003815289+1004834981
1370+1007425321+1010909429+1014968123+1020979700+1028738183+1033857500
1361+1033008641+1030009362+1030307506+1033757315+1036217089+1035367145
1352+1033465802+1034102115+1038313257+1044262022+1048995066+1050623583
1344+1050196561+1051379008+1056337980+1062219473+1064257893+1061900353
1335+1059025371+1059239967+1062352812+1064745194+1063877045+1060883916
1327+1057801452+1056239001+1057670404+1061647178+1064743265+1063732012
1318+1059684711+1056718225+1057304506+1060189011+1062240210+1062467826
1310+1062805995+1065314596+1069919003+1073741823+1073144451+1067842487
1301+1060884880+1054156819+1047737510+1042515477+1040162036+1041093960
1293+1043744340+1044966571+1041739074+1034291996+1026079004+1019641370
1284+1014985605+1011491309+1008974751+1006717456+1003131958+997408156+990941227
1274+985759762+981806617+977338503+971611326+965341390+959004303+952522243
1264+946370154+941274769+936714125+931518435+925578229+919371045+912605489
1254+904863342+896837699+889699192+883766884+878305600+872279315+865188732
1244+857314933+849083797+840592312+832273348+825087401+819297714+814146570
1234+809323107+805630974+803670556+802814705+801983266+800886899+800037798
1224+799704271+799469119+799059458+798912195+799447419+800390977+801108427
1214+801345266+801819667+804057552+808902837+815239261+821143781+825995696
1204+830318657+834352516+838041937+841661011+845462793+849171805+852278260
1194+854628869+856444856+857849434+858663933+858870813+859238881+861187785
1184+865709006+872309576+879129865+884404523+888134451+892176026+898646693
1174+908135988+919103463+929357105+938145588+945594957+950556521+951541010
1164+949566909+947469657+946804831+947539521+949876385+954203143+959603845
1154+964423149+968109857+970823711+971819231+969840549+965209197+960059560
1144+956559116+955643105+956693359+958290591+959998557+962721573+966473986
1134+969324132+970439850+972423053+978089769+985837523+990370679+989542918
1124+987785764+989962284+994827099+996771422+992996404+986686020+982221704
1114+980961375+982081433+983506626+983268220+981524930+979927156+979893459
1104+981884619+984404734+984965757+983854742+984210271+987474298+991896238
1094+995068881+995222956+991851149+987392499+985829144+987260245+988028088
1084+986456656+984380863+983658471+982617500+978063186+970314769+963223764
1074+959796198+959255850+958278535+954498876+948616237+943521274+941237637
1064+941313107+941830488+941555793+941361693+942881043+945050269+943817006
1054+938132688+932653321+931230720+932211290+932482489+932672972+934879391
1044+938573996+942040442+945229602+948429732+949866499+947633979+943304870
1034+940864264+942442749+946299748+948456556+946877227+944199481+944236312
1024+946738343+947872566+945851990+943361653+943520068+946208785+948940723
1014+949681259+948058228+944945503+941139019+936160336+928778179+919234391
1004+909741419+901720538+894821764+888695656+883320572+877817154+871067753
994+863514221+856833901+852189770+849507201+847721836+845636399+843199832
984+841499823+841112888+841263768+840797986+839354468+837134064+834081016
974+829975545+825073235+819992016+815097965+810868137+808084117+806626554
964+804840586+801412478+797415269+795134464+795627312+798315064+802027331
954+805669251+808541580+810841011+813478249+817192505+822168717+827784135
944+832431582+835307347+838329893+844276850+853158405+861693472+867177601
934+870964434+876264348+883473683+889923011+894291001+898636566+904320282
924+909030841+910033956+907467547+903139824+898430349+894515482+892508228
914+891858473+890537503+887852402+885210764+883905949+884025001+885638027
904+888999043+892823069+894580163+893466012+891716273+892659530+897879332
894+906074422+914258179+919709636+921372272+920239977+918247129+916899636
884+916733385+917517323+919045715+921298730+923323707+923546802+922480936
874+922693663+924740884+926019597+924812797+922913926+922694025+924355214
864+927317179+931472200+935728974+937679505+936843064+936418695+939312664
854+944352110+948012656+948807445+948266253+947917716+947658392+946473112
844+944317630+943726044+947601729+955321815+962047766+963458071+960973401
834+958991584+959113409+959633081+958633944+956145115+953845504+954040388
824+958407474+966032317+973912565+980119749+985079023+989195164+991356313
814+991633961+992076294+992436947+990182124+986057725+984290263+985836317
804+986781262+984349759+980062423+976170583+972760619+969601238+967653902
794+967475715+968088699+968236385+967923051+967028499+963736021+957286693
784+950227936+944894265+940575765+935959303+930778200+925555926+921012221
774+917046658+913724341+913031968+916958891+923356439+927203732+927400546
764+928302451+932528241+937598188+941758152+946358339+952239411+958103181
754+960454935+955907010+946435076+938540601+935974433+937415118+940585892
744+944891794+949101489+950983181+951351068+953421496+957235575+959532474
734+958274918+954595444+950496543+947403409+947234686+950723195+955417900
724+958255327+958980734+958734431+957966527+956977216+956704390+958748596
714+963830298+969573570+972134916+971555266+971165618+972451565+973932638
704+973179141+968057836+959506554+951849099+947158432+943306618+938605703
694+934668895+933113376+933523881+935767673+939935173+943546290+942936320
684+937974394+931620850+925671120+920774598+919730131+924729008+931977887
674+933249428+924181307+908522321+893018978+885562978+891584983+904352953
664+914278915+919707828+922187434+921208431+915899837+908540044+903427358
654+902908952+905685075+909462625+914016999+919461766+922986563+920356980
644+911576876+902443050+897997420+898147155+900911282+905986715+912763241
634+919237646+923490200+921228082+911469518+901531741+897053500+894655271
624+887163526+873515472+863198054+866065440+879598962+892093684+895708840
614+888678657+872966263+855872680+846067881+846830902+854458397+864741757
604+874241903+875322236+866905619+854518074
##END=
