##TITLE=<SNM>
##JCAMP-DX=4.24
##DATA TYPE=INFRARED SPECTRUM
##DATE=29/4/2025
##SAMPLING PROCEDURE=Instrument type and / or accessory
##ORIGIN=Admin
##XUNITS=1/CM
##YUNITS=ABSORBANCE
##RESOLUTION=4
##FIRSTX=4497.3318
##LASTX=599.83466
##DELTAX=-1.4281778
##MAXY=2.1222355
##MINY=0.37707752
##XFACTOR=1
##YFACTOR=1.9764859e-09
##NPOINTS=2730
##FIRSTY=0.39559892
##XYDATA=(X++(Y..Y))
4497+200152667+198857264+197406959+196932169+197462402+198111273+198281177
4487+198145230+198048456+198021948+198011800+198097823+198214605+198131629
4477+197951049+198107353+198669432+199112602+198950840+198230815+197384975
4467+196880616+197045318+198020154+199477138+200497345+200378392+199416282
4457+198371934+197594218+197098213+196946765+197131732+197478536+197888926
4447+198459962+199303269+200222662+200599487+199891826+198316083+196732078
4437+195861102+195817556+196242451+196624554+196619955+196282077+195920119
4427+195710921+195595465+195516424+195504075+195419983+194893745+193822241
4417+192806633+192694600+193609047+194818624+195658569+196063123+196012701
4407+195277612+194111596+193338510+193380171+193922437+194511371+194713814
4397+194114898+192970053+192309617+192735643+193649985+194115486+193986611
4387+193754946+193688405+193637606+193567521+193783324+194424489+195017011
4377+194958115+194352700+193749503+193135177+192082717+190935202+190781794
4367+192049469+193967507+195503562+196182379+195972607+194983266+193518395
4357+192238296+191966809+192915228+194201599+194719408+194344649+193725633
4347+193341148+193408383+194079585+195057874+195589163+195377356+195021655
4337+195150667+195625954+195956669+196074673+196232786+196415205+196388501
4327+196215310+196194577+196281384+196073437+195530070+195201089+195399054
4317+195662595+195502869+195109156+194800455+194398147+193734877+193257388
4307+193527759+194488286+195624808+196558390+197185185+197493735+197526064
4297+197383060+197160819+196944066+196807199+196825745+197178807+198017515
4287+198975343+199192367+198268843+196861858+195956775+195881669+196217587
4277+196401423+196260229+196013772+195888937+195963108+196341381+197049721
4267+197743449+198028718+198023335+198108634+198285806+198269642+198036876
4257+197903356+198218435+199098112+200196154+200800030+200561806+199980276
4247+199729355+199772721+199602139+199108139+198775207+199072343+199909648
4237+200728845+201032434+200785449+200353663+200072631+199842775+199248067
4227+198225628+197397731+197362794+197926698+198506388+199001881+199752516
4217+200837048+201927973+202738017+203235349+203416969+203134444+202274807
4207+201072513+200148958+200090514+200845024+201637864+201755355+201339808
4197+201069904+201176101+201271744+201139189+201168623+201814975+202880040
4187+203602464+203525352+203066621+202941334+203195255+203280056+202997290
4177+202815656+203166199+203904771+204642499+205237343+205742577+206086833
4167+206009661+205294008+204080028+202994003+202790580+203671613+205014243
4157+205897658+205881585+205226728+204509281+204154334+204208165+204346841
4147+204115176+203429107+202889947+203231489+204315161+205111077+205009780
4137+204624435+204772701+205251487+205312675+204971797+205040132+205891748
4127+206899998+207272857+206940559+206419312+206167457+206280470+206637226
4117+207087227+207484860+207627713+207279492+206417518+205485731+205221481
4107+205963868+207081934+207527577+207168258+206986789+207685072+208764040
4097+209367102+209370389+209133627+208762999+208216496+207766767+207794194
4087+208223583+208564386+208539431+208365471+208401132+208826570+209589750
4077+210421055+210984837+211147881+211024509+210772623+210473648+210135182
4067+209724099+209327385+209225802+209584548+210158192+210528292+210529378
4057+210266832+209880643+209463694+209092342+208790593+208536536+208392356
4047+208537788+209078320+209815731+210284082+210137158+209531487+209041543
4037+209179330+210074974+211506416+212950825+213686637+213312195+212214906
4027+211323017+211431823+212580332+213916644+214451913+214032356+213258787
4017+212633785+212254578+212058588+211857291+211448801+211080932+211326168
4007+212204683+213028056+213361215+213502002+213830456+214297178+214717686
3997+215100905+215459017+215589205+215352534+215048703+215151282+215678921
3987+216215246+216526978+216674445+216555476+215942734+215037530+214457372
3977+214540545+215040666+215548674+215864763+215884757+215489581+214814007
3967+214365514+214581588+215444708+216636900+217786661+218521810+218632381
3957+218253686+217690823+217153231+216807829+216892253+217467209+218082274
3947+218128550+217760922+217901453+218892031+219751533+219499285+218528656
3937+217891728+218146945+219347295+221184301+222641104+222551554+221222615
3927+220433153+221394283+223299791+224336841+224113408+223896173+224403457
3917+224626528+223250123+220609948+218313864+217369803+217516697+218251499
3907+219948140+223419966+228380878+232983979+235542353+235780366+233872189
3897+230237064+226511242+224898694+226189152+228493740+228987348+228050178
3887+228516464+230960558+232729937+232407183+231744848+231410514+229939144
3878+227757490+227407233+229609635+232671071+235496514+238070072+239158012
3868+237939312+236303904+235975692+235926823+234420472+231978518+230354767
3858+230875561+235007038+244013254+253782379+254658919+246705706+237593503
3848+231862626+230410074+232198513+235500932+239013349+242395684+245524129
3838+247450550+247128626+244872620+241837104+238953096+236718396+235320097
3828+234708168+234816432+236257056+240248183+246191531+249834361+248786847
3818+246445331+245335995+243682162+239753520+235243634+232895378+234347869
3808+238944094+243385102+245679000+247589302+250106301+250781453+248497235
3798+245644395+243376326+240895531+238322621+236820869+236690953+237320885
3788+238406925+240064000+242047644+244028725+246394502+249484089+252305552
3778+253462897+253247245+253293054+255005814+258818216+263660627+267522245
3768+269814500+271647706+273652958+276069157+280088104+286623341+294088073
3758+299678133+303410047+308113133+316277203+327835973+338850109+345146112
3748+348565118+353489977+360373948+364398173+363240571+361523227+364130229
3738+372504311+384319656+394552066+398885459+397090883+392891658+390615085
3728+392228297+396506141+400486789+402635979+403549552+403684112+402943489
3718+402154917+403137880+407604054+416141044+426492302+433271297+433683149
3708+430959410+429687333+432236584+438123418+444271983+447660199+448682909
3698+449603931+451399441+454024809+457782748+462947716+468391666+471435702
3688+470511454+467216242+463988279+462181822+462370363+464656556+468934098
3678+474933115+480710118+482828458+482001616+482599446+484808136+483914196
3668+478184027+472074062+469606415+470679005+472600782+473776780+475590324
3658+479843078+485653584+490930978+496260995+504198105+515313870+524746157
3648+524947907+515705789+504087338+496128908+493314879+493734361+495066149
3638+496677944+498913534+501674155+504774976+509271818+516733595+525219620
3628+528459495+525110754+520343977+518057301+519437944+524202791+530316435
3618+534497022+535518496+535331463+536213733+538840337+542361152+544911519
3608+544579733+541664046+539250048+540063560+543776475+547567315+549462434
3598+550454173+552312198+554999780+557266431+558995506+561899794+567152097
3588+572427319+573362424+569579123+564694492+561152868+559048883+558140679
3578+558840741+560784291+562009083+561466862+561258056+564106433+569505057
3568+573579252+573265077+570094926+567769469+567958070+569812718+571665617
3558+572532265+572147705+570610608+568677673+567842509+569626529+574292341
3548+579906587+583290852+583083916+580959726+578956103+577801637+577535110
3538+577466051+576502599+575066830+574925636+576624554+578902725+580159603
3528+580174561+580103391+580655684+581565336+582502732+582971853+581693081
3518+578034930+573796321+571786365+573096923+576560440+580231316+582956111
3508+584834884+586682114+588919875+590965838+591481702+589869636+587416735
3498+585586575+584097006+582361236+581665517+583269381+585622220+586285973
3488+585373728+585138986+587081210+590559263+593896303+595869829+596139190
3478+595021758+593446905+592692078+593035565+593197568+592199496+590912219
3468+590717165+591542016+591838216+589894304+585444657+580740968+579126308
3458+581498629+584797792+585543933+584418900+584633979+587220716+590643099
3448+593500343+595181227+594747571+592007698+588733023+586232475+583469260
3438+579712196+576682334+576199703+577751516+579511170+580848386+582705206
3428+585535851+587888510+588077292+586517216+584498756+582255748+579808818
3418+577909960+577004952+576779439+577491142+580019555+583728610+586065888
3408+585349602+582552431+579735778+578233061+578486138+580184573+582244590
3398+583441576+583213289+581741754+579857069+578676488+578463158+578335595
3388+577843133+577998441+579896213+583118355+586147071+587756724+587848461
3378+587520535+588164988+590151844+592689605+594679598+595359032+594835448
3368+594451189+595896367+599213322+602031061+602073461+600138777+598721222
3358+598484069+598213863+597522788+597205417+597290640+597065972+596688709
3348+596991786+598237084+600141069+602490832+605114722+607148019+607036439
3338+604638907+602102472+601220082+601262663+600463144+598715734+597638651
3328+598511512+600781058+602395476+601797526+599746194+598542151+599398003
3318+601413025+603163994+604243369+604493189+603387638+601326596+599794566
3308+599580090+599960972+599839620+599249631+599264649+600270502+601048007
3298+600483530+599635881+600409344+602689084+604577869+604982635+604408207
3288+603888905+604192525+605396146+607084931+608973114+610757979+611640912
3278+611331924+611060211+612043265+613749722+614755514+614609495+613971375
3268+613157924+611529392+608881919+606576728+606201878+607832400+610097543
3258+611238257+610390306+608621846+608108818+609538676+611131381+610960150
3248+609314851+607886803+607500312+607323713+606148017+604147289+603222137
3238+605060922+608693499+611100862+610634336+608376128+606014724+604482634
3228+604433237+605919428+607627333+607890663+606471299+604374431+602783837
3218+602495778+603378349+604382694+604571838+603985347+603318699+603191256
3208+603455068+603098795+601431602+598916096+596188949+593683395+592611801
3198+594463795+598607471+601605004+600446377+596193232+592761439+592238278
3188+592845758+591919942+589552506+587454793+585894838+584255269+583207921
3178+583968779+585988204+587283985+586631812+584102495+580499411+577462070
3168+576892889+579131435+582322213+584073423+583361962+580549230+576438244
3158+572322434+570054636+570478340+572125931+572850239+572474183+572082144
3148+571564531+570247218+568881715+568501497+568232316+566471999+563802030
3138+562659084+563834840+565060717+564000462+561306367+559125542+558131149
3128+557580786+556926322+556283859+556118841+556647732+557059434+556162388
3118+554215037+552735842+552361837+552394286+552300377+552084695+551372209
3108+549742953+548100609+548261707+550694584+553665700+555178730+555042542
3098+554227100+553107435+551331256+548897234+546576119+545221834+545109771
3088+545941196+546977205+547215988+546173947+544432749+542919416+542069716
3078+541904396+542101321+542042816+541506506+540957470+540649629+540096069
3068+538769770+536860718+535375733+535312283+536438462+537400225+537378030
3058+536959030+536872419+536692926+535660897+534163487+533414028+533906189
3048+534665358+534355044+532985861+531769031+531449308+531643217+531726148
3038+531475182+530813601+529600088+527873486+526089043+524965398+524925470
3028+525505749+525639464+524853817+523724865+522634874+521025764+518640716
3018+516474789+515671349+516220205+517144513+517461643+516838783+515667248
3008+514819357+515059647+516335464+517696806+518040715+517147710+515851265
2998+514942699+514310550+513449692+512365432+511513982+511066454+510649867
2988+509871820+508908850+508309814+508242323+508242021+507742865+506660896
2978+505448288+504639511+504346024+504184745+503694123+502825273+502057026
2968+501855307+501907659+501264805+499563354+497630208+496417298+495887683
2958+495487833+495182283+495287501+495578424+495341391+494318500+492987617
2948+491866685+491145966+490970152+491406733+492040841+492167048+491531371
2938+490481369+489448526+488664568+488223161+488072437+487971020+487672105
2928+487266374+487159951+487475542+487649065+486917610+485202980+483293477
2918+482147274+482107165+482681865+483004182+482524687+481362291+480092807
2908+479226158+478933335+479156043+479662468+479895611+479154566+477299134
2898+475147410+473866014+473944090+474839720+475576693+475580192+474864026
2888+473619361+472052168+470560247+469514467+468844894+468371913+468412294
2878+469265221+470192665+469936181+468363470+466658279+465842324+465893531
2868+466184997+466158881+465684815+465102576+464771363+464566598+464117471
2858+463470667+463100732+463277572+463732549+463933213+463493918+462384778
2848+460998557+459957028+459561280+459469814+459140109+458510493+457906180
2838+457408923+456844054+456240404+455741640+455208798+454449176+453685906
2828+453360995+453609729+454101286+454266697+453674114+452370101+450927305
2818+449998533+449696362+449553689+449210293+448833302+448611558+448276455
2808+447536827+446593098+445778832+445022769+444117641+443234376+442696407
2798+442441340+442151533+441787057+441581688+441582623+441511875+441100234
2788+440353489+439474145+438658582+437986234+437427186+436835508+436027877
2778+435096451+434439574+434199465+433994338+433503686+432886163+432350818
2768+431819153+431243126+430795508+430583354+430487003+430285494+429785373
2758+428957084+428036515+427321435+426832864+426371041+425856927+425331835
2748+424635362+423502428+422150164+421336471+421475796+421964518+421809904
2738+420857157+419911438+419595243+419625400+419395996+418762069+417954859
2728+417183869+416618789+416394603+416445477+416547800+416507902+416189807
2718+415518334+414556270+413443149+412321645+411408917+410902372+410735031
2708+410645435+410462624+410122123+409538798+408712439+407850375+407161411
2698+406582519+405896450+405081310+404367286+403963183+403854709+403847110
2688+403749974+403536765+403256095+402827626+402140200+401323914+400647947
2678+400178525+399770382+399333439+398913474+398524209+398074389+397558465
2668+397198754+397185153+397302856+397103519+396485604+395805687+395346850
2658+394967567+394402427+393692927+393116056+392809451+392682611+392624649
2648+392609691+392630620+392613039+392366295+391729171+390889784+390302298
2638+390131671+390117225+390068522+390067949+390129107+390103383+389986948
2628+389938094+389913063+389550216+388602174+387405489+386657266+386652592
2618+386996019+387172708+387108353+387030880+387047858+387002201+386650933
2608+385943212+385076383+384242243+383482441+382872608+382580147+382620135
2598+382809912+383019623+383209430+383239256+382969563+382547608+382284821
2588+382250532+382227794+382047908+381747365+381391815+380956500+380476071
2578+380168622+380225015+380515004+380680987+380540547+380231378+379936806
2568+379668319+379382854+379129054+378981587+378927636+378854777+378630470
2558+378271061+378014938+378068949+378321423+378489487+378476127+378385325
2548+378307641+378282098+378350705+378550223+378918740+379422903+379815093
2538+379803000+379422058+378964216+378598775+378365663+378343045+378471996
2528+378434692+378045608+377614575+377657640+378290844+379076279+379499380
2518+379463102+379212106+378944524+378698293+378480651+378321543+378265482
2508+378339185+378447448+378412346+378255922+378256042+378551248+378882612
2498+378922630+378713945+378565543+378627756+378816176+379042112+379215514
2488+379142353+378788281+378508335+378620669+378927304+379052455+379040302
2478+379221304+379677758+380171969+380443562+380371397+380003513+379538946
2468+379170188+378928601+378738402+378557551+378412919+378363431+378465331
2458+378750042+379197932+379675135+379941842+379864731+379590364+379351190
2448+379221545+379257884+379629990+380321638+380914311+380953786+380435420
2438+379788223+379445792+379477064+379620762+379660478+379640575+379665092
2428+379723717+379821215+380011354+380196215+380161595+379918923+379772119
2418+379958911+380434967+381054510+381724837+382314947+382642149+382647457
2408+382438711+382168415+382012474+382160604+382610756+383091004+383397881
2398+383639558+383968720+384338926+384701382+385157987+385724786+386193876
2388+386391464+386320625+385916704+384913475+383130962+380771156+378301519
2378+376022926+373731998+370900538+367378336+363839758+361252599+359931155
2368+359374730+358986671+358562696+358056060+357421921+357024876+357763900
2358+360253502+364038039+368189043+372458805+376910352+380686506+382388500
2348+381448661+378643227+375614149+373656877+372830639+372656664+372943637
2338+373508837+373934924+373933446+373642854+373512697+373951691+374946054
2328+375980193+376519549+376617378+376898139+377875945+379361503+380682133
2318+381423811+381719892+381877673+382052311+382346401+382936933+383946012
2308+385258741+386512875+387365832+387894844+388609593+389856067+391353808
2298+392550162+393246756+393664217+394077487+394539762+394881258+394980535
2288+395003273+395208732+395598721+395962352+396140248+396074204+395760120
2278+395280958+394754419+394217385+393652486+393094493+392661983+392500765
2268+392650011+392954415+393212316+393401611+393628119+393906709+394160961
2258+394390696+394690516+395117387+395629451+396160694+396704031+397267994
2248+397744564+397904727+397615643+397019049+396401376+395928396+395585120
2238+395289130+394935963+394412259+393705653+392950555+392297236+391826155
2228+391583091+391536860+391550009+391585473+391812344+392289908+392752454
2218+392935778+392918377+392987648+393347419+393979568+394642386+395082284
2208+395330324+395637382+396134156+396757650+397427494+398100173+398772823
2198+399557444+400563086+401631212+402435285+402914749+403349129+403937972
2188+404577539+405118584+405556884+405873561+405974165+405901125+405875341
2178+406073200+406532821+407184300+407785990+408052064+408048174+408162348
2168+408536896+408910027+409122332+409362290+409831410+410523933+411362897
2158+412292996+413266490+414268482+415307990+416400483+417637519+419144066
2148+420842953+422425375+423678575+424764554+426140914+428198307+430901599
2138+433806310+436513704+439024626+441589137+444401688+447516110+450827637
2128+454077221+457098036+460063000+463246300+466553303+469538140+471860883
2118+473498462+474633386+475610771+476875490+478737647+481320765+484795591
2108+489473194+495660089+503510045+512854938+523012077+532818671+540977615
2098+546504165+549076546+549075883+547174492+543854943+539293172+533532063
2088+526614436+518637339+509812290+500484526+491097444+482114283+473887426
2078+466574443+460213241+454852072+450539488+447206851+444685706+442871407
2068+441699149+440908707+440068808+438978456+437885450+437179990+436962951
2058+436999743+437065485+437194405+437506318+437977278+438550862+439310061
2048+440414406+442038082+444416194+447776092+452253424+458014413+465332764
2038+474398585+485147703+497300593+510381290+523659907+536270428+547471597
2028+556706779+563565781+567972424+570261693+570868148+570100535+568268022
2018+565735809+562709446+559117219+554791697+549700854+544048791+538214762
2008+532546355+527190493+522111713+517177444+512225685+507218256+502364476
1998+497995619+494370913+491669791+489989178+489122560+488461763+487462092
1988+486184436+485130121+484675898+484860669+485548849+486573701+487772075
1978+489014357+490232122+491416805+492591566+493844585+495434184+497646885
1968+500330394+502794754+504471688+505431099+506123320+507047447+508630502
1958+510950712+513623878+516209650+518571295+520788127+522998265+525352673
1948+527991761+531111310+534855708+538766332+541690885+543040466+543772494
1938+545285344+547911104+550956104+553697244+555930240+557769206+559320778
1928+560736704+562492920+565151429+568556322+571742637+574073463+575781608
1918+577078656+577730889+577835594+578127150+579229686+580986505+582551767
1908+583261299+583379091+583594713+584033496+584350384+584559552+585172219
1898+586538929+588301176+589564147+589923255+590109262+590842979+591523560
1888+591177359+590195330+589704316+589947199+590291892+590160891+589437307
1878+588394723+587461669+586976324+587343816+589185195+592457699+595191480
1868+594579296+590598286+586133259+583138560+581295492+579621966+577688669
1858+575387157+572791614+570454336+569051136+568730930+569101438+569689436
1848+570455059+571776715+573252351+572856633+569392813+564830681+561696537
1838+560404737+559689958+558649184+558000449+558921199+560895027+561513967
1828+559477955+556274933+553537895+551201340+548726184+546350244+544553919
1818+543376414+542690586+542680936+543620986+545185766+546332150+546279255
1808+545437878+544925150+545580942+547606881+550449046+552811958+553555446
1798+553022755+552913285+554767149+558573671+562050337+562383933+560067945
1788+558211427+558717399+561165957+564188822+567059576+569504937+571047823
1778+571915497+573818396+578695547+586445865+593323925+594758186+591216261
1768+586553706+583359127+582746460+584906417+588290622+590325970+590722110
1758+591314633+592602030+594024952+596524113+601661398+608526370+613463654
1748+614343330+612862386+611640007+612013832+614053583+616879524+619153533
1738+620844731+624005896+630074002+636213822+637436382+634357667+630594028
1728+627755300+626397638+626805721+628604759+631502956+636300493+643955696
1718+653166813+659314957+659247405+655294200+651082189+648575851+648758843
1708+652204568+658210612+664287705+669043264+674408294+682128274+689487035
1698+692767560+692412372+689354827+684673574+681523749+682113859+685780030
1688+691005313+698204544+707858304+715327981+715271890+711220072+708781406
1678+710015666+714527196+720103142+724459786+728234221+733057572+737144433
1668+736998473+734227720+733626150+736445577+739199141+738589309+736581162
1658+737370308+743309946+754698872+767696367+772448910+769069168+767783942
1648+771098666+773773038+770271040+762912340+756808346+754261537+756186451
1638+762531700+770163501+772369356+767160117+760812456+757867214+758194598
1628+759695626+760906244+762073677+763185320+762712761+760610164+759743515
1618+762038815+764921331+763663246+758597674+753547302+750502663+749230948
1608+748390596+746895117+744857658+742974783+741727735+741678881+743419898
1598+746495779+749248680+750450914+750573230+750826066+751410144+751367261
1588+750143495+748705434+748473648+749484447+750463218+750951036+752360870
1578+755985425+760076990+760628197+757958710+756360275+757355030+758844961
1568+758872765+758418301+758856903+760403770+764123018+772250357+783444047
1558+787680486+781156950+772670804+766969405+764319158+764008180+764725733
1548+765613431+767750287+772936788+781413766+791997141+802171831+805954227
1538+801414893+795871516+794389487+795728452+795752457+793708484+793215298
1528+796952037+804235346+812656353+821388458+830619297+838003450+841114313
1518+842059128+843468420+845045142+846420477+849395392+856309701+868564914
1508+885027856+896596999+892391321+880512949+873385612+873694298+878798892
1498+884414224+887539743+888745596+890676903+895073293+901734284+908132488
1488+911086596+910576703+909412044+909548233+910557041+911200951+912122183
1478+915886063+923910567+934267646+942351740+943996134+939927850+935338758
1468+934138815+936619038+939906138+940170010+937370366+935569759+938338523
1458+944682987+947027745+940903305+932642431+927770648+927141756+930060399
1448+934715717+938032068+938290814+937035384+936759750+938293106+941137805
1438+945103374+950239573+955298570+958580242+960109919+960587182+959794117
1428+957919083+956929213+958138504+960554432+963668250+969254209+977588243
1418+984136870+984887656+981805019+978360259+975931183+974652049+974078224
1408+973728163+973707234+973669900+972646677+971069532+970554996+970907530
1398+969472424+965193766+960959740+959410401+959657325+960071500+961207208
1388+964065597+967468017+969133400+969044739+969184064+970449929+972073334
1378+973537390+975780942+979305135+982007312+981587649+979096208+977784082
1368+979865751+985109490+991798526+998257889+1003240529+1005820631+1005908990
1358+1004791919+1004050482+1004575152+1006916833+1010871787+1015019504
1350+1018670778+1022583935+1027068504+1031545956+1035485048+1038706285
1341+1041173721+1042907018+1043770469+1043649842+1043069865+1043109913
1332+1044561786+1046822104+1047836461+1046199184+1043002434+1040275528
1324+1038752003+1038912558+1041906533+1047855882+1055208732+1062601510
1315+1069370282+1073741823+1073395984+1068659062+1063070751+1060224304
1307+1060657477+1061612003+1060445655+1058159764+1057851199+1060350239
1298+1061389807+1055260361+1043271313+1033282148+1030720985+1034202536
1290+1038301580+1038874922+1035637762+1030745472+1025528211+1019106123
1281+1010746576+1001965798+994923081+990394241+987961787+986765524+985644111
1271+983305867+978973469+972611092+964959688+957130239+949593371+942077976
1261+934322471+926478425+919153199+912937022+907718917+903024878+898757318
1251+894652243+889623462+883071036+875898765+868834336+861099820+851864215
1241+841653157+831611519+822738159+815942306+811471971+808357309+805418641
1231+802539926+800210186+798523211+797319650+796535691+795892686+794936774
1221+793930016+793938581+795395580+797317177+798520858+799154454+800392937
1211+803125090+807417620+812621371+817776508+822300945+826217479+829618572
1201+832457359+834959053+837516417+840273057+843224692+846271381+849109505
1191+851816568+855183583+859537271+863925459+867221425+869480959+871945862
1181+875892251+881462408+887504700+892803566+897450077+902518242+909032008
1171+917131602+925691753+933634291+941245405+948734081+954502308+957052977
1161+957091397+955885906+954158158+953392173+955085663+958283076+960460946
1151+961028257+962002927+964419941+966112526+964868554+962220841+961465773
1141+963164872+965116504+966218014+967856920+971941911+978227328+983917690
1131+986745138+986959192+986225897+985950685+986261543+985805510+983350740
1121+980061590+978983180+981592534+985193567+985377584+982233488+980585958
1111+983255746+987558952+988923430+986768480+985219864+987827529+992243220
1101+992778143+988377771+983140004+980226186+979317197+978832878+977984082
1091+976859291+976332752+977571355+980086801+980926127+977860138+972000294
1081+966142200+962408597+961349669+962856849+966278207+968877007+965979413
1071+955685302+942514466+933652325+932215108+935739784+940752038+945232445
1061+947010254+944686003+940214642+937872177+940360300+946836128+953549713
1051+955751708+951290480+943479245+938277244+938336834+940538407+939925136
1041+936643465+935921931+940592327+947021412+949461887+946931725+942785215
1031+938857221+934406066+930043149+928365522+930105393+932761370+934028502
1021+934508056+936207879+940101735+945158501+948742646+948593852+944970925
1011+940465005+937040390+933805944+928535486+920511042+911159756+902406541
1001+895222871+889455428+884102884+878089482+871292302+864579562+858905605
991+854598781+851449317+848966622+846542552+843722582+840154722+835742348
981+831463871+828838172+827910003+827147999+825418864+822456072+818098463
971+812864918+808233846+805181488+803284077+801755304+800365132+798923272
961+797101314+795277064+794714216+796369829+799943479+804282270+808508756
951+812439042+816172102+819574401+822133815+823761080+825691543+829735037
941+836550010+844959255+853006377+859494147+864617439+869899899+876779708
931+884630629+891129980+894738009+895758156+895380049+894972629+895476310
921+896390063+896061474+894062253+891848618+890571233+889953318+889058624
911+887149573+884384851+882253061+882547754+885263441+888080214+888676657
901+887368030+886731840+888672556+892728535+897496760+902379219+907001002
891+910371998+912224053+914244443+918244271+923279926+926221127+925159002
881+921235471+917077441+914346554+913680027+915716038+919925155+923884512
871+925459123+924951462+924817083+927596823+933338693+938540815+938826340
861+934254015+930134887+931231029+936750100+941728035+943893299+945835764
851+949077568+950664604+948043127+943581839+940713739+940139311+941013860
841+941969411+941703729+941354693+943906025+949357002+953456045+953468953
831+952132038+953197782+956911240+960786760+962171745+960478919+957861242
821+957698033+961996715+968936657+973872011+974806452+975303498+979069429
811+984761238+988091703+987571015+984653940+980385475+976997832+978620755
801+986629517+996242082+999864104+994489003+983409727+973408982+968661144
791+966616749+963732183+959984165+956524568+952365150+946451387+940484667
781+936562644+935518915+937002573+938361864+935707576+928746946+921953325
771+918390109+916209043+913735274+913685877+918644935+925293984+927684158
761+926003997+925970463+929872039+934202688+935535320+935314029+937366265
751+942425564+946773341+946258383+941525321+937272537+936888459+940282737
741+945972314+953130653+961020657+968048235+972494143+973738175+971971464
731+966893408+958890375+950313940+944714592+945285642+952533788+962970360
721+969969530+969500651+964883934+961976389+963379709+967748717+972422129
711+975762184+977001994+976122076+973566341+970146973+966586109+961050151
701+950327450+936678447+927967753+928454907+934269938+938230199+938366870
691+939426100+944683590+951550432+955627522+954228303+947182510+937563370
681+930533621+928943087+930841583+932772106+934481156+936607337+935527298
671+927218234+912527733+898070103+891809776+892786738+896500256+902959498
661+911992388+918157539+915793542+906771930+899954425+903451598+915719356
651+925836928+925655082+918118275+910586474+906512099+906028262+909636532
641+917606875+927756353+936407276+939622361+935627419+929548215+922663158
631+910849623+895552606+885308254+885626229+891189871+892027086+886563806
621+881381286+880911321+884230508+886290645+881738585+871095921+861553078
611+860108985+868252127+883741363+904296473+925247482+932971503+918601871
601+895954960+881668379
##END=
