##TITLE=<SNM>
##JCAMP-DX=4.24
##DATA TYPE=INFRARED SPECTRUM
##DATE=29/4/2025
##SAMPLING PROCEDURE=Instrument type and / or accessory
##ORIGIN=Admin
##XUNITS=1/CM
##YUNITS=ABSORBANCE
##RESOLUTION=4
##FIRSTX=4497.3318
##LASTX=599.83466
##DELTAX=-1.4281778
##MAXY=2.0297205
##MINY=0.4159888
##XFACTOR=1
##YFACTOR=1.8903246e-09
##NPOINTS=2730
##FIRSTY=0.42843243
##XYDATA=(X++(Y..Y))
4497+226644907+227523404+229059537+230399355+231119233+231224690+230783187
4487+230056576+229635916+229970259+230933939+231945073+232208549+231099873
4477+228877364+226788059+226017920+226707402+228165274+229722832+231038828
4467+231750335+231437354+230294182+229376569+229613323+230826732+232065271
4457+232610481+232390959+231686484+230760989+229789537+228959093+228502723
4447+228551802+228947569+229205385+228842459+227959105+227241245+227187783
4437+227579183+227829495+227712388+227621561+227972033+228424415+228239846
4427+227423134+226732879+226601740+226856136+227200317+227254882+226671172
4417+225731504+225097265+224886099+224909858+225511273+227031750+228724594
4407+229279579+228431604+227173941+226381667+226026118+225824301+225983488
4397+226841694+228045770+228609189+227991551+226885397+226530432+227318655
4387+228422208+228737348+227872236+226247721+224691093+223895618+223781269
4377+223608619+223032965+222504892+222305756+222077452+221795467+222108322
4367+223077030+223771636+223705010+223388892+223201974+223112834+223391667
4357+224306725+225390649+225928702+225698964+224771924+223398131+222193220
4347+221640852+221551287+221476810+221374191+221596740+222376134+223360246
4337+223727950+223021803+221691161+220543196+220062105+220374802+221315022
4327+222408296+223134370+223204938+222644435+222033766+222333046+223745355
4317+225203258+225644509+225203116+224640643+224400688+224565078+224973693
4307+225142544+224723192+224102795+223916303+224307891+225100134+226061181
4297+226779735+226912861+226589932+226079233+225348713+224421736+223656357
4287+223313768+223313169+223482871+223678272+223737835+223641191+223567234
4277+223602549+223615288+223528970+223535702+223902728+224557794+225066822
4267+225197314+225231826+225460507+225728666+225719443+225291420+224457855
4257+223450079+222801556+222965677+223804397+224712251+225277483+225660322
4247+226289894+227270080+228194692+228542327+228195765+227534172+227061421
4237+226940577+226808681+226233800+225429023+225086639+225412769+225828826
4227+225775822+225409316+225298026+225729896+226508801+227298585+227918745
4217+228226776+228124756+227926013+228213438+228985485+229464022+229057645
4207+228018022+227019611+226563902+226653310+226837312+226776803+226674231
4197+226945969+227580555+228126285+228199312+227820320+227368364+227245549
4187+227490343+227712908+227515379+226963043+226467022+226239933+226163721
4177+226255730+226804945+227745795+228532899+228925575+229190030+229372202
4167+229159491+228609173+228213107+228122990+228034418+227839696+227716455
4157+227650176+227472796+227222831+227053444+227062146+227401661+228138535
4147+228954647+229414927+229428959+229087111+228373239+227424521+226749465
4137+226826118+227612070+228675468+229692735+230557832+231156897+231414462
4127+231440822+231322185+231006666+230583530+230277438+230071396+229799926
4117+229601862+229824142+230531046+231349192+231687981+231188791+230128925
4107+229224351+228942051+229200072+229643120+229948487+229979293+229828714
4097+229704086+229817458+230335062+231129071+231611076+231237334+230232932
4087+229456108+229447909+229872165+230051342+229861350+229730494+229941297
4077+230454440+231230476+232103156+232542136+232138770+231098422+229908316
4067+228960559+228639112+229166397+230260821+231296345+231811380+231778808
4057+231527092+231371500+231255465+230925378+230381587+229887473+229713530
4047+230061290+230871869+231603493+231654117+231075199+230480217+230294166
4037+230404573+230506719+230570555+230844326+231443770+232068692+232253750
4027+231972647+231843463+232449245+233531025+234278257+234347942+234053233
4017+233678450+233150709+232294047+231119911+230007640+229547517+229908852
4007+230555672+230926119+231113494+231586560+232495959+233411821+233758036
3997+233451661+232868629+232278202+231783648+231744344+232485080+233560097
3987+234114231+233981625+233708421+233615451+233518744+233340102+233447971
3977+234178287+235251349+235969319+236039650+235940421+236245267+236732806
3967+236610290+235677922+234727170+234537067+234991167+235561508+236146699
3957+236873404+237522952+237747535+237649693+237753762+238347893+238947180
3947+238711167+237599132+236628295+236696655+237536321+238132155+237944716
3937+237377151+237299883+238285918+240046428+241455537+241489559+240419934
3927+239582869+239794776+240406628+240408599+240122671+240735958+242535646
3917+244303866+244482081+242833918+240580650+239011851+238409427+238474602
3907+239452077+242051181+246135779+250205573+252773130+253343329+251688433
3897+248046079+244015527+241692086+241940096+243473454+243968986+243147513
3887+243046376+244878605+247371070+248973246+249941339+250146041+248436722
3878+245864640+245186226+246998857+249454431+251510785+253455533+254242369
3868+252789637+250677977+249889060+250062862+249588739+248208230+246919572
3858+246875254+249437782+255539131+262062575+262396934+256745460+250288437
3848+246176644+245293842+247100751+250038630+252714277+255200483+258141893
3838+260600809+260650329+258336000+255524705+253592301+252610932+252120020
3828+251823577+251611764+252053425+254508100+258945156+261960397+261070454
3818+258805882+257539248+255995958+252927177+249869495+248891248+250834704
3808+254675611+257651122+258612153+259717834+262294409+264209187+263885659
3798+262840502+261883618+260192287+257961770+256607100+256732107+257886378
3788+259790404+262402420+264990773+266691105+267988845+270002820+272535803
3778+274448185+275749361+277569198+280843138+285983424+292528467+298876155
3768+303807892+307665258+311164112+314790164+319489262+326107206+333871632
3758+340740345+346196576+352127702+360739725+372231009+383374944+390742768
3748+395538951+400970997+408092498+414157096+416690237+417662099+420112501
3738+424966419+430822531+435693318+438511188+438874651+437172237+435019838
3728+434309530+435604494+437484241+438257454+438035315+437792240+437530497
3718+436908161+436749211+438685588+443342466+448841643+452017394+452212195
3708+451361067+451368698+453403863+457309535+460858051+461834927+461210730
3698+461627355+464189474+468153038+472677893+478009039+484196988+488502606
3688+487279628+481992184+477425014+476077581+477405906+479666331+482092517
3678+485398525+489179333+490439330+488516480+486385995+485496556+484257340
3668+481352506+477760477+474848013+473370481+473310950+473903993+474772337
3658+476338724+478320822+479921610+482260580+487659487+496029096+502757053
3648+503103899+498462881+492832628+488438597+485878244+485094373+486116717
3638+488915857+492556949+495382985+496873003+498704601+502962291+508813674
3628+511695426+509806378+506818144+506466978+509842797+515388451+520090765
3618+522249060+523234449+525217492+528436127+531508424+533556327+534662198
3608+534391280+532303331+530011500+530157049+533430643+537850782+541183403
3598+543035685+544159592+545350282+547061619+549450882+552935925+557760865
3588+562141149+562890336+560061272+557195317+556440329+556788877+556348194
3578+554805424+553293681+552816421+553328807+554232119+555536449+557921234
3568+561449286+564591015+565809390+565806804+565953615+565983254+564692799
3558+562341752+560876991+561424502+562922372+563828900+564382466+566016362
3548+568950993+571711128+572937512+572527414+571163806+569931494+569921089
3538+571206373+572737224+573486474+572968791+571270950+569571910+569359136
3528+570611312+571833786+571827101+570432213+568344706+566941242+567153575
3518+568156905+568126509+566711567+565429184+565332319+565690264+565404778
3508+564723699+564698916+565541625+566293776+565878633+564128323+562015843
3498+560831459+561001603+562184978+564081530+566290055+567630835+566857936
3488+564419232+562378896+562229437+563593991+565020978+565615282+566015353
3478+567291872+568777759+568553823+566296487+563977855+563618649+565339193
3468+567386025+567892861+567087044+566634883+566503271+565086311+562930191
3458+562994453+566350721+570160349+570709627+567470403+563353785+561558889
3448+562863219+565533174+567407844+567677312+566406217+563484388+559147744
3438+554861108+552497638+552719304+554692730+557298740+559794327+561130819
3428+560194840+557573505+555886069+557362686+561342836+564603123+564697087
3418+562432689+560248254+559487274+559837841+560099678+559394193+558111810
3408+557304921+557447316+558266882+559268446+559718084+558670106+555915015
3398+552640791+550689121+551129931+553265618+555161414+555824394+556230077
3388+557329515+558303899+558036198+557135597+557115858+558572863+560978837
3378+563198524+564013107+562962543+560925801+559730697+560919306+564503106
3368+568924128+572603783+575316811+577728272+580215156+582349771+583016472
3358+581636089+579458717+578230000+578137045+578483576+579185087+580276453
3348+581025766+580714803+579692869+578832944+578245451+577362886+576250583
3338+575876179+577006896+579379510+581805665+582923517+582002673+579396537
3328+576305574+574093202+574132049+576720780+579454303+579138358+576002935
3318+573153565+572094803+571814930+571550886+571760885+572525774+572896521
3308+572092154+570831212+571162734+574493210+579554825+582656383+581127045
3298+576484483+572834152+572759485+575627522+579127574+581736674+583283921
3288+584049883+584725160+586179201+588116303+588819139+587285828+584904700
3278+583775623+584286495+585258105+585722373+585666500+585462996+585426987
3268+585770301+586539479+587251585+586992523+585435374+583467308+582329780
3258+582267600+582492987+582661617+583577416+585683779+587534359+587012451
3248+584190261+581381819+580252552+580209922+579930680+579402717+579486402
3238+580234580+580781019+580526371+579549023+578198658+577123373+577203021
3228+578523999+579859860+580007427+579230429+578708900+579170835+580485318
3218+581694422+581625557+580152850+578272063+576798158+575859719+575340838
3208+574739975+573268024+571134418+569837467+570418213+572246784+573951374
3198+574945686+575622918+576413979+576967418+576305826+573909185+570668636
3188+568285553+567252710+566217596+564072512+561670132+560332127+559726976
3178+558627538+557136795+556580076+557378767+558482178+559016573+559194662
3168+559176626+558452854+556751481+554585271+552808349+552121342+552647728
3158+553548013+553721310+553153429+552662169+552431548+551826523+550354888
3148+547988769+545054454+542549407+541759671+542708515+543688134+543221847
3138+541958508+541468699+541885166+542004986+541049520+539327526+537644630
3128+536700516+536612732+536727696+536215436+534952854+533621345+532966437
3118+533118734+533592588+533796849+533454796+532712041+531975530+531512270
3108+531276352+531254911+531530432+531842657+531865801+531836666+531911963
3098+531466487+530084023+528529365+527753124+527684543+527722539+527631413
3088+527441657+527185590+527050257+527143464+527008604+526084733+524651219
3078+523538349+522932189+522293551+521527495+521237090+521544932+521619945
3068+520849601+519801496+519360056+519435100+519372384+519141858+518991232
3058+518395036+516677298+514380328+512900242+513073823+514631413+516368353
3048+516749726+515191379+512785972+511186162+510918555+511161126+510989910
3038+510391538+509886279+509579856+509140466+508496814+507774082+506874963
3028+505853660+505200707+505233153+505522423+505427671+504883848+504174296
3018+503317177+502235239+501253666+500793212+500677397+500321786+499563171
3008+498753128+498069842+497334340+496557279+496089573+496042812+495958276
2998+495369080+494452304+493727869+493375158+493116758+492551242+491536214
2988+490490505+490143375+490589451+490971895+490587464+489838593+489530940
2978+489605891+489244414+488106382+486741670+485627065+484481717+482940335
2968+481393781+480592630+480679121+481116872+481505875+481953842+482466701
2958+482493219+481562001+480016835+478563803+477483946+476821313+476771777
2948+477345649+478108458+478510736+478270277+477512514+476676174+476107000
2938+475751546+475369732+474794062+473970808+473139923+472815749+473172306
2928+473767746+474206726+474555527+474720720+474045222+472208548+470135198
2918+469123512+469186954+469117679+468240411+467197226+466792456+466891686
2908+466736898+465889018+464652071+463728200+463565466+463932272+464017816
2898+463130900+461503657+460100225+459451686+459214349+458971273+458736364
2888+458556540+458393491+458348212+458349537+457997835+457250477+456645925
2878+456401871+455969859+454868498+453441196+452494685+452514266+453326516
2868+454223869+454410630+453594376+452211628+450978149+450220418+449778221
2858+449534798+449726793+450516529+451519134+452106786+452030101+451445193
2848+450621119+449887603+449468960+449110574+448302802+447056144+445927539
2838+445141334+444267409+442999120+441808430+441521021+442318672+443340952
2828+443504600+442705121+441800610+441391616+441167932+440572997+439530599
2818+438272684+436937107+435684679+434913010+434934041+435501985+435928007
2808+435721318+435026302+434390187+434188544+434299313+434270210+433778761
2798+432890615+431848817+430802887+429912660+429428495+429368901+429390311
2788+429212221+428828641+428189436+427198718+426123055+425428953+425149175
2778+424910860+424566884+424265664+423914373+423202267+422263387+421702190
2768+421787483+422134518+422269346+422062689+421580037+420857652+419843791
2758+418516254+417194393+416497990+416660314+417143911+417224348+416680683
2748+415826118+415204665+415135107+415245404+414805729+413734827+412691421
2738+412024689+411392767+410552297+409745880+409195562+408832604+408553487
2728+408301015+407959120+407489459+407027524+406673867+406400174+406215085
2718+406131810+405907306+405148030+403838277+402513011+401752630+401682662
2708+402017305+402334763+402270660+401756761+401136096+400808295+400774525
2698+400680278+400232783+399504533+398848774+398437951+397978412+397176158
2688+396306048+395879396+395961630+396209026+396285363+395994076+395355312
2678+394701602+394372477+394301531+394168532+393821339+393296120+392645437
2668+392051637+391907728+392405830+393106900+393251251+392524577+391303050
2658+390184125+389475582+389073935+388713341+388338086+388121433+388087979
2648+388019713+387833236+387675106+387563106+387313346+386854721+386325844
2638+385854828+385403455+384838380+384176126+383714884+383720875+384038176
2628+384236477+384077022+383677677+383313237+383120643+382946936+382572942
2618+382094830+381870327+382055195+382375113+382408663+382045200+381566111
2608+381202617+380825438+380292588+379806689+379615577+379655212+379733504
2598+379774968+379721838+379442690+378871120+378159266+377636349+377533588
2588+377733655+377890082+377769222+377414903+377101134+377127747+377463872
2578+377645367+377255701+376438627+375750895+375584756+375859142+376212515
2568+376359767+376218853+375831773+375316928+374828159+374445462+374182805
2558+374123368+374368967+374812488+375155613+375241568+375215271+375227915
2548+375135023+374688223+373933707+373231628+372927539+373086773+373455217
2538+373658532+373529915+373231376+373041903+373133660+373542307+374166976
2528+374733628+374905380+374586502+374083639+373800644+373786266+373762144
2518+373562172+373336060+373329943+373630185+374098080+374472232+374567205
2508+374395075+374138630+374012220+374046211+374009508+373666100+373050165
2498+372426536+372114280+372284108+372713913+372919309+372738949+372510977
2488+372518891+372622188+372557644+372304036+372050996+371968794+372071681
2478+372275027+372510473+372735418+372930692+373135363+373353592+373439609
2468+373255150+372919719+372730530+372852021+373178214+373434186+373389664
2458+373062178+372692251+372473486+372405221+372438234+372563162+372665197
2448+372535067+372164888+371818484+371712254+371833209+372094731+372438455
2438+372765972+372961624+373022165+373068106+373189250+373325434+373348200
2428+373211448+372948034+372627990+372441103+372647634+373274385+374013481
2418+374545354+374806970+374919537+375030496+375216563+375446364+375686350
2408+375998259+376396438+376720108+376829869+376806157+376816311+376942689
2398+377220827+377635781+378010122+378115059+377976037+377915433+378211324
2388+378778732+379193308+379024583+378160811+376770338+374969199+372684211
2378+369904021+366889017+363990931+361379151+359006852+356693738+354259984
2368+351835248+349953074+348966644+348580952+348479452+349082995+351041097
2358+354290096+358172057+362296464+366886967+372020127+376635383+378949980
2348+377960176+374478885+370875189+369100632+368892713+368934713+368798529
2338+368846961+369309591+369980327+370480794+370674902+370746100+370884554
2328+371193814+371843330+372904773+374132134+375274644+376440992+377780227
2318+379057912+379932846+380438200+380904235+381578345+382505811+383605722
2308+384686430+385510725+385991264+386289299+386677041+387304895+388083406
2298+388795418+389324074+389733636+390146477+390625313+391146622+391606760
2288+391933458+392249466+392757500+393383872+393738569+393541845+392948738
2278+392343587+391905048+391509801+391044587+390607719+390307129+390103562
2268+390001937+390107220+390322107+390318828+390011270+389772608+390005468
2258+390692916+391494666+392157047+392701122+393257620+393864380+394456950
2248+394947611+395252204+395275695+394931971+394256284+393498993+392946720
2238+392587325+392118926+391349180+390424174+389639262+389183475+389079863
2228+389232475+389447866+389462182+389105813+388539982+388207388+388392698
2218+388894710+389258867+389303484+389277502+389486524+389962175+390587444
2208+391304942+392003647+392426956+392483933+392514834+392967846+393874974
2198+394867521+395666023+396287129+396767605+397066964+397349171+397956403
2188+398913918+399782388+400178266+400208946+400265387+400549485+400943849
2178+401298420+401650090+402023990+402234525+402148728+401976188+402032472
2168+402348763+402708632+402961734+403176779+403556449+404231222+405075917
2158+405734230+405923230+405738487+405557812+405638753+405937955+406303467
2148+406663020+407005105+407320640+407595468+407792855+407870769+407878179
2138+407980246+408304137+408769730+409169549+409441696+409749159+410240608
2128+410852791+411426853+411921076+412419651+412995699+413665080+414439523
2118+415283714+416007582+416404026+416561337+416830363+417436334+418303858
2108+419228108+420032317+420607640+420966278+421234547+421505276+421711713
2098+421699447+421452524+421206169+421232183+421525362+421816082+421872491
2088+421690177+421442781+421360106+421566101+421909856+422084761+422036802
2078+422065401+422372517+422754520+422941407+422976407+423021087+423069835
2068+423127096+423401955+424025016+424747118+425184017+425267922+425277949
2058+425508097+426028807+426690873+427272250+427686194+428061860+428545899
2048+429113433+429707548+430430375+431377958+432387153+433195303+433818365
2038+434536588+435505296+436574338+437501047+438198365+438773845+439448081
2028+440441731+441843304+443534871+445250054+446772960+448183834+449848914
2018+451975678+454209648+455945864+457090486+458206983+459812343+461785643
2008+463621845+465087993+466350607+467526067+468463717+469061238+469526074
1998+470186153+471201371+472535024+474032862+475468646+476672485+477673009
1988+478630839+479679921+480919737+482452575+484297668+486338383+488438471
1978+490565897+492760169+494998081+497148935+499178834+501364341+504008630
1968+506858662+509171492+510645555+511971894+514083869+517057567+520100540
1958+522630591+524879349+527210153+529499997+531592549+533745516+536195445
1948+538820878+541590600+544816770+548546308+552071711+554597442+556290870
1938+558108468+560672352+563711667+566557442+568897389+570912626+572918341
1928+575173532+577922253+581158009+584258054+586413542+587666728+588807598
1918+590065828+590774844+590663475+590543593+591347014+593164927+595318713
1908+597111591+598389749+599388917+600240329+600853174+601243596+601715874
1898+602590745+603803002+604913855+605742627+606734858+608119530+609062446
1888+608657771+607436054+606615228+606510985+606714867+607136758+607934062
1878+608787996+609010860+608324736+607218298+606573669+606919128+607681873
1868+607297379+604935990+601673748+599160692+598061696+597873642+597575481
1858+596450755+594605661+592680856+591100249+589921288+589180741+588920481
1848+589115597+589702271+590082603+588884346+585631689+581773818+578786278
1838+576880518+575581549+574681642+574524363+575335351+576274484+575803215
1828+573731537+571451499+569599784+567452114+564696267+562161455+560538406
1818+559578337+558796357+558372007+558825492+560010948+560956387+560881846
1808+560068272+559463184+559859534+561539403+564134062+566620000+567930951
1798+567965446+567758032+568580246+570847987+573363565+574229229+573458790
1788+572826774+573386457+574857461+576811275+579292673+581986971+584027748
1778+585271159+586817460+589882379+594435265+598518271+599891276+598909702
1768+597380491+596331503+596407494+598085597+600559742+602088575+602459763
1758+602901456+603780678+604959071+607306145+611775536+617414303+621539623
1748+622767773+622366251+622181414+623100240+625082811+627510857+629555986
1738+631304089+634243386+639293713+644075959+644799669+642197947+639207253
1728+637020927+635832949+635741444+636655667+638686165+642738017+649780752
1718+658570644+664272789+663514458+659116327+655432005+654592008+656807785
1708+661153321+665845135+669168927+671594136+675458439+681592312+687373159
1698+690617554+692338036+692331855+689657485+686443675+685520183+687517636
1688+691853019+698752601+707866069+714297283+713521610+709566118+707779610
1678+709871090+715180479+721365811+725925950+729013319+732202093+735052093
1668+735846685+735371065+736054099+738663136+741683027+743247680+743550382
1658+744467190+747948954+755240787+764711443+769097528+766235988+763116205
1648+762836647+763019025+760378898+755853065+752363544+751247773+752872146
1638+757116340+761802290+761985613+756197262+749487436+745689727+744742712
1628+744779162+744532649+744254605+743931471+742523151+740339032+739577611
1618+741365569+743543697+742810276+739928114+738022606+738164750+739033063
1608+738825775+737287356+735746478+735490821+736558728+737974048+738903973
1598+739312431+739600502+740153311+741251362+743045879+745554709+748569114
1588+751459790+753520685+754788564+755960272+757422510+759220874+761816290
1578+765424936+768098991+766913535+763158204+760503069+759651152+758396643
1568+755021455+750694585+747349542+746127131+748277196+755340994+765719188
1558+770057408+764162228+756114334+750946711+748761519+748130197+747816396
1548+747795901+749101933+752582751+758318823+765911025+773134876+774638926
1538+769856868+765572629+765622323+768602485+771043459+772151600+774233684
1528+778357869+783149954+787648985+793344760+801275420+808897325+813356815
1518+815782970+817859441+819395653+820639000+822999065+827639168+835380513
1508+846285471+855889693+857135626+852947495+850637565+852450875+857110843
1498+862387502+866722948+870007767+873325378+877598770+882257288+885631908
1488+887499136+889624986+892797489+896293695+899898999+904290949+909667122
1478+915379924+921139645+927532139+934301307+938659393+938643816+936946038
1468+937424748+941346880+946927692+950633644+950732275+948938073+948113211
1458+949309261+949173991+943744719+935208845+927674661+923144161+921527608
1448+921091654+919981117+918042123+916287083+915345366+915656770+918299798
1438+923960699+930030059+931503460+928359650+925047903+923620286+923127828
1428+923089990+924692796+928462947+932717294+935628970+937586757+939223616
1418+938722456+934873161+930523463+928984224+930151014+931123506+930252608
1408+929151026+929453538+929978032+929329178+929123593+931232542+934248965
1398+935374196+934863450+934991530+935471060+934475298+932694024+932591105
1388+935267809+939263850+942446633+944830914+947780365+951524786+955169315
1378+958577863+962826282+968079608+972399541+973978698+973409430+972339884
1368+971709570+972512928+976135133+982126169+987152847+988542311+987802647
1358+988056601+990379648+993254369+994085726+992066201+989782505+990662232
1348+995169903+1000685508+1004995603+1008823456+1013907710+1019676765
1340+1023488978+1024360444+1024306021+1025268612+1027602884+1031305431
1331+1035894706+1039399551+1040244782+1039674568+1039779189+1040542439
1322+1041112464+1042330271+1045511099+1049905131+1053442958+1055468537
1314+1057091271+1060023127+1065349416+1071337993+1073741823+1070740913
1305+1065914586+1063249045+1062929820+1063961655+1066060513+1067402239
1297+1065152786+1059981001+1055952166+1055194403+1055969635+1056036986
1288+1055403393+1053887677+1049232187+1040465881+1030103579+1021312678
1280+1015157238+1011418493+1010139136+1010985692+1012015194+1010772729
1271+1006853498+1002105305+998157507+994770274+990584602+984444738+976324259
1261+967979465+961745322+957855856+954444659+950390285+946088703+941947680
1251+938157475+935058314+932029972+926914249+918021628+906072349+893536397
1241+882779322+874648248+868106169+861693243+855656991+851451329+849086849
1231+846755037+843479551+840431786+838803566+837879758+836260682+833938896
1221+832000722+831149310+831473769+832754449+834268400+835248523+835916106
1211+837199751+839664311+843405389+848041961+852237596+854824940+856851906
1201+860618336+866522219+872597002+877296447+881134642+885027513+888599836
1191+891009342+892465905+894020657+896476262+899747396+902995512+905616783
1181+908040226+911020640+914630107+918964922+925132471+934189749+945508146
1171+956779562+965518247+971305400+976247133+981960629+987318891+990161829
1161+989833902+987781458+986193724+986735812+990025234+994848598+998449298
1151+999107738+998659928+1000337149+1003769282+1004941684+1002410719+999849609
1141+1000459554+1003110969+1005046116+1005529051+1005545511+1006183076
1133+1008044251+1010923197+1013570765+1013840233+1011162962+1008395511
1124+1008663907+1012339715+1017445474+1021519020+1023454167+1023899265
1115+1023793004+1023525870+1023791491+1025521810+1028800763+1032596517
1107+1035378662+1036244578+1036294398+1037914735+1040944969+1041169788
1098+1036899991+1032857535+1031337720+1028960439+1024876550+1024114120
1090+1029340645+1035680418+1036877477+1032627607+1027530614+1025049595
1081+1024375074+1022044082+1016778458+1011257367+1007755549+1005236566
1073+1001995450+998266353+994312500+989007715+981752836+973467700+965677607
1063+960369857+959078267+961245422+965097365+969675414+974135788+976182241
1053+974402859+970986554+969328505+970233016+971712408+972264650+973020017
1043+976075034+981435693+986572164+988848040+988003565+986198453+985250177
1033+984381108+981810791+977611183+973273592+970383989+970399817+973698005
1023+978118082+979662302+976861176+973356331+973749780+978396063+983346498
1013+984304234+979661735+970529475+959956669+951656461+947568032+945651678
1003+941669573+933945885+924553995+915923526+909007673+903949275+900318998
993+897068800+893340334+889159897+884781379+880020700+874804076+869683624
983+865546889+863231472+863066437+864309595+865143097+863726516+859778213
973+854768877+850177269+846164705+842211357+838451675+835759332+834467552
963+833702599+832473946+830862059+829514216+828696984+828885038+831190995
953+835923485+841710764+847050612+851639571+855517622+858312316+860142968
943+862258349+865936239+871626654+879567782+889998255+902017344+912998103
933+920635521+925335848+929531421+935060836+941115755+944411988+942399084
923+936582165+930917795+927320311+924847111+923072585+923639268+927143987
913+930728796+930897552+928012804+925737685+926326377+928289209+928769685
903+927209194+925730622+926409368+929549016+934041740+938274457+941222079
893+943077262+944795536+947002800+949186036+950705094+951939802+953678319
883+955966871+957844568+958625223+959012492+960075480+962054393+964707637
873+967267737+968287337+967394178+966714613+968666724+973039188+977367886
863+979543618+978870548+975670423+972174280+971665048+975350946+980609570
853+983295165+981755170+977928704+975569774+977567354+983131202+987755728
843+988108249+985937815+985060799+986737452+989054823+990067991+990624899
833+993082207+997878327+1003275311+1007876945+1010712693+1010365721+1006755435
823+1002126242+999412962+1000852372+1006880741+1014177682+1017432609+1016195190
813+1016308451+1022339783+1032124050+1038361220+1037451286+1033694631
804+1031881448+1032415779+1033415010+1033247452+1031147017+1027065904
795+1021820461+1016174379+1010209767+1004320830+999035216+994560085+990805133
785+987562062+984803377+982395762+979718744+976480844+973092539+969560072
776+965794778+962981354+962482148+963020705+960444839+953000772+945449183
766+944230493+950825481+961392674+971406427+978706269+982343357+982450564
756+981526252+982870878+987458576+992607911+993786871+988836625+980686885
746+974922056+974671507+978701603+983417759+986113823+987748160+990822286
736+995519587+999460196+1001153623+1000643319+997043375+989732244+981759900
726+979255295+984250504+991503743+994523383+992013796+986588939+981618260
716+979931455+982218430+986301877+989211534+990030910+988825905+985669482
706+983507435+986194544+992847361+997801832+995700451+987334972+979257943
696+975802603+975674080+973543438+966445208+958955294+957223588+960267002
686+961246873+956922147+950957913+947729221+948016094+949655476+950160799
676+948648362+945908028+942904596+939630057+937871170+942336021+954157597
666+965611328+969038227+962627004+950163006+938857726+932497898+929406430
656+926070279+921544698+919055102+921847715+929267629+936798849+939699741
646+938171475+936745876+937748702+938911266+937474442+933626534+932296097
636+938107593+948041193+952301342+943670684+928256794+917819826+916647362
626+919784235+917373531+905292135+889175158+874950067+865949734+862555186
616+863534679+868984130+876890007+881840568+882364053+883168420+886607238
606+888694178+886081987+881692307+880333429+884995351
##END=
