##TITLE=<SNM>
##JCAMP-DX=4.24
##DATA TYPE=INFRARED SPECTRUM
##DATE=29/4/2025
##SAMPLING PROCEDURE=Instrument type and / or accessory
##ORIGIN=Admin
##XUNITS=1/CM
##YUNITS=ABSORBANCE
##RESOLUTION=4
##FIRSTX=4497.3318
##LASTX=599.83466
##DELTAX=-1.4281778
##MAXY=2.1822672
##MINY=0.50736248
##XFACTOR=1
##YFACTOR=2.0323947e-09
##NPOINTS=2730
##FIRSTY=0.52801985
##XYDATA=(X++(Y..Y))
4497+259801822+259969838+259627530+259771409+260487201+260610669+259029253
4487+256325863+254175526+253340754+253314184+253557512+254034843+254682067
4477+255127813+255108809+254857797+255007630+256019451+257467046+258227738
4467+257881089+257371322+257655797+258518342+259358217+260037408+260179616
4457+259044884+257077932+256038426+256723658+258031743+258821058+259230174
4447+259696654+260082689+260146652+259838158+259162281+258483120+258361705
4437+258539751+258029163+256663390+255538952+255511707+255991678+255698786
4427+254384718+253211040+253387150+254843192+256314923+256629341+255833399
4417+255031678+255150043+255973759+256562211+256524262+256370381+256510976
4407+256669227+256542122+256285508+256028777+255660778+255324980+255349381
4397+255612476+255766210+255998013+256649753+257185710+256593327+254946805
4387+253541675+253334918+254137577+255255504+256141482+256411909+255890440
4377+254946042+254393370+254694766+255480914+256181924+256810496+257569047
4367+258141721+258103830+257549573+256732016+255656878+254425366+253449646
4357+253079800+253309139+253911991+254680044+255391671+255612388+254908005
4347+253505398+252324417+252099711+252823069+253990618+254924370+254988479
4337+254022086+252510528+251063665+250000346+249637772+250445153+252417091
4327+254644001+255990006+256037517+255111683+253837969+252956919+252923192
4317+253430349+253785239+253699251+253395743+253211743+253298904+253421698
4307+253146490+252473605+251967738+252117131+252905478+253971203+254889001
4297+255400997+255501707+255249639+254740048+254401640+254795535+255855541
4287+256744832+256758968+256129956+255676937+255820788+256119486+255769553
4277+254572413+253351136+253169512+254067367+254927684+254894544+254393751
4267+254110625+253768669+252862074+251749103+251019205+250694933+250776581
4257+251617013+253240777+255062179+256542914+257534294+257953997+257686884
4247+256905956+256145412+255836801+255857418+255835862+255804892+255950942
4237+255903549+255236559+254580830+255134822+257005259+258904876+259669262
4227+259422297+258888247+258227884+257254277+256323311+256166909+256856745
4217+257668701+258099959+258266890+258173160+257394080+255891643+254519125
4207+254141888+254592297+254988831+254854717+254443871+254186407+254220104
4197+254331049+254144058+253567308+253088891+253344420+254368119+255528483
4187+256265683+256662276+257147467+257802257+258174215+257808680+256938099
4177+256444345+256836568+257508779+257593154+257277621+257448365+258320559
4167+259233048+259546381+259192723+258551394+258023708+257647439+257247561
4157+256932468+257007752+257433173+257853463+258128993+258423380+258772551
4147+258894904+258533152+257859123+257333724+257240640+257587757+258320031
4137+259332526+260254195+260524622+259897663+258760967+257783664+257321788
4127+257383903+257955844+258889420+259569462+259297158+258170901+257160224
4117+257094267+257829942+258585560+258852497+258688323+258345282+258002504
4107+257709876+257375662+257010010+256942909+257430710+258101132+258160432
4097+257288766+256176029+255905368+256778940+257962707+258385255+257882204
4087+257366454+257895460+259522655+261062280+261229211+260026205+258653951
4077+258166473+258643863+259542099+260388602+260853205+260592310+259690407
4067+258889772+258756010+259041776+259298301+259454939+259480483+259339976
4057+259437078+260108468+260765077+260586298+259853203+259473825+259547642
4047+259569550+259526790+259597352+259390477+258653336+258036846+258167001
4037+258714131+259104125+259383087+259867574+260527467+260938695+260652841
4027+259809212+259363965+260233461+262200443+264002840+264490817+263605983
4017+262318251+261668064+261915206+262491663+262569732+261834468+260916699
4007+260767335+261480927+262237102+262486061+262520902+262698802+262799893
3997+262508204+262043688+261950193+262453127+263255874+263821803+263773295
3987+263271681+262956325+263198363+263586832+263558091+263335615+263674961
3977+264741184+265770953+265905419+265045895+263806611+262927349+262833062
3967+263472075+264439905+265395271+266312453+267189075+267685733+267354628
3957+266208751+264875796+264200477+264729306+266366268+268260958+269223920
3947+268806123+267891317+267722480+268575435+269603885+269809176+268964344
3937+267763567+267410907+268711103+271184186+273209207+273573745+272806396
3927+272375080+272978577+273961980+274220177+273574361+272847425+272650844
3917+272523828+271516494+269635998+268033408+267685791+268573323+270266095
3907+272805164+276432922+280551677+283622069+284535145+283340938+280521910
3897+276827755+273669587+272535705+273843937+276217865+277490552+277620355
3887+278546951+280763479+282314658+282045316+281294567+280790636+279522171
3878+277584927+276809807+278216872+281038745+284026082+286177591+286456025
3868+285072861+283702866+283185826+282614823+281030298+278947943+277515950
3858+277766434+281046751+288172903+295438624+295866685+290383038+284442706
3848+280661889+279591325+280944076+283724333+286941919+290457910+294017130
3838+295986194+295091975+292456126+289876467+287916876+286315048+285091425
3828+284556437+284736770+285784341+288491632+292772861+295998863+296246738
3818+295086550+293555723+290579560+286532950+283780906+283799001+286379686
3808+289855264+292005922+292907854+294883693+298326307+300280854+299219851
3798+297305218+296132684+295357329+294681569+294581328+295388034+296985082
3788+299235307+301990812+304847378+307615406+310833138+314856932+318655286
3778+320930703+322334923+324917133+330131820+337895753+346412635+353329185
3768+358335971+362947131+367617151+371720421+375519773+379620873+383251827
3758+385372161+386848322+389489949+394020811+399587982+404365781+407601696
3748+411027036+416583181+423747546+429263894+431629404+433083950+435867786
3738+441201277+449275170+457348360+460859658+459147707+456261754+455810113
3728+458558551+463382099+468328471+471707884+472858570+472050633+470099605
3718+467968273+466825535+468228230+472666916+477092406+476844707+472323670
3708+467592531+464712121+463863096+464660476+465950643+466488740+466343218
3698+466397913+467179398+468843810+471725950+476555687+483411001+489448847
3688+490308019+486311442+481577928+478789928+478426944+480077778+483473175
3678+488459872+493549566+495958568+495878915+496358299+497462120+495943846
3668+491190243+486187211+482888624+481522529+481713889+482631658+483402555
3658+483539543+482944727+482318647+483157086+486644365+492117572+495758380
3648+493741190+487689913+481861406+478237578+476630677+476424125+477023750
3638+477721857+478325032+479369348+481183007+483761111+487417462+491410139
3628+492529797+489667247+486054975+484969835+487571577+493008946+498722256
3618+502051197+503014247+503572580+504627190+505339433+504886678+503832596
3608+503171148+503007091+503225521+504437090+507119013+510362260+512441918
3598+512837250+512661579+512884760+513384907+514160556+516255287+520442346
3588+525179760+527332384+526255720+524266508+523154945+523042269+523366981
3578+523787124+524384404+525165038+525683779+525836692+526530224+528738686
3568+531835766+533554522+532770486+531163761+530952897+532530413+534539978
3558+535452761+534813543+533386359+532658280+533913605+536904755+539550195
3548+539805636+537911385+536094618+535728496+535829147+534849850+532710072
3538+530620384+529547123+529267692+528952541+528469403+528542897+529528119
3528+530958997+532417913+533450293+532831897+529950138+526331326+523912000
3518+522967602+522900853+523312784+523355250+522196470+520769404+520917272
3508+522643125+524097348+524274661+524116411+524902207+526510457+527605832
3498+527482188+527182521+528002923+529470051+530099297+529693466+529414387
3488+529897173+530667777+531177603+531281422+530863097+529862450+528477497
3478+526883207+525146679+523621366+522845014+522760141+522636438+522101508
3468+521366860+520451672+519289666+518281334+518120914+518986597+520138339
3458+520533436+519814272+518390725+516671442+514953683+513830741+513741117
3448+514159148+514054626+513164249+512058551+511294868+511104534+511416694
3438+511842878+511975672+511735423+511099666+509788090+507704503+505522435
3428+504352569+504741156+506047100+506788201+505965570+504170095+502856584
3418+502608123+502815525+502915766+503057769+503309866+503132319+502132141
3408+500702200+499776396+500170555+501793293+503212441+502858695+500912477
3398+498832116+497496785+497099400+497827773+499167679+499628704+498571983
3388+497296304+497421003+499160757+501445882+502882216+502595453+500801737
3378+498591163+496870119+495839617+495647816+496497135+497851235+498849712
3368+499710586+501319716+503297549+504260716+504217253+504652646+506084346
3358+507090038+505994194+502926558+499902914+499001803+500586533+503245874
3348+505165874+505405771+504249396+502888198+502743967+504451695+507055197
3338+508718524+508747499+508336272+508664151+509139781+508497924+506802806
3328+505256436+504535513+504397029+504496273+504676812+504958882+505786674
3318+507371932+508621157+508175500+506645729+505964867+506418677+506530649
3308+505741510+504888555+504237723+503286815+502519026+503280304+505656461
3298+508058894+509231576+509400442+509207410+508949799+509021475+509710314
3288+510427074+510431238+510247297+510930037+512295164+513296515+513776016
3278+514392066+515122960+515142375+514079906+512643279+511955378+512516702
3268+513641697+514091519+513661171+513610786+515041020+517365208+518634435
3258+517436826+514750445+513202961+514029697+515557884+515433888+513669030
3248+512238386+512378219+513522628+514527440+515031342+515231882+514845935
3238+513325197+511179260+509782577+509521740+509365601+508650133+508111273
3228+508645792+510124592+511770088+512805400+512654306+511426137+510161603
3218+509684741+509587902+509029628+507973552+507100302+506716818+506071618
3208+504145225+501285286+499169028+498770118+499458899+500267687+500838689
3198+501061870+500776633+499795928+497990892+495867067+494690808+495189313
3188+496586994+497655681+498067905+498087496+497629579+496316831+494252424
3178+492151416+490628596+489670913+488817577+487712700+486418222+485352996
3168+484994529+485465320+486360008+486963124+486720382+485761232+484742138
3158+483802374+482327006+480147430+478068770+476817521+476312182+476136512
3148+476034717+475852125+475472806+474956235+474571812+474465266+474232789
3138+473253668+471573126+469920855+468796476+468362402+468994816+470559691
3128+471601954+470740875+468609807+467033025+466637986+466527012+466007655
3118+465532875+465694469+466125932+466054168+465537626+465256407+465225760
3108+464705318+463389372+461845319+460731469+460238301+460307719+460827046
3098+461471690+461755695+461466000+460851623+460188884+459340006+458084739
3088+456797065+456283045+456897658+458189730+459311793+459564330+458863906
3078+457818418+457028751+456419711+455540097+454301107+453176786+452698370
3068+452812160+452821545+452082027+450692177+449359516+448775463+449154899
3058+450053663+450711240+450815293+450629300+450284411+449536946+448308836
3048+446928341+445853701+445469132+445878072+446629467+446939984+446396461
3038+445364580+444586175+444340266+444259528+444075294+443939332+443808269
3028+443275274+442247998+441138839+440239195+439491730+438885594+438583904
3018+438590796+438566630+438192238+437578036+437039851+436660825+436435503
3008+436422071+436331655+435611817+434319392+433204603+432739883+432756218
2998+432978871+433278156+433476115+433320974+432614039+431389419+430138551
2988+429552093+429752428+430116263+430068371+429636703+429076111+428488480
2978+427984373+427676730+427394601+426896477+426278463+425685142+424948030
2968+424015921+423311596+423204816+423483102+423611204+423255992+422483511
2958+421676159+421241470+421256017+421424912+421442626+421329745+421260298
2948+421054861+420229297+418744427+417253955+416351026+415991825+415804394
2938+415509860+414951234+414152124+413473461+413353043+413775767+414245443
2928+414320609+413975163+413392107+412660596+411804122+410905592+410105749
2918+409489406+408970342+408406642+407870099+407620935+407781736+408136157
2908+408253290+407897315+407396024+407380451+407951981+408403885+408082400
2898+407180145+406296338+405553800+404639258+403558429+402752457+402454726
2888+402441558+402533616+402891673+403572682+404202398+404383875+404121250
2878+403587434+402753982+401556431+400305915+399606459+399791485+400551589
2868+401152652+400997746+400001527+398568126+397354855+396916852+397258105
2858+397732151+397723470+397433452+397547448+398158453+398593054+398351720
2848+397673643+397053107+396602258+396036887+395164517+394308600+394081988
2838+394615304+395215664+395077151+394226395+393401594+393029577+392722961
2828+391969102+390959158+390305863+390158142+390068195+389661484+389069571
2818+388708288+388809174+389139047+389172657+388634266+387757262+386925834
2808+386276087+385754208+385377235+385281687+385526628+385925655+386168192
2798+386050443+385491641+384546187+383581231+383110587+383227280+383490610
2788+383484568+383205871+382865909+382538558+382060845+381254022+380244107
2778+379428926+379048081+378998196+379059490+379031424+378779062+378420155
2768+378278152+378463178+378692693+378614184+378144859+377450125+376703775
2758+375968920+375292956+374754272+374336123+373899997+373381373+372905919
2748+372656725+372681389+372833715+372905684+372782861+372411050+371778020
2738+371118068+370865032+371112555+371377351+371169567+370577214+370065746
2728+369871687+369777635+369452571+368856171+368187127+367590639+367128324
2718+366884731+366872179+366920335+366783435+366347191+365790178+365455407
2708+365420771+365386517+365167178+364954585+364875459+364710405+364305014
2698+363888449+363738733+363765509+363634504+363198290+362583179+361909824
2688+361247115+360824040+360867855+361185997+361291546+360985340+360504402
2678+360137107+359959588+359871284+359683413+359242331+358590297+357946504
2668+357499175+357316084+357437939+357877145+358453485+358787288+358604257
2658+358012960+357357495+356824676+356377582+356048207+355992749+356168977
2648+356269481+356121408+355893799+355796725+355783762+355647742+355294231
2638+354826432+354381918+353982626+353597735+353263404+353072894+353112837
2628+353389042+353735779+353880157+353683371+353229120+352654950+352050955
2618+351523269+351200052+351123303+351185125+351214687+351144360+351069693
2608+351127086+351320060+351485260+351453880+351252607+351064795+350963528
2598+350813431+350490449+350049396+349610220+349236619+349019011+349129985
2588+349623886+350220110+350503148+350401382+350218585+350108402+349870499
2578+349428361+349108606+349156468+349307415+349172480+348805449+348536547
2568+348464226+348449944+348444284+348537691+348772133+349059248+349223275
2558+349109456+348743011+348317942+347950353+347588308+347246469+347130685
2548+347389791+347881024+348312575+348504405+348415279+348079511+347639660
2538+347297000+347133441+347102560+347209340+347504784+347864072+347991793
2528+347781428+347515517+347546399+347908503+348386714+348807297+349088604
2518+349156878+349010300+348795361+348697495+348769054+348900587+348966222
2508+348952379+348894868+348791196+348691747+348745475+348999303+349245065
2498+349212835+348891026+348563763+348489624+348638401+348873137+349215357
2488+349645764+349865455+349642245+349198728+348927304+348927216+349044965
2478+349139810+349154796+349120542+349180076+349443875+349785773+349982852
2468+350062769+350221137+350400385+350339384+350062271+349902965+350012766
2458+350203159+350278853+350254482+350245508+350305218+350367832+350315483
2448+350125178+349951795+350035641+350483880+351139844+351707620+351973267
2438+351867424+351444583+350922851+350620281+350694802+350990450+351211549
2428+351202751+351023678+350825748+350761580+350964114+351453352+352067730
2418+352609816+353037466+353443415+353907637+354389719+354721645+354769800
2408+354626097+354537059+354653195+354926907+355198683+355341595+355378782
2398+355435002+355558734+355733085+356067475+356732823+357657161+358461286
2388+358763651+358490408+357814766+356826993+355378401+353275809+350556201
2378+347535313+344557507+341653958+338576821+335349997+332531292+330563137
2368+329133959+327577970+325707621+323999248+323149577+323554235+325088229
2358+327399806+330352860+334074318+338761202+344244028+349448304+352799563
2348+353371123+351622424+349293983+348108633+348268642+348946660+349737119
2338+350840646+352352909+353835697+354668885+354772499+354669472+354808571
2328+355275315+356131702+357439142+358993987+360565608+362226589+363997488
2318+365550633+366697740+367740678+368982894+370272679+371309223+372106369
2308+372910025+373832134+374755152+375527633+376097843+376456927+376592360
2298+376540656+376398477+376268411+376240726+376378945+376657320+376967192
2288+377258911+377638875+378241375+378976200+379500807+379565650+379285779
2278+378927400+378615299+378440215+378584212+379069930+379582366+379739355
2268+379432034+378866164+378402998+378317450+378549957+378735804+378600987
2258+378274926+378112511+378283753+378638027+378871531+378738913+378262081
2248+377807713+377765716+378140841+378663894+379182019+379654658+379938488
2238+379914087+379729531+379697329+379990631+380504651+380981308+381273144
2228+381453067+381610554+381657683+381443564+380958462+380340711+379761879
2218+379335284+379026966+378649729+378081718+377492180+377177440+377152541
2208+377116674+376893258+376706033+376902526+377516727+378203015+378590458
2198+378644157+378617879+378723546+378990571+379365667+379743872+379971921
2188+380042687+380217947+380738859+381462099+382008408+382288337+382630704
2178+383278867+384020730+384508824+384707722+384824269+385027096+385386796
2168+385863247+386272157+386481818+386637077+386965074+387402871+387660424
2158+387636874+387554112+387635613+387838499+387993699+388052324+388063410
2148+388042089+388023202+388166554+388646671+389443025+390326334+391057757
2138+391538900+391758708+391709380+391460567+391249176+391342143+391790001
2128+392403704+392980044+393457697+393848689+394134601+394309626+394463448
2118+394730091+395175339+395787077+396534014+397348286+398083873+398608245
2108+398950994+399291542+399794447+400500824+401356976+402265770+403083532
2098+403659579+404012768+404418511+405119433+405970160+406605536+406950307
2088+407285812+407815081+408432186+408918169+409156219+409182085+409165281
2078+409288455+409565628+409852625+410066949+410271155+410524249+410834033
2068+411270453+411876941+412436829+412641299+412551851+412571734+412936273
2058+413527071+414165116+414803043+415426542+415995608+416525670+417106380
2048+417806393+418595444+419367485+420030136+420592926+421205867+422070436
2038+423224054+424434392+425396151+426023462+426502465+427105815+427996309
2028+429148902+430405019+431584035+432585768+433510575+434649060+436145662
2018+437723793+439045574+440253360+441742688+443520099+445231962+446720059
2008+448156979+449698363+451314972+452907298+454409588+455845717+457301524
1998+458800178+460365435+462201206+464439671+466684118+468280286+469112331
1988+469671895+470455902+471668469+473223226+474770769+475996767+477004658
1978+478171240+479679425+481421086+483281023+485359067+487882974+490842656
1968+493755736+496033881+497629462+499060047+500784903+502822622+504999940
1958+507347825+510016667+512857485+515432422+517548269+519499884+521678198
1948+524188087+526941510+529877172+532871665+535579513+537720347+539502743
1938+541397463+543588212+545939088+548331961+550732928+553064742+555294907
1928+557587539+560188225+563108109+565955966+568318280+570396588+572760251
1918+575329088+577318417+578507170+579689236+581601200+584127512+586574112
1908+588372638+589503264+590360794+591317861+592514180+594043130+596107478
1898+598746642+601421995+603243338+604045791+604831352+606445292+608322122
1888+609350689+609418200+609049439+608506473+608169151+608560025+609441251
1878+609991080+609946971+609741094+609933891+611217606+614122006+617724864
1868+619497347+618189291+615568193+613816298+613225646+612848966+612224412
1858+611710480+611532346+611387822+610948088+610269865+609687483+609528236
1848+610004570+611094725+612074726+611518915+608985388+605896285+603634622
1838+602263161+601122622+599983315+599472434+600278876+601966134+602947894
1828+602296418+600615964+598492139+595885412+593184426+591267770+590389242
1818+589841701+588858591+587578689+586739049+586528596+586282130+585459851
1808+584375269+583684376+583805439+584843978+586413399+587577106+587600333
1798+586831313+586482083+587652125+590367422+592907929+593086767+591265952
1788+589816714+590069164+591535411+593188180+594593720+595624575+596139797
1778+596526448+597755672+600613090+604903380+608879516+610474570+609870369
1768+608650764+607786899+608016414+609970727+612800987+614438858+614633591
1758+615138314+616627730+618485790+620850978+624376178+628336595+630824078
1748+631324284+631205919+631634332+632665128+633884499+635015066+635995360
1738+637322362+640123647+644703456+648678830+649231649+647650028+646233872
1728+645263255+644668791+645053624+646720353+649431192+653426450+659347749
1718+666332983+670901649+670641515+667220076+663267460+660576621+660538672
1708+663712237+668710782+672650435+674427318+675985008+679106429+682714801
1698+684663307+684544883+682531564+679521235+677565045+677772858+679666346
1688+682821084+688140997+695893903+702029056+701935033+698005527+694735240
1678+694216440+696491065+699792556+702124311+703871104+706366563+708766416
1668+709026843+707767235+707294596+708168550+708988072+708708817+708207731
1658+709036345+712318773+718529180+725620814+728085832+726423385+726689794
1648+729938262+732022729+729004363+723334927+719487538+719139071+722164358
1638+727797955+733874278+735816860+731678016+725980777+723056494+723823227
1628+727037323+730882718+734137637+735714449+734780492+732578774+731645521
1618+732972229+734808939+734639428+733016220+732202153+732979092+734479652
1608+735389737+735211251+734598252+734493143+735098282+735913053+736753163
1598+738122337+740416964+743421839+746707787+749974261+752951744+755529086
1588+758023549+760838793+763878802+766734988+769357787+772231099+776090278
1578+781295111+786426685+788376539+787021208+785801368+786689340+788483525
1568+788792048+787164735+784755615+783082317+784360694+790570984+799278434
1558+801003056+794122109+786868823+782126658+778981363+777008516+776402790
1548+777257916+779842002+784527742+791249676+799340022+806071047+805455233
1538+797312508+789662424+786814216+787789290+789771404+791520660+793967261
1528+797735936+802228819+806915791+812161975+817778035+822460138+826063232
1518+829470536+832059960+833159323+834336462+837440991+842666647+849579384
1508+857355106+862388609+861369368+858424145+858426843+862146894+868212189
1498+874052486+876740216+875889959+874905852+877375152+883988282+891649217
1488+895897276+896078225+894685003+893720897+894394311+897516495+902961049
1478+909618522+916255406+922242633+927474212+931692885+934929329+938334228
1468+942443510+945883368+947307267+948098810+950907193+956366586+963581160
1458+970434070+972490324+968378930+962358095+957340311+954292677+953434384
1448+953121931+950617380+945660832+941054335+939081546+940057383+943445038
1438+948216999+951893587+952014885+950075060+949769469+952512100+956165988
1428+957328874+955541844+953577502+954085568+957773300+963986640+970810750
1418+974385220+972372780+967538410+963802112+961977368+960419091+958398616
1408+957386238+958438325+959978771+959580917+957624610+956993135+959254211
1398+962698291+964759824+965088056+964709030+964315750+964429775+965576707
1388+967303557+968279511+968579529+970046187+973408679+977194540+979929838
1378+981992603+984428001+987149926+989392643+991149348+993663871+997703295
1368+1001669754+1003585648+1004467695+1007113370+1011294386+1013395863
1360+1012527071+1012052673+1014228055+1018086119+1021838137+1024296116
1351+1024466566+1022794676+1022316054+1025314125+1029796861+1032058935
1342+1031738798+1031806368+1034105628+1037200127+1039346768+1041522384
1334+1045071809+1048405266+1048816435+1046581695+1044158674+1042334985
1325+1040267176+1038417445+1038640332+1042227999+1049017738+1056544296
1317+1060055242+1056882733+1050583581+1048207835+1053108544+1061708598
1308+1068390647+1071721759+1073315873+1073741823+1072594070+1069431179
1300+1064461845+1059709063+1058362119+1060927084+1063923278+1064427356
1291+1062904565+1060819277+1058478138+1055537313+1051743182+1047271004
1283+1042886573+1039674061+1038536162+1039214795+1039326591+1036380371
1274+1031190025+1026923607+1025680130+1027296299+1030394434+1032757276
1265+1031034825+1023391662+1012678283+1004164451+1000449621+1000533262
1257+1002864665+1006135597+1008160589+1007179532+1003303988+997385857+990330061
1247+983760570+978960102+975332609+971463517+967071871+962571832+957653761
1237+951765720+945251013+938926112+932915130+926361593+918257698+908696295
1227+899424587+892629570+888895384+886866873+885266248+884417633+884767332
1217+884969456+882970448+879030267+875995302+875835586+877531114+879083291
1207+880198667+881871965+884383320+886872328+888303969+888634253+889287314
1197+891688691+895275948+898379890+901152552+905283067+910320676+913458755
1187+913955677+914541871+917355532+921496195+926032306+931550413+938037084
1177+944459176+949338475+951431506+951230379+951404877+954715577+961191513
1167+968368607+974455722+979610230+983864213+985820813+984873306+983689891
1157+985920643+992018023+998706406+1002969657+1004645184+1004437781+1002106848
1147+998487625+996784061+999776970+1006859043+1014275565+1018389246+1018563333
1137+1017591427+1018921595+1021989465+1022349018+1018382794+1014016546
1128+1013024580+1015766096+1021155632+1028584705+1036462370+1041352403
1120+1041996900+1041678288+1043805104+1046962363+1047226896+1044032918
1111+1041111802+1041981415+1046129820+1050505336+1053016925+1053284977
1103+1050971053+1045839128+1041447306+1042676707+1048519995+1052380406
1094+1050429671+1045835843+1043644742+1045340329+1049958792+1055944376
1085+1059350566+1055503528+1045898017+1037781394+1034618856+1032512452
1077+1029582303+1029665710+1034550582+1041271108+1046260854+1048494421
1068+1049392541+1049455653+1046421333+1039786443+1033546532+1031363760
1060+1030390211+1024157926+1012913957+1004288095+1003188791+1006895292
1051+1009378258+1008540670+1007212848+1008667599+1014512060+1023530791
1043+1030547757+1030184099+1023708397+1016949159+1012855889+1010742329
1034+1009439142+1008873359+1009632819+1011195847+1010913366+1007049319
1025+1001816390+998326559+996805997+996492078+997892163+1000134763+1000929767
1015+1000877565+1003580955+1011688897+1023911811+1033818220+1033120817
1007+1020877374+1006003038+997326850+994661703+990788505+981743380+972215645
997+968291300+969385854+969445564+964438104+955835352+946983141+939404498
987+933237554+928777752+926524946+926111255+925457315+922417130+917979500
977+915182790+914985124+915289952+913177389+907599572+900400952+894956691
967+893484930+895281989+897201930+896155004+891922665+887003128+883743164
957+882406308+881888740+881816243+883104767+886598704+891872926+897123568
947+900216835+900361184+898845315+897941506+899018815+901580554+904464425
937+908271988+914994743+924842087+935404372+944082202+949770701+952541368
927+953505532+955052254+959733536+967433008+974572328+977718502+976766655
917+973148370+966678358+957986626+951286629+950290439+954058645+959089861
907+963509660+966535768+966993509+965419982+963809327+962725096+961240549
897+959410701+959146052+962329002+968396527+973568982+974328676+971675553
887+969323211+969044484+969554427+969576716+969529440+969347963+968257281
877+966583572+965862765+967585685+972152415+978891945+986478448+992326311
867+993242496+989708087+985463254+982822624+983326467+988727969+997913513
857+1005947785+1008853534+1007270095+1003735921+999540005+994212995+987388064
847+981733702+981838811+989249643+999687815+1007075948+1009130032+1007944740
837+1006200235+1003849124+999589627+994012279+989494585+988725036+994014625
827+1004470628+1013464841+1014789614+1012316971+1013863340+1019110932
818+1022222559+1021722470+1021590731+1022837845+1021689740+1019364203
810+1022060320+1031425230+1042252047+1046644338+1043336454+1038100123
801+1034068206+1030366984+1026743303+1026295065+1032873999+1045692140
793+1055880208+1052502642+1035975302+1016474174+1002367509+996979380+998606107
783+1001365806+1000702774+998175348+997757492+1000841316+1004794284+1004020161
773+996539588+988708027+987890499+993796430+999394425+1000683418+1000184971
763+999835038+998942198+998694089+1000977278+1003752578+1003019513+998258520
753+992806106+989443321+987946221+987186526+987897068+991042480+994388020
743+994893271+993210471+992001130+992804464+994796608+996933161+1000869236
733+1008864444+1017915200+1019942303+1014765331+1010816469+1012134555
724+1016117906+1018609084+1017841764+1015368887+1012039182+1008449756
716+1007050726+1008115073+1008801918+1008082226+1009553049+1016928630
707+1026258582+1027165616+1016216563+1001654504+991752669+987343955+985605902
697+985884981+986972554+982792593+969282915+954304115+949594327+956730069
687+966219092+968875911+967376171+968872567+975252604+985202124+994564805
677+997499764+990829329+976804252+959434750+942839546+933379322+942106950
667+970412075+991770148+987204240+969744057+958722800+960943404+965875435
657+960465369+948974641+946065725+955219244+963153334+958213796+947864309
647+944432722+950312611+960810376+971269663+975892408+966285841+946995635
637+932668898+930780572+935701986+938705453+939220792+938603805+937448544
627+939729738+945648867+949262342+946059449+936891384+927255372+922993940
617+923809239+922026491+912739709+897733458+880941058+871304636+873895527
607+880909384+879686847+871278007+868417539+879667021+900011251
##END=
