##TITLE=<SNM>
##JCAMP-DX=4.24
##DATA TYPE=INFRARED SPECTRUM
##DATE=29/4/2025
##SAMPLING PROCEDURE=Instrument type and / or accessory
##ORIGIN=Admin
##XUNITS=1/CM
##YUNITS=ABSORBANCE
##RESOLUTION=4
##FIRSTX=4497.3318
##LASTX=599.83466
##DELTAX=-1.4281778
##MAXY=2.1804414
##MINY=0.50574094
##XFACTOR=1
##YFACTOR=2.0306943e-09
##NPOINTS=2730
##FIRSTY=0.51882595
##XYDATA=(X++(Y..Y))
4497+255491904+255641716+255548700+254849010+253637072+252545917+252060320
4487+251941269+251711796+251541379+252015235+253071609+253941539+254247121
4477+254390622+254790189+255423015+256025550+256294589+256117568+255781930
4467+255516912+254983412+254052049+253710276+254889105+256786027+257820504
4457+257859659+257909528+258061952+257436787+255946241+254613285+254102094
4447+254039251+253961322+254001270+254310785+254607122+254683202+254747482
4437+255018459+255408134+255725486+255889739+255894641+255710370+255299062
4427+254857229+254736240+254730781+253975294+252234200+250605495+250255709
4417+251263740+252957489+254513724+255242853+255020278+254306999+253501379
4407+252755959+252444888+253036621+254413722+255881080+256793395+256789520
4397+255697367+253752865+251782006+250759680+251120209+252495578+253959385
4387+254620917+254345127+253821343+253686031+253845441+253878785+253690258
4377+253470119+253296825+252980442+252373064+251811269+251877194+252589270
4367+253292980+253544731+253463749+253138590+252470072+251681710+251305596
4357+251519571+251968625+252261175+252385421+252622789+253123943+253655975
4347+253875732+253823251+253888764+254188594+254267022+253675670+252695289
4337+252068979+252056034+252262349+252510959+253140732+254008784+254100626
4327+252907297+251341082+250473001+250231758+250050510+249921568+250049277
4317+250238010+250234135+250075195+249894740+249747276+249635093+249463326
4307+249173976+249048291+249374596+249838091+249867355+249559689+249696439
4297+250773006+252245002+252866263+252112185+251101483+251245718+252191552
4287+252273091+250998282+249677918+249436557+250030698+250701681+251015423
4277+250772947+250050862+249489831+249929434+251516136+253327146+254215891
4267+254015887+253504167+253275457+253240646+253137562+252877446+252339984
4257+251416634+250410746+249948689+250367158+251480239+252916807+254346712
4247+255400003+255756305+255405492+254563505+253516935+252699838+252535556
4237+253068028+253934142+254515192+254088827+252508317+250779111+250170823
4227+250901156+252383631+254220792+255979908+256770207+256259690+255322368
4217+254783409+254609617+254730722+255234782+255525130+254839324+253689876
4207+253293421+253757884+254122141+253850372+253179477+252461853+252053716
4197+252333498+253200551+253942214+253989705+253496271+252963682+252610638
4187+252395078+252341423+252454486+252601186+252804976+253254089+253813125
4177+254111545+254196841+254463474+255041969+255827484+256734955+257405322
4167+257297777+256548483+256030569+256228254+256685057+256750306+256343489
4157+255853343+255667927+255850378+256082698+256032037+255819940+255861502
4147+256225201+256470231+256186075+255477463+254797292+254448534+254435178
4137+254656198+254887637+254693710+253958680+253446990+254104970+255771216
4127+257162230+257321904+256646254+256224027+256479887+256765980+256300694
4117+255162870+254046384+253384676+253060748+252749384+252468311+252818596
4107+254261562+256098959+256947110+256414844+255405639+254821596+254949041
4097+255739281+256722569+257039246+256356551+255379369+255023214+255510807
4087+256404923+257098771+257165341+256536595+255543827+254771433+254708767
4077+255349724+256137645+256470906+256276714+255979849+255959743+256237412
4067+256612705+256811886+256533396+255732178+254887226+254598169+254866651
4057+255209539+255419170+255631061+255854135+256071427+256436271+256804548
4047+256682122+256137938+255970486+256510766+257070271+256948372+256306623
4037+255724958+255438894+255369477+255600535+256307298+257146116+257363819
4027+256855474+256449068+256747870+257338605+257457833+256909452+256197845
4017+256029747+256486991+256704957+255866463+254361212+253281034+253151182
4007+253794604+254846486+255881432+256586816+257024041+257308754+257301358
3997+257024570+256858438+256974378+257168423+257388503+257820827+258289371
3987+258202460+257461003+256813207+256884620+257349964+257526252+257443597
3977+257644246+258154616+258447724+258291777+257972693+257716011+257414128
3967+256992019+256745228+257082158+257974601+258942156+259558486+259771610
3957+259753001+259618041+259359657+259024693+258939221+259450677+260270856
3947+260566693+260057027+259475655+259589364+260136248+260167625+259316010
3937+258124971+257290175+257139541+257737468+258803644+259541051+259466673
3927+259267727+259896238+261070664+261567004+261034356+260544914+261231865
3917+262891154+263981576+263331051+261581798+260290991+260077163+260367159
3907+260813953+261899561+263729708+265228531+265567809+265332113+265033194
3897+264186775+262827754+262195075+263108945+264414222+264088006+262300536
3887+261299462+262378084+264286366+265155092+265192076+265349431+265291901
3878+264595382+264077615+264451881+265315823+266205067+267158180+267739964
3868+267411105+266698002+266276568+265812750+264792450+263582215+262694174
3858+262273092+263056552+266625973+272245444+274785495+272410900+268428030
3848+265337103+263575933+262913227+263234278+264383696+266250562+268843946
3838+271457347+272677856+272185566+270897431+269428928+267844192+266419629
3828+265563494+265251220+265469157+266831465+269404918+271272166+271057398
3818+270436900+270990065+271514818+270431734+268592606+267844955+269127631
3808+271872499+274268550+275244176+275524252+275662939+275126094+274171748
3798+274114599+275100411+275926900+276064942+276330665+277384602+278952314
3788+280611721+282400804+284402630+286542968+289086130+292554316+296842944
3778+301052323+304608183+307827084+311323741+315529363+320370394+324966953
3768+328191548+329770824+330486775+331432844+333156678+335603801+338592818
3758+342016595+346041027+351221630+358088937+366289581+373967410+379162806
3748+382468705+386723433+393875218+401429886+405617310+407591986+410437178
3738+415328430+421284068+426665467+430640735+433389537+435509680+437509745
3728+439893937+442644998+444238247+443052842+439962415+437317402+436090348
3718+435497411+434707435+433971613+434390053+436747653+439902713+441367253
3708+440423327+438725792+437952928+438277296+439103815+440474458+442746820
3698+445444314+447715590+449468219+451240777+453405858+455835693+457640069
3688+457780371+457056026+457312884+458875488+460417253+460622599+459885633
3678+459713954+460222093+459695022+458143541+458036290+460175453+462305898
3668+462525304+461843020+461176292+459841253+457593664+455441087+454573328
3658+455664073+458214397+460306626+461073678+461839321+463428225+464453368
3648+463559692+462004631+461312279+461460360+461984026+462482186+462615032
3638+462611363+463129922+464206754+465134008+465880632+467642946+470803789
3628+473213312+473315515+472589292+472635785+473521096+474718094+475763724
3618+476276501+476607355+477681340+479613191+481704276+483745638+485714179
3608+486709618+486087887+484782346+484402239+485941333+489008984+491868647
3598+493153319+493394943+494124337+495939632+498343431+500715531+502404202
3588+502739107+501923242+501107907+500950639+501207703+501420093+501268579
3578+500570063+499512105+498930645+499573157+501013394+502059083+502035366
3568+501336088+501049438+502006484+504053483+505999041+506680063+506116742
3558+505374375+505407719+506200453+507026297+507262051+506849716+506146740
3548+505826276+506593475+508258429+509758603+510575700+511094464+511133620
3538+509579733+506510409+503959968+503420363+504083480+503977696+502289377
3528+500173520+499015765+498559226+497575528+496126016+495591225+496388598
3518+497232933+496914642+495770859+494826668+494370834+494077785+493920107
3508+494506029+496567996+499975277+503053876+503479947+500786680+497005280
3498+494176348+492737286+492566928+493982626+496808095+499470249+500125383
3488+498546957+496324435+495387406+496405974+498211055+498776136+497107542
3478+494024365+491100039+489298246+488520129+488222178+488204743+488577306
3468+489355101+490447988+491626054+492144202+491120644+488795332+486653233
3458+485957946+486722768+488010991+488557758+487571506+485582712+483600082
3448+481730105+479797520+478789695+479878796+482260376+483760696+483528024
3438+482566721+481801988+481232591+480488287+479225599+477579459+476370721
3428+476201214+476650268+476978275+477047369+477092952+477136100+476871698
3418+476061117+474863062+473817491+473454467+473749835+474083448+473834720
3408+473042484+472435312+472699214+473682736+474485157+474431179+473666329
3398+472714624+472045343+472071319+472585241+472433844+471122227+470116192
3388+470934493+472803795+473661838+472776997+471125368+469981438+470112788
3378+471573717+473565358+474932127+475422157+475964344+477190518+478392388
3368+478670204+478506949+479037571+480286082+481321028+481674454+481712876
3358+482066830+483014102+484125128+484979678+486048585+487806908+489281398
3348+489029589+487529914+486658311+486832837+486647598+485429143+484208840
3338+483697443+483232186+482385679+481812936+481750622+481442428+480629499
3328+480096029+480420279+481208493+481713169+481603951+481104852+480753393
3318+480881895+481235145+481292733+480992376+480856535+481135348+481246181
3308+480617699+479630949+479206814+479875097+481471956+483334360+484737173
3298+485458084+485679661+485277482+484034725+482570596+482007363+482687621
3288+483848839+484565348+484672629+484686307+485022121+485630380+486409642
3278+487395982+488260482+488373046+487848734+487746003+488717901+490146574
3268+491047411+491348209+491610585+491810882+491327839+489953644+488138261
3258+486500721+485472731+485055171+484866556+484868406+485542941+486715459
3248+487117462+485870360+483546427+481328249+480177744+480594423+482154680
3238+483720366+484701658+485523480+486553407+487362961+487293749+486190266
3228+484379580+482326799+480705990+480352828+481274418+481949099+480725743
3218+477847031+474978327+473239876+472687033+473031243+474024451+475366682
3208+476604391+477106278+476355193+474456070+472133487+470161189+468977986
3198+468663716+468884706+469010244+468671259+468104504+467720171+467485239
3188+467030667+466230242+465382765+464781992+464323046+463732956+462992879
3178+462331875+461951299+461962540+462293776+462346169+461336700+459301795
3168+457086111+455206301+453454641+451702306+450219744+449090255+448112779
3158+447376664+447295800+447961030+448871995+449404085+449312801+448690189
3148+447672795+446458039+445390189+444745975+444509223+444358296+443836449
3138+442740304+441410225+440437504+440017127+439780052+439350135+438818104
3128+438559396+438710911+438944052+438805101+438198398+437449397+436899901
3118+436536877+436083010+435322885+434272264+433156219+432238562+431595140
3108+431129679+430829761+430727881+430597970+430072278+429101788+428061001
3098+427465745+427600323+428193818+428544338+428202125+427405603+426804242
3088+426915192+427616261+428033938+427402081+426100590+425244221+425250884
3078+425463919+425162799+424363078+423529397+422959502+422688026+422719609
3068+422998921+423220851+422996544+422266475+421392611+420793364+420562835
3058+420468351+420250002+419792730+419014788+417953278+417079444+417017512
3048+417726066+418454285+418713345+418717571+418691067+418426665+417783449
3038+417084904+416687920+416486067+416076051+415205152+413936125+412556030
3028+411502944+411214856+411674594+412080823+411454073+409810281+408223696
3018+407537362+407662489+408220820+408969938+409431701+409093861+408184511
3008+407465097+407253911+407197497+406858747+406169213+405411466+404884981
2998+404546907+404129494+403657722+403514250+403830692+404100436+403686927
2988+402635954+401645476+401151484+400834836+400310495+399872183+400017475
2978+400596352+401013237+401006192+400686433+400069222+399149247+398197748
2968+397478275+396924083+396468014+396322194+396559386+396776795+396594608
2958+396170856+395815463+395480676+395051435+394735814+394694986+394633053
2948+394202990+393578265+393250434+393396548+393675801+393597314+392959352
2938+391899750+390645486+389382858+388383075+387972560+388137752+388396811
2928+388359652+388214595+388365845+388756959+388846863+388252782+387246483
2918+386542185+386604704+387158838+387462013+387125759+386493109+386105371
2908+386024184+385893715+385586723+385420563+385545425+385521063+384953692
2898+384263248+384185084+384646877+384789322+384114992+383016000+382062622
2888+381337044+380655230+380038959+379699592+379726508+379996956+380321353
2878+380548507+380564122+380321089+379873209+379334866+378909705+378935769
2868+379566951+380291267+380223318+379206687+378162612+377973762+378487478
2858+378925496+378830161+378323225+377781185+377457257+377248008+376908231
2848+376563317+376614213+377044512+377311995+377039199+376414856+375881034
2838+375705421+375787108+375722680+375225489+374486850+373893942+373517886
2828+373162788+372744201+372306330+371773594+370996386+370102328+369553683
2818+369666952+370194023+370574394+370524701+370177087+369761201+369427647
2808+369279596+369279889+369160046+368669253+367947697+367457990+367434538
2798+367546075+367299666+366672417+366070528+365725497+365461389+365101946
2788+364783214+364648930+364485968+364038617+363526926+363402268+363684134
2778+363918039+363701188+363003318+362100249+361340770+360860691+360516482
2768+360151022+359783889+359517756+359407246+359360136+359103278+358467811
2758+357704251+357192619+356933002+356685654+356450780+356415000+356555566
2748+356664080+356672857+356612568+356319842+355585282+354598473+353860802
2738+353630331+353766905+354024468+354173341+353973983+353403940+352824505
2728+352601960+352638415+352533863+352174244+351881636+351882164+351904882
2718+351553952+350886461+350294874+349942740+349685882+349484763+349509947
2708+349785532+350045208+350052722+349832465+349515084+349182557+348928487
2698+348851380+348892355+348826137+348487534+347937715+347382818+346958390
2688+346616911+346255707+345914374+345737970+345740230+345721973+345504329
2678+345152517+344865192+344716819+344625065+344520543+344408565+344277979
2668+344078827+343813662+343562792+343393490+343294956+343216557+343130850
2658+343071353+343149312+343451255+343811666+343814631+343238747+342385782
2648+341735580+341427562+341283708+341113056+340795029+340327131+339916440
2638+339761169+339754066+339691898+339641501+339773027+340011100+340144680
2628+340094195+339881042+339535013+339137090+338778469+338463523+338209542
2618+338168625+338455187+338900367+339171431+339120535+338866759+338584130
2608+338390290+338376965+338520877+338603355+338441685+338167216+338060552
2598+338120517+338030613+337645047+337263972+337197695+337289478+337202802
2588+336976206+336879902+336905145+336837019+336687442+336682012+336901975
2578+337171807+337249530+337018942+336560584+336135129+336041731+336359788
2568+336842391+337186013+337359952+337502485+337598553+337546278+337463417
2558+337579005+337853386+338033900+338054887+338083739+338178810+338149312
2548+337809476+337234062+336692256+336400499+336406516+336651398+337004325
2538+337214719+337033941+336521927+336079096+336039852+336340973+336653776
2528+336712861+336481011+336149687+336028640+336292337+336775116+337089240
2518+336964054+336463664+335939880+335781468+336073901+336464809+336530615
2508+336311944+336265715+336642593+337170486+337446393+337404449+337265879
2498+337223848+337293294+337355461+337287013+337104738+336995989+337155399
2488+337571843+337996271+338166013+338084825+338008951+338108366+338236487
2478+338131055+337768589+337375303+337106411+336871625+336520518+336082794
2468+335755492+335710525+335944253+336275695+336498064+336566659+336602293
2458+336690407+336758151+336690935+336502849+336337656+336314175+336417464
2448+336579545+336790761+337013189+337077969+336863319+336510685+336297180
2438+336366128+336677316+337105266+337493121+337691070+337649420+337478035
2428+337363797+337379442+337409850+337341578+337262797+337369315+337700023
2418+338060640+338250575+338341390+338622170+339199022+339787938+340047173
2408+339988939+339921371+340093755+340497753+340936799+341235043+341401585
2398+341599798+341989004+342643932+343559534+344672615+345991687+347791425
2388+350616806+355080783+361719996+370975869+383115826+398103147+415664920
2378+435588871+457873064+482339274+507999957+533134538+556318218+577007167
2368+594898884+609549569+620595259+627097106+627558047+622167755+612777216
2358+599791779+582012421+559170397+532833681+506806452+486566381+476280816
2348+477292692+488596854+506430631+524358098+537383219+545420403+551034238
2338+556026578+560045728+561474928+559657813+555868430+552030499+548945560
2328+545897664+541708449+535848234+528647696+520858770+513046832+505194565
2318+496978453+488426614+479995176+472029581+464376055+456597990+448547128
2308+440542320+432930855+425749894+418940939+412620311+406964883+402000222
2298+397610916+393674657+390108905+386817946+383744689+381006689+378788482
2288+377040432+375494499+373999286+372600934+371329412+370187742+369302784
2278+368806268+368576061+368313626+367897417+367463098+367094438+366665666
2268+366072054+365405063+364834903+364480333+364339326+364210501+363852761
2258+363323224+362891869+362598820+362266762+361943569+361909198+362202893
2248+362513905+362634277+362730316+363029382+363433058+363601773+363354014
2238+362868652+362505011+362454849+362565124+362533101+362234769+361745503
2228+361119692+360364293+359585793+358944778+358494374+358244824+358306610
2218+358716362+359170083+359256348+359003805+358877328+359161219+359640388
2208+359973619+360110017+360215126+360424816+360824676+361477462+362293825
2198+363024128+363560269+364103249+364856447+365733804+366539189+367230073
2188+367873730+368541661+369288489+370052929+370649476+371016756+371323952
2178+371719821+372149327+372462159+372567913+372521978+372519160+372682356
2168+372886029+372955417+372926065+372932434+373011537+373143533+373295605
2158+373382046+373385187+373497428+373953086+374745762+375642638+376476641
2148+377353733+378537112+380193173+382349507+385004588+388111717+391554748
2138+395284371+399357058+403766235+408423670+413338727+418579001+423999115
2128+429206340+433902607+438161913+442237242+446115386+449433085+451903454
2118+453669174+455092122+456280344+457003339+457064949+456543014+455627001
2108+454500712+453439701+452690084+452146928+451418562+450299669+448971292
2098+447664342+446327394+444734175+442751810+440376570+437671444+434797604
2088+431948478+429166685+426351020+423404270+420245277+416819035+413243450
2078+409830153+406884048+404523807+402681772+401244471+400158129+399344554
2068+398624113+397879339+397178094+396605762+396151865+395822831+395653999
2058+395600373+395597409+395697792+396029791+396619411+397296470+397851103
2048+398309403+398916076+399815622+400950424+402304014+404038650+406330325
2038+409185175+412449600+415925623+419415353+422719873+425754268+428623470
2028+431407494+433973081+436138309+437833672+439070794+440037673+441136841
2018+442579133+444056823+445113313+445653505+445843089+445786616+445578804
2008+445467179+445666596+446051722+446253633+446078226+445684119+445352560
1998+445226406+445291802+445519396+445927387+446463411+446949859+447337245
1988+447896016+448914613+450301900+451677826+452790966+453736213+454828337
1978+456322376+458208878+460261982+462288170+464284742+466340223+468444839
1968+470490370+472460965+474510224+476755024+479075054+481257100+483332217
1958+485608513+488236619+490872533+493018242+494673686+496397932+498705222
1948+501622092+504845630+508081320+511120470+513803288+516141457+518346721
1938+520551045+522724139+524988224+527630126+530620199+533506954+535934118
1928+537968847+539946340+542191933+544731867+547242331+549507883+551651273
1918+553631878+555067888+555920031+556742411+558036182+559807978+561727941
1908+563513356+565124479+566537301+567462061+567662769+567551936+567995149
1898+569388893+571149417+572258389+572459038+572644072+573676142+575246995
1888+576476133+577243684+578002664+578808431+579449006+580042912+580801012
1878+581482327+581525826+580679201+579384139+578516791+578709985+579769000
1868+580679260+580598895+579766535+578963409+578536927+578196328+577467463
1858+576180619+574513022+572729780+571073220+569786728+568925251+568223800
1848+567523524+567066574+566840271+566069257+564251614+562056212+560330617
1838+559166229+558122770+556987734+556151969+556037556+556302720+556038965
1828+554935804+553499501+552033023+550382334+548595745+547085768+546040842
1818+545109625+543922930+542774039+542311102+542608964+542994765+542826403
1808+542134521+541406360+541082198+541349476+542148140+543201461+544115008
1798+544663536+545051391+545799100+547256772+548977026+549873255+549663037
1788+549248471+549480351+550486768+552015647+553911659+556044072+558146839
1778+560043908+561803551+563612272+565569101+567399894+568656153+569382024
1768+569889635+570314885+571005945+572533064+574751535+576562017+577373067
1758+577769669+578351071+579325376+581086253+584023669+587617628+590437989
1748+591768156+592377677+593250953+594656320+596356556+598001023+599271254
1738+600311425+601934171+604681681+607587162+609053581+609358312+609579919
1728+610003055+610685544+611779782+613116113+614470936+616227409+619022528
1718+622673546+625654404+626605051+625995766+625126657+624894601+625657515
1708+627488953+630182279+633084356+635748741+638608140+641933882+644546901
1698+645443894+645504711+645577093+645645306+645927847+646901038+648572978
1688+650714372+653588682+657379532+660657430+661578022+660863011+660237464
1678+660564620+661934353+663800368+665500663+667210525+669585678+672486698
1668+674830208+676242855+677585819+679463399+681263313+682023996+682038261
1658+682529141+684598036+689040029+695181376+698810850+698096250+696969139
1648+697730585+699392898+699899217+699190957+698606796+698780735+699741891
1638+701566344+704164335+706388325+707043341+707097290+708248235+710915497
1628+714143027+717034361+720193383+724769044+730322122+735197993+739234284
1618+743966508+749989274+755272608+757989474+758613729+758049763+756861013
1608+755704491+755100899+755072839+755503724+756626902+758858406+762147517
1598+765884536+769574475+773052553+776019556+778169931+779796963+781435443
1588+783192151+785002867+786894477+788839389+790914624+793356757+796166141
1578+799064343+801609501+803339147+804599105+806348769+809166371+812768607
1568+816168374+818920521+821456110+824113158+826870764+829788515+832620558
1558+834155190+834354548+834802634+835638868+835583217+834368813+833342790
1548+833151122+832844689+831994953+831977870+834171040+837494903+838881309
1538+837670016+836228547+835972599+836787406+837691619+837536172+836032711
1528+834177087+834134996+837661681+843700414+848648432+850277108+851043191
1518+853774675+857071828+858199996+857623643+857948920+860174730+863383827
1508+866794512+870385183+873434900+874962488+875420553+875991505+877882469
1498+881817907+886856799+890302824+890977330+891008149+892967855+896548253
1488+898894993+899004886+898643858+898910138+899594917+900875539+903439834
1478+907690628+913266542+918663174+921983221+922728934+922094993+921048012
1468+919864252+919589225+921557854+924527616+924906901+921582803+917035496
1458+915058531+917705599+921837929+923369861+922104444+919327641+916013464
1448+913522314+912955236+912904164+910827990+907014890+904346865+904520452
1438+906817587+909456906+910943753+911396652+912440522+915458362+919488724
1428+921366069+919466886+915659833+912769908+911538070+910791358+910098185
1418+910384953+911496684+911881721+910894912+909525061+909225672+910353429
1408+911857829+912570727+912258540+911237565+909719311+908014086+906878756
1398+907203857+909305098+912538851+915590622+917610851+919084549+920748682
1388+922308439+923015526+922958055+922681443+922260185+921892582+922464591
1378+924970007+929583884+935173651+939661902+941577111+941501265+941252831
1368+942128221+944225352+947127781+950560129+953967116+956474116+957711062
1358+958201532+959150360+961760503+966132286+970480352+972343902+971222954
1348+969262250+969175369+972221680+977749222+983893739+988817748+991701744
1338+992905757+993361532+994313119+997346575+1003454579+1011430065+1017626007
1328+1019360936+1017953573+1016499013+1017307363+1020965896+1026112098
1320+1030833872+1034885837+1038542021+1040079237+1038495411+1036888925
1311+1039756249+1048129629+1058896594+1067735612+1072390933+1073741823
1302+1073479535+1071497111+1067061576+1060888528+1054454132+1048759637
1294+1045268645+1045975790+1050149389+1053185779+1051262176+1045484440
1285+1039376201+1035084138+1033335942+1033395585+1032681982+1029014761
1277+1023022169+1017115519+1012954718+1010261744+1007463455+1003805392
1268+1000126196+997255232+994781223+991829718+988459773+985510498+983154366
1258+980271016+975581352+969217518+962905519+958470865+956177311+954735430
1248+952487137+947953860+939956653+928498159+915718596+904531547+895956696
1238+889218273+883466131+877819656+870945510+862166370+852861010+845395601
1228+840555597+837078811+833721311+830665196+828516288+827080513+825666634
1218+824004204+822525046+821928206+822530975+823956360+825584684+827380195
1208+829954118+833492191+836908336+838869451+839662538+840946975+843661435
1198+847264081+851031627+854929729+858868396+862407760+865538312+868614210
1188+871490105+873796280+875973072+878972421+882799433+886399614+889331924
1178+892298281+895809350+899697707+904253878+910683050+919530991+929237297
1168+937196464+942331336+945543486+947776399+949728180+952354114+954921990
1158+954375811+949882159+945878214+947500022+955064171+963874776+968614866
1148+968494230+967238792+967724448+969273580+970291033+970460041+969565337
1138+967509181+966263019+968664646+975449974+984388611+991759860+995058304
1128+994738604+993655403+994022184+994930917+993638379+990239786+989046692
1118+992649809+997531844+998856434+996964179+996104639+998584049+1003001856
1108+1007338181+1010514639+1010644961+1006361234+1000298550+997332017+999499710
1098+1004280423+1007575931+1008093816+1007309769+1006893442+1007862875
1090+1010081406+1013529427+1019350487+1026722969+1030628996+1026094604
1081+1015209058+1005618398+1002786883+1005850982+1010304363+1012658381
1073+1011058705+1004566779+994458352+983978214+975490773+968814400+963499366
1063+961317818+964089631+970229453+975125401+975409116+972609418+970748804
1053+970189945+966328708+957327258+949214640+948247672+952720484+955540610
1043+954369999+954834581+961609106+971787801+979252095+982391159+982962933
1033+980615959+974206805+965966330+959837839+958368485+962269406+969267416
1023+974346461+974476079+971893585+969466598+966683807+962854447+959961352
1013+960137228+962182700+962205477+957874317+950502834+942497820+935134026
1003+929028077+924547575+921536133+919203013+916329936+911647846+904847549
993+897119147+889806543+883378193+878117871+874676777+872961865+871376924
983+868506841+865106370+863096766+862867586+862342306+858779342+851846904
973+844607797+840593872+840339920+841349330+840910990+838293391+834936948
963+833166092+833754362+834541872+832952058+829875162+828460696+829508322
953+830979320+831723213+832874804+835696339+840393223+846645227+853328644
943+858079125+859683497+860468718+863555242+868963438+874780272+880767991
933+888172643+897009606+905429949+911781279+915873808+918175933+919780071
923+921920525+924206448+924659758+922417746+919526764+918519291+919118949
913+919127931+917887815+916529118+915349878+913985016+913392285+914761490
903+917186306+918347230+917276064+915211689+913976974+914499144+916741449
893+920238312+924094793+926901066+927933253+928369245+929989174+932649803
883+934317986+934149976+934054700+936267360+940546626+944984920+948770957
873+951436164+950930901+946411479+941210917+940005084+944150505+949966869
863+951295099+946499358+940776040+939417871+943019109+948400536+952202658
853+954323389+957909716+964808576+972064296+975605245+975170955+973109281
843+970471371+967035442+964260107+964454827+968123633+973284394+976619293
833+976399389+974468095+974370236+977671733+982693131+986594990+988319118
823+988999377+989749493+990579446+990979101+989412769+984774706+979719847
813+978738555+981982816+984438803+983743399+983369867+987844323+998190382
803+1009066771+1012386583+1006901191+999517556+996743101+998463824+999666193
793+997282118+994574234+996311159+1001768256+1005843233+1005018211+1000330602
783+994864465+989508103+983025042+975128806+966732414+958173295+949046864
773+940321614+935173945+935263937+938507200+942370844+946713920+951956396
763+957266030+961429649+963374503+962657320+961097797+961067036+962194558
753+963323548+965897882+971562320+978296869+981896991+980488630+976167685
743+973578030+976219168+982876874+987797360+987004390+983205849+981341008
733+983008487+986443535+989283268+990498905+990208791+988649503+985970853
723+982004419+976511924+970276826+966244175+968103322+975251438+980904077
713+980095785+976937526+977169288+980700375+984603584+987377863+988036871
703+985589983+980293734+972923307+965225372+960821302+961980055+967517106
693+974220953+977625357+974131253+965489950+956817827+950482170+947193353
683+949282736+956469420+962439646+962229487+957604339+950714989+942300340
673+935322230+928877913+918024243+906192392+905756635+917659458+932892249
663+946150893+955327868+959624158+957729378+948689124+935982706+926871420
653+929006944+941882487+953115971+951801419+942650449+935283955+931400235
643+927485872+922357868+918750349+917844492+920370219+929459491+943676473
633+952304098+948703330+941725279+938622553+937625294+935746365+929999389
623+918847856+906559995+900563939+905421671+920569988+940622295+954780338
613+951316878+933578495+916978906+905912258+897074826+890065368+884799645
603+879242341+873199028+869730344
##END=
