##TITLE=<SNM>
##JCAMP-DX=4.24
##DATA TYPE=INFRARED SPECTRUM
##DATE=29/4/2025
##SAMPLING PROCEDURE=Instrument type and / or accessory
##ORIGIN=Admin
##XUNITS=1/CM
##YUNITS=ABSORBANCE
##RESOLUTION=4
##FIRSTX=4497.3318
##LASTX=599.83466
##DELTAX=-1.4281778
##MAXY=2.0509932
##MINY=0.40758374
##XFACTOR=1
##YFACTOR=1.9101363e-09
##NPOINTS=2730
##FIRSTY=0.42015034
##XYDATA=(X++(Y..Y))
4497+219958306+220761991+221880918+221823128+220431069+218623024+217157384
4487+216176802+215777854+216454802+218432396+220796144+222052683+221662706
4477+220502761+219759784+219977216+221151594+222861360+224072044+223735411
4467+222054789+220508533+220301914+221281856+222462443+223175776+223510365
4457+223816418+223925337+223152482+221376172+219667622+219350772+220602100
4447+222261955+222989876+222380142+220971700+219562276+218718805+218659658
4437+219227484+219893011+220062591+219633531+219095099+218928733+219055516
4427+219036451+218746234+218548351+218745080+219112745+219171051+218864655
4417+218670220+218864499+219045141+218793259+218362732+218073748+217609177
4407+216649876+215673038+215431610+216112224+217363630+218520486+218739603
4397+217744152+216509410+216451588+217797262+219223755+219281967+217863977
4387+215982570+214503497+213633347+213379406+213780398+214596549+215310115
4377+215648824+215817249+216072642+216287983+216195603+216007658+216301947
4367+217126430+217770707+217691526+217174859+216785412+216660330+216676010
4357+216842033+217182878+217602921+218159264+219071602+220124454+220447170
4347+219344984+217202631+215312269+214882724+216087089+217842290+218831016
4337+218814993+218434284+217990261+217246707+216232564+215436244+215182880
4327+215287399+215326623+215030743+214457299+213931583+213758103+213882889
4317+214014150+214148282+214578045+215277897+215809885+215991370+216141900
4307+216582085+217291532+217975595+218240099+217973988+217601439+217572184
4297+217741484+217674987+217358902+217212351+217558673+218333587+219160769
4287+219531149+219050305+217771159+216345446+215624859+215904637+216697634
4277+217420609+218035039+218705715+219185608+219073334+218434533+217709531
4267+217274807+217357311+217942440+218576155+218666257+218158749+217616900
4257+217576803+218036646+218551487+218757327+218816116+219269376+220345553
4247+221519821+222025941+221753807+221258578+220924098+220597154+220077086
4237+219493626+219100061+218948907+218832889+218504322+218096231+218181294
4227+219024468+220102845+220750648+220865246+220726075+220574219+220512762
4217+220525119+220622429+220948125+221503423+221937227+221895772+221376203
4207+220662184+220223996+220491886+221316571+221958180+221938522+221567595
4197+221401853+221496324+221449564+221026870+220453801+220053542+219881887
4187+219890390+220138262+220653743+221334186+222011134+222479949+222673635
4177+222833152+223120310+223255285+223051333+222894297+223160423+223647243
4167+223978088+224121066+224259146+224510793+224851639+225046323+224782584
4157+224127806+223661909+223922060+224819202+225661846+225647741+224426854
4147+222501636+220984900+220642697+221264039+222024708+222340465+222308949
4137+222380547+222664913+222739507+222392561+222195225+222758620+223700946
4127+223972284+223125989+221840150+221166946+221501691+222285452+222662105
4117+222398552+222055679+222267010+223024060+223773106+224111284+224081577
4107+223762418+223049414+222135780+221766804+222508876+223988260+225317739
4097+226085040+226435028+226441753+226070015+225540928+225113600+224747229
4087+224404371+224318980+224663851+225283055+225839617+226077301+226070639
4077+226179183+226532152+226784018+226611988+226149009+225824951+226060997
4067+226965097+228046111+228513896+228078267+227186586+226484456+226301816
4057+226555212+226898772+226985161+226686847+226137432+225618144+225336134
4047+225218228+224926966+224268288+223622155+223638833+224377239+225152559
4037+225456053+225514717+225691693+225974326+226309149+226760646+227112007
4027+227007036+226689047+226897009+227752649+228421390+228268036+227711116
4017+227454304+227526542+227621138+227765037+228084180+228396989+228521057
4007+228589067+228740877+228813630+228563105+228075864+227740916+227731102
3997+227788222+227687323+227552910+227485508+227318440+227020641+226952116
3987+227479845+228522025+229578980+230203692+230411373+230474546+230415055
3977+230018775+229257107+228390061+227730837+227467269+227549774+227675933
3967+227616442+227558464+227903959+228777261+229919139+230964252+231610214
3957+231619186+230966983+230068670+229695497+230493206+232300643+233921602
3947+234178055+233361202+232835158+233201716+233674806+233449245+232822926
3937+232495499+232712026+233401955+234365594+235002928+234560808+233126732
3927+231797862+231550161+232229840+232891560+233126264+233499328+234526936
3917+235749025+236154651+235480292+234486807+233923521+233903004+234324903
3907+235491011+237883218+241194644+244034135+245280719+244994621+243448678
3897+240884129+238428328+237666862+238972719+240630843+240525871+239213680
3887+239135060+241178246+243621644+244810671+245153608+244862252+243148601
3878+240718699+239713574+240952404+243369122+245784233+247337120+246886232
3868+244892630+243823614+244899167+246420974+246116903+244077197+241972023
3858+241472113+244304895+251552708+259407166+259963900+253718449+246874140
3848+242876623+242192155+243692634+245764137+247550683+249613387+252664115
3838+255487707+255845544+253869135+251534376+249668072+247743650+245862478
3828+245029773+245624388+247423259+250751770+255198770+257595954+256092979
3818+253573926+252398129+251244908+248567930+245619708+244501592+246245106
3808+249833034+252371012+252756012+253297253+255577763+257639250+257523092
3798+256401668+255570399+254698252+253530381+252728396+252824880+253855187
3788+255839194+258707174+261731769+264071677+266055684+268625147+271436289
3778+273150877+273882932+275397250+279202251+285531938+293284045+300569647
3768+306272812+310639742+314192893+317693339+322534545+329429124+336938119
3758+342922809+347660604+353446179+362182660+374068633+386515628+395658141
3748+401407957+407028555+414095226+419577745+420857406+420920595+423891159
3738+431266193+440960899+448407765+450751309+449048329+445931634+443230207
3728+441674918+441424815+442190571+443284971+443839380+442960757+440494050
3718+437861304+437136176+439333808+443817880+448708045+452160749+453745027
3708+453998594+453646328+453559611+454213374+455210791+456081955+457067047
3698+458421224+460198408+462979063+467532907+473754439+480095671+483688140
3688+482978957+480300029+478559729+478193795+478263037+478627349+480568137
3678+485215626+490699236+492181695+489063377+486398647+486672840+486699114
3668+483210088+478203967+475113172+474572525+474801097+474537825+474767708
3658+476925086+480250695+482692595+484546572+487947539+493191250+497150370
3648+496624483+492629353+488253561+485426630+484422192+484478984+484877058
3638+485685814+487297489+489552600+491890932+494544835+498774559+504416938
3628+508076901+507261249+503751067+501097040+502185043+507175843+512180560
3618+513110607+511578034+512176409+516479527+522037372+525435687+525502464
3608+523488533+521068538+519490563+519916254+522752795+526664391+529699081
3598+531827345+534683109+538683450+542193570+544179043+545671924+547601853
3588+549104469+549239959+548783376+548790303+549165505+549373077+549547010
3578+550124229+550775465+550554163+549409336+548914684+550781768+554500333
3568+556753290+554862616+550867455+548686580+549254562+550652207+551057365
3558+550751562+551264750+552963579+554279656+554132870+554181923+556562694
3548+560524217+563130782+562657786+560132102+557767308+557005422+557619774
3538+558268888+558008331+556999368+556002201+555635487+555977112+556582103
3528+556885535+556175759+553951448+551493478+551703109+555715307+560764116
3518+563052646+561665049+558728653+556871056+556914555+557783784+558251351
3508+558260275+558315382+558556343+558851349+559056861+558885611+558006459
3498+556644699+555756185+556208899+558002839+560186086+561406115+561065613
3488+560083111+559952552+561049699+562310106+562129807+559852012+556981082
3478+555742393+556381521+557483972+558502359+560129294+562235216+563338666
3468+562551816+560778283+559502710+559070778+558610826+557571969+556643576
3458+556690507+557480415+558049209+557977189+557470430+556515263+555172788
3448+554305992+554549199+554921530+554183047+553004831+552875520+553504726
3438+553103812+551018609+548614748+547374623+547162682+546852261+546023223
3428+545039785+543941453+542604469+541654857+541767006+542203368+541497712
3418+539603855+538119025+538521000+541018475+544341618+546158712+545050769
3408+542303784+540433143+540376975+541438736+542909274+544046736+543719402
3398+541939379+540499920+540848036+542484020+543748110+543434256+541767505
3388+540119414+539581450+540126341+541345310+543295085+546120331+548996128
3378+550054269+548200104+544807999+542667565+543459719+546939321+551802214
3368+556211645+558192063+557082497+554374704+552200070+551392001+551706417
3358+553194367+556012623+559189230+561070793+561221011+560755753+560936739
3348+562219801+564049377+565070884+564274049+562197147+560469609+560287313
3338+561389327+562321839+562058724+561255585+561426523+563036295+564667910
3328+564435375+562329204+560297298+559673959+559748663+559331834+558378977
3318+557661151+557713450+558175961+558023996+556801720+555489263+555410066
3308+556657930+558265268+559468572+560392160+561630225+563129347+563636356
3298+561943767+558766223+556513204+556969662+559641631+562384061+563721419
3288+564335708+565785652+568340855+570765936+571831066+571525138+570794144
3278+570420128+570398410+570301864+569872242+569174324+568392592+567505700
3268+566486503+566047769+567269171+569762340+571382472+570950790+570035191
3258+570522416+571731712+571496243+569308066+566712547+565133854+564753598
3248+564990439+565228841+565344422+565756320+566530001+566707492+565515297
3238+563772844+563062132+563908708+565361834+565930627+564711971+562190906
3228+560223281+560583193+563118862+565787587+566681093+565478975+563055080
3218+560731414+559864556+560996027+563064379+564070908+562774428+559774937
3208+556868559+555320197+555017203+555239316+555608152+555918198+555854105
3198+555481711+555353898+555573265+555304158+553896653+552094724+551153787
3188+551068911+550824768+550148007+549505945+548663614+547246685+546257380
3178+546866428+548331849+548857455+547825214+545826573+543453728+541169067
3168+539492767+538648189+538483118+538907497+539826155+540712984+540860019
3158+540085651+538879850+537896974+537564336+537821023+538042012+537512911
3148+536101162+534249430+532257654+530050193+527855775+526474419+526387046
3138+527017375+527380095+527071671+526182283+524922063+523855808+523666023
3128+524135025+524101013+522931441+521324165+520258035+519922432+519993016
3118+520299724+520693711+520782051+520384195+519901650+519720259+519400507
3108+518010352+515470314+513061272+512185147+513042456+514756638+516208704
3098+516439772+515004963+512512262+510381657+509645515+510142663+510971389
3088+511466010+511610112+511579719+511219932+510324273+509234646+508506024
3078+508142212+507825394+507547612+507349932+506757298+505236927+503197563
3068+501899679+502113148+503122673+503369125+502095331+500030099+498469723
3058+498147788+498936354+500167898+501064712+501010541+499801870+498033954
3048+496893340+496962707+497490405+497363559+496613530+496223007+496471519
3038+496417629+495428512+494236566+493750745+493765130+493601183+493199582
3028+492896993+492816267+492775140+492289631+490933613+489012358+487280982
3018+485991585+484969454+484361093+484461135+485081260+485729469+486097306
3008+486083638+485697266+485027120+484100786+482863657+481463173+480407809
2998+480186008+480635975+480923368+480350830+479072323+477819935+477058922
2988+476631079+476151592+475532653+475028078+474888220+475118165+475516208
2978+475753892+475428305+474338492+472898066+472092275+472616665+473940542
2968+474715191+474386078+473663354+473093717+472281124+470912062+469410195
2958+468202460+467346024+466979404+467215309+467650766+467672921+467110431
2948+466234742+465371285+464640603+463921716+463090899+462266042+461738095
2938+461723710+462144907+462523135+462285545+461370851+460315081+459719420
2928+459823581+460330371+460402079+459345623+457656124+456745080+457239233
2918+458105186+457879984+456393843+454693485+453582203+453015468+452710726
2908+452591588+452561257+452342234+451771193+450978477+450109559+449206192
2898+448559356+448685952+449534556+450190441+449940338+449178639+448658087
2888+448412664+447965599+447072061+445889321+444891779+444671507+445269695
2878+445846571+445611508+444827498+444281265+444136009+443963916+443623352
2868+443453693+443665009+444009131+444066485+443531205+442221120+440197764
2858+438075866+436931725+437492718+439264191+440701029+440534990+438871952
2848+436845195+435448393+434975241+435291747+436096103+436807532+436688331
2838+435501066+433819274+432380003+431438098+430992780+431158788+431822723
2828+432299995+431978589+431156946+430628469+430521157+430185273+429275696
2818+428296814+427833366+427758601+427513272+426820160+425811103+424740293
2808+423899741+423585013+423832339+424336540+424761294+424892602+424528384
2798+423654349+422723741+422279546+422164339+421543746+420013701+418378966
2788+417848116+418532834+419259959+419052918+418252463+417741990+417663761
2778+417478469+416872948+416055861+415312697+414684241+414072042+413468174
2768+413035120+412869799+412742797+412317387+411585083+410823290+410252530
2758+409962672+409938146+409985296+409882758+409643670+409366419+408914174
2748+408104139+407139330+406459480+406163319+405896802+405350070+404618046
2738+404032683+403823551+403918381+403949586+403575071+402861769+402161044
2728+401665362+401377969+401358716+401628291+401937714+401895931+401305637
2718+400352749+399472879+398856030+398168473+397113733+396060803+395591177
2708+395636298+395607840+395254637+394912700+394923372+395130569+395047596
2698+394418328+393483258+392686765+392261418+392107050+391914301+391425453
2688+390740391+390262215+390157056+390107317+389841892+389515869+389243766
2678+388786622+388030945+387223063+386529889+385929485+385557810+385593414
2668+385861272+385992643+385852910+385577624+385384719+385462106+385833719
2658+386305560+386623346+386594981+386108692+385239868+384299992+383578359
2648+383043328+382448822+381735303+381131279+380799296+380612943+380415887
2638+380261550+380214775+380150275+379938398+379638554+379383490+379237453
2628+379212458+379250216+379154606+378703016+377896975+377034860+376484134
2618+376356476+376431960+376449684+376390583+376337098+376209036+375885633
2608+375440908+375053755+374846277+374867496+374985542+374892210+374561319
2598+374465802+374924257+375521291+375597273+375077003+374456846+374158657
2588+374199660+374375278+374473884+374360425+374101522+373951460+373997518
2578+373977360+373676300+373240468+372883833+372598906+372321280+372078292
2568+371866882+371606450+371284483+371041775+371037999+371228377+371388924
2558+371415261+371393230+371337156+371168496+370955370+370848433+370825310
2548+370750669+370582821+370362580+370136380+369974772+369945222+370026759
2538+370135912+370255487+370455632+370721805+370867530+370767020+370570058
2528+370504092+370586191+370715471+370906223+371193272+371389392+371189434
2518+370590497+370026509+369912051+370192392+370533549+370775134+370950346
2508+371054631+371093418+371195582+371414262+371553839+371402529+371006327
2498+370578546+370270621+370119030+370113975+370260230+370571150+370964638
2488+371209686+371128336+370821784+370515419+370241382+369892486+369545212
2478+369502213+369949746+370650285+371070920+370908376+370418623+370060927
2468+369959201+369963726+370032063+370212425+370448892+370685171+370917145
2458+371001553+370764805+370358493+370139500+370232115+370488272+370716750
2448+370754570+370528525+370152075+369813071+369636797+369722204+370056403
2438+370355996+370327694+370105269+370112227+370513610+371056504+371416165
2428+371522011+371533151+371594842+371689017+371724527+371695320+371658686
2418+371619774+371578210+371612285+371751269+371867069+371873684+371900895
2408+372092739+372377729+372590044+372697574+372795275+372967554+373227081
2398+373534538+373844647+374154725+374537042+375110142+375907227+376761603
2388+377409437+377718330+377789132+377908770+378388881+379265974+380170215
2378+380772054+381412119+382928746+385722818+389313508+392923420+396140156
2368+398878435+401155326+403065378+404506522+404975742+404241440+403085786
2358+402632604+402882832+402699538+401418878+399659918+398268763+397428055
2348+397142472+397784565+399673616+402232876+404354463+405640302+406369143
2338+406796737+407127878+407547265+407950332+408033742+407734897+407321002
2328+406955630+406380876+405243445+403630802+401995754+400637988+399595824
2318+398866109+398309017+397552747+396365951+394938256+393623272+392626167
2308+391966911+391530050+391159186+390791816+390475123+390308679+390397081
2298+390714523+391052716+391278667+391502715+391806115+392027791+392014186
2288+391898168+391973901+392338088+392725584+392756757+392347855+391792354
2278+391442428+391408353+391548211+391654680+391619575+391450759+391238913
2268+391153538+391316737+391616080+391836633+392005074+392356904+392980867
2258+393722814+394382537+394871479+395261440+395683199+396080680+396224408
2248+396127050+396186369+396683362+397372230+397794363+397784190+397461256
2238+396966510+396412008+395882938+395349343+394744009+394153029+393741536
2228+393537678+393441974+393365274+393293348+393312850+393551439+394002904
2218+394504796+394954295+395451038+396175947+397173115+398302776+399440769
2208+400660518+402104813+403757585+405484811+407229885+409062925+411088059
2198+413314586+415579214+417658706+419487689+421206146+423000992+424897844
2188+426680895+428132117+429342941+430546963+431707018+432582769+433132559
2178+433573009+434100083+434702171+435215671+435522004+435627881+435511988
2168+435098748+434482804+433912919+433433026+432744532+431504626+429708470
2158+427747554+426007941+424451465+422761186+420771750+418571434+416351554
2148+414211712+412030556+409828244+408317795+408454658+410303331+412959823
2138+415655259+418376313+421385415+424643685+427837860+430797035+433714552
2128+436799450+439919733+442917071+445982248+449334879+452850959+456351499
2118+459986093+464040730+468508606+473081641+477578943+482218194+487345357
2108+493052485+499315082+506487037+515371365+526533832+539543568+553021994
2098+565437036+575854436+584184948+590945443+596633692+601253003+604470925
2088+605944708+605369986+602483579+597270261+590341638+582784433+575051360
2078+566531562+557039497+547870960+540424031+534662577+529631242+524813346
2068+520522399+517167615+514400253+511333048+507624593+503675864+499824150
2058+496171364+492931692+490214757+487777694+485333079+482792948+480279434
2048+478136347+476672518+475913159+475840859+476520053+477831106+479679467
2038+482555202+487300579+494342849+503505582+514400690+526676810+539862664
2028+553228629+566095761+578106832+588899558+598051682+605725591+612452572
2018+618003584+621615368+623369242+624132564+624295576+623536997+621677277
2008+619096299+616134191+612495072+607616078+601362156+594026128+585972274
1998+577607873+569418655+561782191+554821426+548425087+542413998+536757702
1988+531590816+527078785+523323961+520286182+517792420+515701227+513994128
1978+512756718+512198689+512493134+513455602+514717352+516219500+518000554
1968+519612167+520470475+520746852+521241442+522424900+524062881+525717899
1958+527336534+529204928+531466373+533920661+536282833+538504149+540834369
1948+543566688+546736992+550162486+553593658+556599265+558704876+560027505
1938+561352943+563415741+566364993+569818508+573229585+576243118+578771610
1928+580918909+583062214+585612050+588322276+590495600+592214338+594276137
1918+596658343+598402731+599314149+600276805+601778610+603345320+604373380
1908+604876395+605336160+606136241+607217598+608193734+608810894+609312848
1898+610249354+611838969+613632597+615042100+616003320+616686072+616970906
1888+616853265+616825680+617163999+617451391+617271342+616831048+616599823
1878+616771010+617159443+617347044+617168430+617175045+618071173+619420388
1868+619537218+617579017+614803823+612793511+611758025+610914570+609716009
1858+608240977+606692490+605050827+603255576+601520986+600286603+599831955
1848+600125026+600891157+601270540+599875641+596559800+593020098+590572488
1838+589018883+587572560+586143898+585566554+586463243+587970041+588144349
1828+586354839+583824974+581304658+578442841+575312478+572690810+570898117
1818+569569621+568499248+568064758+568651151+569965917+571142073+571508101
1808+571088714+570372323+570003550+570552747+572028465+573673374+574678654
1798+575039814+575433426+576574446+578649663+580673955+581011524+579692889
1788+578548499+578849122+580326213+582180565+584205481+586373250+588288076
1778+589952144+592227943+595866750+600378781+603836602+604604729+603305191
1768+601521049+600281236+600443374+602574322+605837490+608196729+608876299
1758+608950690+609270847+610124911+612214046+616142117+621047697+624801212
1748+626322551+626473705+626556022+627430057+629397681+631884671+633740022
1738+635001117+637452846+642145987+646702577+647523128+645378263+642995745
1728+641512662+641234007+642194541+643898613+646014957+649257905+654525269
1718+660947945+665310631+665552091+663366535+661365522+661013037+662652329
1708+665869190+669739096+673227810+676433500+680876568+687198766+692859181
1698+695174422+694925910+693281938+691125964+690343233+692025212+695357841
1688+699410418+704991886+712452419+717828874+717308510+714214157+712888657
1678+714735645+719405195+725076906+729399276+732108130+734468867+736373770
1668+736655234+736123761+736925152+739442535+741670779+741956860+741506956
1658+742755069+747407082+756094885+766194187+769788559+765798016+761654509
1648+759815697+758069561+754539970+750636800+748213029+747608101+748909886
1638+752413453+756746245+757519615+752825663+746950562+743703870+743633098
1628+745541871+747803441+749062725+748304583+745868144+744271727+745724978
1618+749613171+752540080+751781814+748952948+746797536+746003571+745786389
1608+745439520+745337545+746157159+747689295+749165013+750086541+750277949
1598+749973020+750069004+751382085+753643343+755969131+757975199+759658364
1588+760775107+761263206+761913256+763689473+766457302+769180198+771419113
1578+773597117+775440423+775571107+774201921+773466184+774289543+774936036
1568+772943510+768705517+764503845+761916501+761990269+765994916+773577708
1558+778688614+776617266+771560219+767599009+765714014+765236150+765054665
1548+765146219+766802361+770954979+777211585+784680419+791335505+792188258
1538+786446588+780976769+780238099+783045683+785244220+785486678+786742717
1528+791167937+797774906+804483102+810656080+816287287+820497134+822924274
1518+824245219+824772948+825424495+828350032+834570129+842804781+851772674
1508+861342313+868524316+868101809+863239790+860560830+861779674+865424097
1498+869946800+874779050+879309865+883165792+887296880+892683195+898170425
1488+901173599+901646844+902304134+904864392+908718134+912634161+916363398
1478+920154482+924158256+929275589+936648875+944310116+947711520+946765090
1468+945886687+947982623+951993075+954095876+952509819+949553141+948118050
1458+948928117+949968221+949123144+946709297+943510222+940269833+938256089
1448+937917147+937763621+936637829+935814595+937068263+940418304+944683258
1438+948710497+951173273+951391516+951048018+952028398+954091196+955421252
1428+954480377+951429586+947793338+945785772+947455706+953009526+959494236
1418+962112597+959725898+955789027+953050903+951644896+950450641+948794000
1408+947275407+947174055+949033650+952107907+955138789+957326654+958478284
1398+958781778+958349347+957146106+955807375+955765186+957800337+960993732
1388+963017462+962016238+959146058+957331397+957521682+958593678+960246762
1378+963675063+969459547+976266224+981645112+983851700+983313299+982517837
1368+983691309+986410772+988886217+991326151+995630734+1001664978+1006649880
1358+1009079454+1010189769+1010925256+1010332497+1008139827+1006609501
1350+1008072176+1011842291+1014865123+1015172611+1013812536+1013840932
1341+1018025441+1026292172+1034826449+1039665626+1041452952+1043461828
1332+1046268414+1047498304+1046073636+1044873515+1047700758+1054573713
1324+1061217503+1063417038+1061320727+1058165214+1056267612+1056394926
1315+1059438228+1065119799+1069407533+1067802379+1062086483+1058618676
1307+1059971449+1062922386+1064147970+1064010795+1064049613+1064300871
1298+1064640874+1066381580+1070246806+1073741823+1073446505+1069702601
1290+1065205299+1059958218+1051818240+1041575585+1033138229+1028782969
1281+1027303319+1026206734+1024062431+1021156366+1018536133+1016217646
1273+1013142016+1008837682+1003455673+997158876+990669298+984945289+980361239
1263+977246666+975937704+975471573+973932634+970612924+966368752+961852914
1253+957129255+952669586+948762920+944225802+937245940+927606591+917234126
1243+908108151+900026275+891478081+882513870+874764134+868750798+863282290
1233+857559529+852141261+847824133+844860527+842990322+841387727+839132398
1223+836305343+833962642+832931586+833278704+834704370+836765046+838985301
1213+841210923+843494149+845663104+847628731+849890176+852977476+856621962
1203+860199733+863637771+867253923+871217318+875559285+880078991+884218753
1193+887599750+890460693+893126672+895464755+897513885+900125318+904161294
1183+909084162+912898962+914440147+915168956+917544422+922594978+929825036
1173+938638655+948765916+959302392+968796204+976377623+981606107+984493574
1163+986518365+989505437+993344076+996543213+998473330+999251817+998743248
1153+997603851+997723988+1000046655+1003008701+1004687747+1005299291+1006479628
1143+1008452308+1009002316+1006465586+1002795388+1001888776+1005461866
1134+1011581360+1016291476+1017182299+1015903231+1015997281+1019235173
1125+1024958371+1031222903+1035064913+1033538331+1027188674+1020237022
1117+1016168094+1015863164+1018866712+1023441214+1026480709+1026191257
1108+1023528461+1019674906+1015133605+1011712418+1012516992+1018742144
1100+1027689380+1035166702+1038505884+1036903663+1030970647+1023858791
1091+1019690258+1019627725+1021777707+1024658809+1028925323+1033860610
1083+1035124451+1030088686+1022751472+1019081897+1019913058+1019745116
1074+1012938688+1001867681+994398348+994342617+997762556+997943667+993654872
1064+988994933+985952754+983314797+981648170+982962375+985665736+985526814
1054+982253161+979778653+979730535+979691655+977897277+975672903+975161900
1044+977446748+982086093+986951482+989730108+990070923+988697493+985490991
1034+980450234+975109352+971478221+970081513+970248019+971588061+973762945
1024+975722456+976136351+974892481+973929327+975460838+979401516+983258255
1014+985007261+984725423+982583428+977999378+970889207+962496910+954718029
1004+948727472+944385506+940637359+936415155+931149975+924506310+917000342
994+910643758+907435447+907009319+906195010+901877070+894627728+888067878
984+884457966+882154832+878272881+873058564+869199455+867727044+867127108
974+865625178+862696771+858488734+853355860+848056855+843432052+839975853
964+837829240+836679546+835946305+835720135+836777216+839258339+842508527
954+846085798+849456809+851293999+851193333+851450458+854711566+860822885
944+867602726+873707054+879363974+885029568+890866413+896992022+903555492
934+910746170+918542651+926404036+933466527+938895217+942100408+943208726
924+943074734+942591253+942143532+941430886+939755210+936955115+933901953
914+931450223+929479042+927575761+926119764+925697693+925868569+926077825
904+927004908+929493583+932606471+934300370+934182543+933414041+932603912
894+932382611+934140666+937951035+941230429+941590029+940401204+940718989
884+943664747+948582809+954411353+959760659+963006104+963761063+963879889
874+965425755+967501908+967214328+963977060+960686244+960513497+964257837
864+970307932+976012906+979188328+979315143+977829938+976511989+976352098
854+977484755+978972830+979664195+979983041+981913845+986890321+993699370
844+997560102+993686638+983828484+974875943+971587312+974350087+981136668
834+989120000+996198280+1002087298+1006877921+1009255696+1007822291+1003216523
824+998126524+995480704+996147978+998640398+1001827116+1006752542+1014253829
814+1022763392+1030370649+1035632084+1035004251+1026556785+1016021246
805+1012100913+1017344624+1026383975+1032902573+1036751198+1040360548
797+1041380869+1035415401+1023902976+1012434550+1004488039+1000544553
788+1000032925+1001751664+1003539426+1003352387+1000875569+997306036+993514016
778+988833419+982627177+975794288+969359942+963144152+957471692+954638833
768+956865703+963706518+972497919+980587845+985699437+987229076+986789469
758+985546036+984506368+985058124+987864210+991962283+995065810+995221582
748+992325378+989162750+988983699+991353798+993341892+992954022+990876495
738+990195366+992862967+998228313+1005132722+1012811499+1018773910+1018972183
728+1013352396+1007303050+1003912443+1001006378+997681113+996991121+1000075863
718+1002859295+1001237041+996990684+994880206+996647873+1000527453+1004523300
708+1006089823+1001723392+991795652+980451419+973141665+973313352+978223800
698+981093419+979789949+979714871+985926605+996530420+1003856650+1001255139
688+990437637+979589429+974218092+973069146+972649447+972746867+974707502
678+977462038+979042291+977359251+970957170+960971078+949137311+937144651
668+929379812+931157838+939263117+946545911+950617086+952218932+951788186
658+950957089+952097921+953664319+951274188+943469782+935242930+933158914
648+938542608+945527274+948069122+948637479+951279492+950333750+939041254
638+924586130+919559103+928415159+943941467+951824446+944433872+927074993
628+910795224+902647257+902607128+905911674+908505633+911857921+916000803
618+914082170+900812376+882671016+871822746+874407842+886754235+898780783
608+905272420+911345357+918040010+915889029+898472484+875840124+864114199
##END=
