##TITLE=<SNM>
##JCAMP-DX=4.24
##DATA TYPE=INFRARED SPECTRUM
##DATE=29/4/2025
##SAMPLING PROCEDURE=Instrument type and / or accessory
##ORIGIN=Admin
##XUNITS=1/CM
##YUNITS=ABSORBANCE
##RESOLUTION=4
##FIRSTX=4497.3318
##LASTX=599.83466
##DELTAX=-1.4281778
##MAXY=2.2505281
##MINY=0.67369252
##XFACTOR=1
##YFACTOR=2.0959676e-09
##NPOINTS=2730
##FIRSTY=0.6996578
##XYDATA=(X++(Y..Y))
4497+333811358+333764521+334279017+334161626+332696796+330956916+330401470
4487+331013735+331887685+332721963+333731618+334734192+335074506+334175588
4477+331941318+329006427+326633864+325765488+326228256+327129847+327687654
4467+327462398+326395128+325432026+326362880+329641328+332978387+333700820
4457+332204026+331051899+331111362+330972131+329824240+328635655+328261016
4447+328152128+327548650+326921028+327344523+328817230+329912113+329298596
4437+327394176+326012982+326455104+328180935+329318702+328768232+327479574
4427+326920971+327040694+326756800+325869826+325323508+325723940+326775228
4417+328102134+329638627+331055965+331558119+330925777+330190632+330367771
4407+330871404+330218501+328345732+327100414+327962903+330140496+331523596
4397+331193888+330027826+329039756+328473873+328281861+328327361+328340414
4387+328431614+328981032+329594321+329393209+328539080+328156735+328581054
4377+328825136+327958552+326357249+325213283+325172390+326078332+327748937
4367+330002118+331962533+332331428+330650357+327710375+324663183+322386597
4357+321423154+322019864+324139757+326973780+328540644+327405380+325036486
4347+324434230+326399138+329000142+330546417+331057728+330793257+329583799
4337+327879779+326643703+326026945+325472778+325059549+325500362+326938005
4327+328659230+329704460+329360193+327536222+324959817+322832075+322151417
4317+323251873+325717314+328458630+330219838+330399963+329310426+327868461
4307+327158313+327699171+328911103+329856858+330462981+331086251+331157147
4297+329702526+327326579+326144961+327240754+329285145+330216596+329575580
4287+328580002+328417480+329009669+329398811+329236147+329529084+331232308
4277+333585562+334884969+334601046+333575978+332554351+331647840+330736552
4267+329712821+328713091+328202491+328388076+328816206+328974633+328835942
4257+328525942+328124770+328159379+329350268+331162408+331761336+330326252
4247+328327162+327750558+329006313+330824851+331630493+330939996+329620370
4237+328809467+328702853+328751141+328826472+329318332+330073127+330297786
4227+329702896+328828122+328194102+327983065+328384094+329415333+330595103
4217+331368070+331692971+331819064+331799869+331469877+330743548+329939157
4207+329555077+329418376+328645694+326944461+325294160+324906041+325994725
4197+327709693+329020276+329682023+330346898+331536450+332666453+332615180
4187+331194002+329430036+328438297+328499040+329222867+330189409+331125552
4177+331683900+331615222+331221388+331125979+331548849+332188670+332621294
4167+332577642+332081346+331364998+330438496+328991753+327211207+326143739
4157+326492670+327539208+328025835+327837066+327923346+328697081+329555645
4147+330122069+330812566+331894794+332924099+333206116+332399138+330790669
4137+329274794+328760355+329352457+330321190+330892647+330951940+330983790
4127+331399408+331892064+331603108+330212017+328637105+328171437+328982425
4117+330024556+330404456+330247593+330175162+330319882+329970467+328330518
4107+325861522+324283027+324836796+327169318+330088967+332605852+333912568
4097+333294131+330858465+328036158+326664832+327359851+329028381+330180508
4087+330402124+330114391+329589657+329047235+329011944+329777460+330860854
4077+331414964+331072658+330157076+329038931+327738472+326502225+326078189
4067+326772242+327896899+328683999+329123277+329596908+330120988+330154744
4057+329280936+328165181+328173882+329697635+331534687+332254162+331764890
4047+331060089+330659628+330077933+328958509+327981273+327996715+328750089
4037+329168892+328743008+328045856+327906084+328481238+329213738+329469564
4027+329164967+328908459+329380611+330356766+330731149+329916492+328659116
4017+327973396+328000241+328400475+329126064+330262068+331520951+332299719
4007+332158384+331230402+330243271+329957158+330382274+330732201+330477399
3997+330114959+330405337+331214506+331630181+331071862+330014119+329630693
3987+330556854+332019096+332698815+332340727+331711342+331313583+331108603
3977+331117391+331509036+332323493+333376459+334111348+333789261+332240341
3967+330116381+328284164+327377938+327749335+329215131+330873565+331788039
3957+331924057+331853047+331730026+331336305+330979325+331306246+332123462
3947+332491845+332244465+332300203+333226791+334333560+334513230+333686971
3937+333015384+333612407+335274595+336591690+336309502+334653144+333143127
3927+333112784+334442420+335569750+335227843+334071478+333572253+334001066
3917+334371183+333852820+332510443+330900666+329659841+329324133+330205391
3907+332453141+336039030+340262579+343533748+344652546+343855976+342042215
3897+339862773+337812609+336623085+336895547+338089564+338744202+338729812
3887+339276187+340271537+340116551+338999743+338932545+339726101+338970708
3878+336635740+335334456+336314621+338672083+341614084+344724153+346463321
3868+345853274+344175730+342730381+341322427+339776749+338889234+339180380
3858+340847658+344886504+352107195+358659968+357568896+350553270+343890243
3848+340137709+338957627+339351547+340658689+342558588+344907463+347429722
3838+349243398+349290178+347451278+344461416+341431940+339786247+340344423
3828+342248417+343805215+344902059+347172303+350626071+352061410+350177607
3818+347980846+347109456+345827851+343151174+340822235+340691023+343074193
3808+346505495+348774118+349849918+351723228+354424930+355155269+353140851
3798+350836027+349487707+348187077+346401355+345011630+345059263+346763283
3788+349442405+351815366+352941502+353438111+354858833+357599836+360371040
3778+362071249+363293703+365354958+369107834+374621377+380726312+385382201
3768+387692599+388411620+388404510+388510867+389868088+392736038+395784083
3758+397774386+399434839+402413695+407515687+414006181+419198861+421157001
3748+422211928+425609872+431528483+436008796+436713769+437181741+440818818
3738+447604098+454860080+459723678+461566389+461565138+461193968+461201845
3728+461789085+463771596+468070733+473208442+475490061+473328961+469397411
3718+467014326+467153814+469468961+473454116+477530614+478717720+475891404
3708+471301178+467654261+466411986+467832140+470911979+473675305+474858288
3698+475046290+475787890+478088335+481593063+485139821+487973816+489970488
3688+490634112+489301177+486363157+482975764+480249037+479256104+481442513
3678+487712586+495342269+498372314+496527726+495333681+496864031+497472543
3668+493709145+487312410+482000860+479826679+480333497+481634923+482638947
3658+483561525+484568791+485771765+488366826+493834385+501356744+505830005
3648+502628481+494788188+488158263+485094378+484665877+484848675+484136025
3638+482208740+480174587+479919443+482323857+486622169+491503853+495016031
3628+494495051+490067973+485165643+482908992+484537964+489094776+493534708
3618+495450504+496102183+497609556+499199000+498962625+497545457+496988134
3608+497388822+497709600+498288422+499999978+502356843+504013287+504547575
3598+504641477+504774679+504893948+505361351+507258832+511160438+515880595
3588+518907000+518737283+516219801+513010883+510320898+508847309+508289815
3578+507592578+506662777+506771864+508654331+511530356+514475087+517373692
3568+519911251+520989327+520317627+518845972+517030448+514487088+511292048
3558+508807895+508541035+510593104+513694812+516247272+517404632+517535503
3548+517537209+517788542+517904057+517401504+516198814+514397168+512162414
3538+510044312+508975279+509653236+511892995+514354909+515052772+513026126
3528+509608816+507180799+506807525+507746995+508832465+509455878+509283488
3518+507898227+505177870+501999324+500161277+500817905+502911949+504156897
3508+503971938+503772419+504383490+505068726+505063550+504951847+505687816
3498+506968085+507526773+507008353+506697186+507779983+509512526+509876927
3488+508075281+505524925+504085064+503913982+503782315+503271118+502950397
3478+502636102+501320628+498831072+496122659+494040161+492958502+493194308
3468+494790008+497134475+499282436+500668550+501480619+502102553+502275113
3458+501452807+499691428+497488240+495311784+493606883+492572431+491864216
3448+490984067+489931131+489139252+488794928+488458452+487501806+486154936
3438+485535163+486174842+487356659+488295561+489048308+489723307+489710738
3428+488265360+485562122+482826693+481245781+480988419+481501664+482327952
3418+483153841+483621529+483784136+484141428+484616680+484269796+482714250
3408+481131290+481067248+482593958+484292433+484967204+484705918+483968128
3398+482653792+480693292+478772150+477669617+477337123+477207162+477271545
3388+478373623+480815233+483165728+483535419+481892456+480107417+479945776
3378+481811635+484990580+488357100+490924689+492299542+492968910+493832338
3368+495041682+495659237+495022913+493922883+493476638+493521513+493130038
3358+492316775+492190454+493516053+495958743+498530030+500103776+499928940
3348+498491184+497282863+496985745+496633629+495177217+493160979+492095188
3338+492663659+494016785+494742232+494534295+494534011+495649284+497155291
3328+497693220+497108198+496344246+496083983+496402316+497160069+497984309
3318+498340065+498080428+497489605+496629078+495227040+493457073+492161675
3308+491875421+492076021+491798184+490946757+490351611+490690590+491943046
3298+493553875+494860249+495571250+495760134+495421497+494576326+493800146
3288+493991532+495435432+497525721+499411942+500577151+501024932+501000874
3278+500454982+499239836+497907470+497725354+499378783+502083500+504348170
3268+505147157+504149447+501505815+498050739+495266341+494167221+494396770
3258+494874127+494960805+494653620+494075879+493406909+493021122+493162571
3248+493636458+494023041+493999267+493404520+492320017+491242624+490838978
3238+491223115+491902437+492556676+493105241+493157225+492429332+491475586
3228+491006192+490856666+490505460+490180757+490553121+491469614+491676527
3218+490141456+487467453+485495635+485510820+487096909+488799535+489723421
3208+490015477+489903205+489084879+487260085+484816200+482831073+482288992
3198+482964616+483437536+482838182+481828527+481171615+480583181+479711620
3188+478891304+478319420+477588399+476391823+475035000+474098743+473906078
3178+474210845+474247217+473307263+471478601+469620591+468405360+467620648
3168+466894518+466642616+467296514+467996993+467292419+464909192+462007800
3158+460015876+459542075+459946574+459883982+458825073+457718844+457679259
3148+458680723+459831258+460412185+460404422+460243066+460268631+460349480
3138+460057367+459279196+458484133+458239540+458415911+458137875+456838126
3128+455027152+453633559+452944171+452564839+452112622+451574608+451148439
3118+451031390+451204860+451263442+450787650+449976718+449392805+449149606
3108+448916586+448500030+448083786+448027167+448440737+448830420+448449439
3098+447281045+446207576+445845620+445734172+445111897+444014000+443061762
3088+442484134+441998274+441584874+441615758+442034845+442127638+441492452
3078+440742633+440774597+441649968+442601695+442964590+442663092+441836463
3068+440630446+439474166+438918236+439019901+439272514+439200424+438794447
3058+438443610+438524430+438870091+438745192+437614365+435922829+434859484
3048+435223089+436570983+437581149+437359733+436195917+434902283+433940859
3038+433395735+433173238+432968543+432562366+432178798+432045311+431926100
3028+431523193+430881893+430159688+429516624+429262618+429518985+429788973
3018+429351173+428044657+426489765+425584477+425722599+426422879+426861987
3008+426780968+426625356+426865314+427432875+427750525+427228976+425900022
2998+424512885+423788774+423714352+423812235+423887112+424105343+424452312
2988+424518885+423850598+422384659+420616655+419290345+418771953+418859968
2978+419232076+419685289+419912080+419553878+418576728+417335306+416365919
2968+416106026+416476570+416901061+417032472+417013646+416833009+416174646
2958+415128762+414335462+414180391+414306200+414139611+413677668+413458925
2948+413810501+414517407+415213962+415646927+415635694+415220474+414713684
2938+414253476+413584222+412564642+411549926+411003494+410968885+411091111
2928+410987825+410488514+409695243+408957340+408593677+408519313+408353776
2918+407944329+407544153+407508833+407966909+408651207+409031306+408802155
2908+408193643+407686427+407532949+407543698+407241660+406367398+405296716
2898+404790865+405207052+406037890+406380991+405867974+405002897+404527617
2888+404682972+405160016+405470414+405272743+404572207+403716458+403108998
2878+402901801+402966781+403093926+403146053+403005627+402585829+402059815
2868+401800378+401891521+402001404+401854210+401494785+401093130+400807757
2858+400741810+400759697+400530603+399941201+399265122+398861789+398878340
2848+399170851+399356094+399069555+398349881+397683413+397462110+397497515
2838+397374408+397118867+397037193+397063612+396817142+396166713+395301665
2828+394443640+393799041+393573217+393835868+394478135+395273284+395890611
2818+395986873+395433445+394467955+393613542+393341449+393663308+394119563
2808+394264568+394034847+393597133+393095690+392641596+392317945+392096870
2798+391910262+391791932+391764404+391632112+391112468+390198706+389234211
2788+388622002+388526053+388774372+389015894+389042910+388940335+388849220
2778+388668697+388163273+387356237+386620268+386275232+386218129+386101193
2768+385834930+385682447+385752859+385707216+385288868+384841514+384817199
2758+385022065+384911897+384465197+384152523+384150845+384148201+383842836
2748+383195393+382285669+381303286+380576559+380288740+380277479+380360290
2738+380653199+381235889+381701842+381464870+380481890+379389481+378890996
2728+379103255+379524646+379634871+379391898+379014558+378560293+378036014
2718+377647213+377578564+377727834+377860382+377829698+377621818+377398098
2708+377375547+377475676+377351346+376931008+376575280+376523039+376559184
2698+376376585+375950928+375447523+375006794+374732370+374743972+375070694
2688+375469875+375540998+375180407+374763282+374652232+374693751+374488317
2678+374022080+373657820+373540685+373408421+373074988+372735242+372597461
2668+372507200+372188156+371719047+371534969+371905485+372526480+372780316
2658+372392084+371648976+370978101+370577441+370471482+370638468+370957597
2648+371160614+370969996+370338365+369545832+369018625+368989817+369322966
2638+369666750+369760623+369588290+369292765+369048172+368994225+369128394
2628+369228894+369030057+368497730+367861321+367426821+367361556+367567758
2618+367806721+367984229+368182497+368429280+368613927+368597348+368320961
2608+367903949+367609846+367584309+367717028+367851709+367940947+367929117
2598+367727436+367380467+367073567+366924012+366872654+366829855+366860625
2588+367126432+367628956+368073467+368085923+367642777+367194114+367209670
2578+367667432+368136485+368290646+368172629+367989632+367830409+367633506
2568+367367585+367147135+367113294+367264981+367467828+367572166+367501413
2558+367273114+366977987+366768600+366785833+366953133+366951256+366588902
2548+366055466+365656598+365516001+365610358+365841614+366053276+366152695
2538+366160942+366105971+366028080+366043949+366193901+366312145+366251146
2528+366154060+366305548+366729555+367135248+367339204+367491971+367677954
2518+367601201+367030284+366282030+365872668+365911343+366122977+366243610
2508+366170724+365939326+365744470+365842211+366290220+366868815+367299761
2498+367464700+367421332+367293504+367175999+367097341+367003212+366790611
2488+366456694+366210651+366304638+366745651+367305391+367769666+368034365
2478+368043721+367833310+367605353+367556895+367590338+367390534+366901347
2468+366536832+366752248+367548335+368481919+368995363+368744655+367872298
2458+366976821+366601642+366779349+367182995+367546458+367759429+367729142
2448+367436461+367080392+366911016+366927709+366959133+366972413+367057641
2438+367198579+367285798+367264640+367161126+367091141+367223945+367576119
2428+367931107+368092805+368080008+367969527+367735484+367383879+367139258
2418+367338009+368058793+368937406+369498597+369626283+369543302+369440584
2408+369384590+369473487+369750499+370016136+370040223+369947544+370114446
2398+370671741+371346597+371872611+372433830+373609846+375925619+379587920
2388+384726710+391735767+401181145+413406116+428320418+445488982+464310605
2378+484165771+504473637+524616166+543970913+562296325+579991557+597389955
2368+613424137+625564391+632047463+633484196+631184946+625757313+618101638
2358+609082485+597613533+581561435+560847307+538945561+521068555+510872818
2348+509502971+516228048+528115718+540086768+548228559+552572769+555211681
2338+557606823+559977396+562313331+565154492+568534434+570783862+570075250
2328+567117039+564392189+562966205+561601875+558623644+553574916+547110613
2318+540224180+533730699+527991389+522872761+517772219+511808591+504465845
2308+496152006+487817749+480138698+473258151+466965641+460862355+454654077
2298+448509386+442920540+438122092+433831658+429616242+425348813+421245357
2288+417609161+414577923+412036695+409801316+407881596+406436331+405452555
2278+404630561+403663535+402525199+401425767+400570558+399998333+399570885
2268+399049222+398246310+397236684+396382527+395994579+396004703+396117061
2258+396136797+395936367+395329448+394334155+393392495+392976763+393078087
2248+393287901+393236343+392816175+392175131+391639250+391495554+391768471
2238+392269288+392777159+393092988+393102174+392911527+392765527+392766182
2228+392813758+392775026+392561117+392172827+391801999+391686058+391775097
2218+391778623+391542305+391115085+390564529+390036355+389794065+389889388
2208+390003338+389821792+389344378+388766011+388340269+388310808+388679134
2198+389127341+389385869+389525072+389748394+390108103+390514365+390850471
2188+391056702+391194654+391389367+391691291+392058536+392440029+392810033
2178+393178700+393600176+394096472+394566093+394846859+394898389+394889601
2168+395047858+395411520+395808340+396100538+396331823+396569193+396759413
2158+396852433+396922930+397059773+397253093+397435038+397514379+397405861
2148+397179780+397128678+397503829+398194326+398794534+398999172+398855220
2138+398623537+398489226+398464485+398505890+398601669+398733819+398887923
2128+399151143+399688958+400536944+401448688+402047729+402200269+402176126
2118+402365806+402917271+403677413+404357303+404745251+404897763+405092305
2108+405498169+406035103+406596009+407143778+407561870+407738269+407833706
2098+408174903+408861362+409679318+410396518+410976080+411461370+411820653
2088+412052222+412283563+412550281+412643045+412447450+412262718+412481064
2078+413101377+413773560+414183803+414285838+414270880+414376725+414713400
2068+415259661+415917711+416513027+416893866+417100353+417322423+417703859
2058+418250547+418841711+419308119+419623352+419979961+420555655+421291966
2048+421999555+422574965+423055506+423545546+424126643+424827094+425636746
2038+426470996+427173238+427718362+428346893+429295663+430494912+431706731
2028+432813500+433827705+434780399+435714238+436707626+437878694+439323474
2018+440927080+442321725+443249394+443886798+444633944+445738211+447249166
2008+449097877+451065344+452887409+454531738+456219918+458095559+459985363
1998+461547961+462673813+463721517+465184043+467049077+468736603+469811750
1988+470432461+471016487+471854918+473042167+474511205+476146405+477872208
1978+479539913+480955602+482203223+483623121+485391439+487485880+489928742
1968+492596660+495018477+496857036+498350132+499938439+501746910+503605318
1958+505359474+507031558+508742488+510605901+512752725+515324068+518281483
1948+521361464+524374730+527316958+530027931+532105936+533457071+534571263
1938+535998043+537968382+540565319+543735619+547041964+549853834+551945716
1928+553744917+555988032+559081947+562661807+565952683+568656603+570968480
1918+572776383+573713521+574058016+574750703+576484668+579074609+581568090
1908+583095084+583698477+584114806+584888427+585986580+587096904+588090520
1898+589207840+590751499+592678442+594739498+596841049+598814460+600092510
1888+600298627+599960729+599907266+600320979+600864197+601353668+601862363
1878+602324704+602514214+602492942+602830044+604237258+606911717+609990674
1868+611908517+612009585+611154347+610303717+609604773+608779566+607636425
1858+606234158+604898095+603965677+603505497+603479960+603888270+604601318
1848+605520598+606745299+607787600+607195014+604532272+601399737+599146499
1838+597652038+596313415+595074836+594366394+594460922+595025923+595346303
1828+595215319+594906428+594038166+591838277+588674347+585838704+583900613
1818+582385221+580833542+579483374+578817930+578888456+579195186+579129551
1808+578600438+578127689+578323113+579393169+580934895+582057276+582081335
1798+581382505+581136746+582228586+584495019+586434645+586295471+584445196
1788+582932591+582932307+584020279+585317894+586547032+587696657+588658195
1778+589752480+591833727+595515735+600279687+604070783+605092268+604195227
1768+603051062+602091401+601649307+602600153+604924258+607221006+608682821
1758+609810777+610871221+611999347+614168979+618127573+622778684+625836484
1748+626556471+626163347+625816065+625969402+626905459+628601829+630358544
1738+631878884+634262197+638207084+641450412+640963216+637978558+635209971
1728+633704020+633724666+635160660+637377099+640188059+644629982+651575680
1718+659249953+663082398+661313511+657261357+653972642+652310569+652437685
1708+654557949+658244280+662071492+665400474+669380966+674315430+677501143
1698+677083620+674648949+671340157+667890144+666163914+667233004+670153506
1688+673684453+678435779+685028621+690015070+689406672+685750258+683155368
1678+683252796+685924752+689524177+692021241+693462069+694910518+695756656
1668+695025123+694230913+695304609+697783643+699533419+699593878+699254160
1658+700224798+703900835+711430019+720966568+724846504+721896085+720193345
1648+722742621+725833294+724333884+719369105+715383494+714608053+717865372
1638+725445574+735118169+740422041+738259291+734412002+733823568+736467655
1628+740120942+743532337+747509415+752848209+758623692+763824505+769138671
1618+775325934+781071728+784296628+785718630+787298917+789567512+792000534
1608+793721531+794135698+793626492+792953540+792190384+791332644+791531766
1598+794147756+798451244+801656749+802058689+801160738+801451201+803418128
1588+805702704+807020113+807250231+807444575+808974299+812061788+815498891
1578+818077116+819416080+819571577+819397823+820574862+824016571+828481301
1568+831441787+832315054+832635320+834046402+837746725+844419591+852669956
1558+857192813+855843725+852409239+849114951+846716509+846083996+847656264
1548+850977397+855165257+859672131+864922426+871902420+878614871+878295856
1538+870429571+862792665+859106789+857956936+856712954+854893733+853937030
1528+854649737+856783935+860082887+864746738+870391009+874656789+875582040
1518+874993378+875257281+876338314+877578144+879524027+883060491+888041025
1508+892912472+894929620+893302581+891112930+890484000+891269053+892884091
1498+895126637+897882313+901081506+904746338+908120138+909756561+909869402
1488+910782254+912660797+913238197+912595674+913382945+916823404+921700197
1478+926956975+932569852+937954089+941687001+942634263+940788083+937449659
1468+934076655+931438711+929889137+929708898+931009870+933616362+936592033
1458+937243770+932479135+924388078+918678115+917488677+919744986+922970683
1448+924430507+923903441+923902076+925343416+926303419+925731706+925209304
1438+926046739+927111677+926797895+925766002+925541912+926697395+928947676
1428+931365626+932544087+931772343+930323040+930509649+933221759+936643733
1418+937796998+936375451+934573805+933754342+934070740+934811772+934477287
1408+932468898+929814858+927432398+925495672+925122171+928362256+935146996
1398+941670621+943894795+941789604+938588706+937588663+939658023+942921029
1388+944511781+943429155+941620456+941501985+943379389+945385333+946207298
1378+947525673+951850034+958188813+962117662+961553911+959554167+959456114
1368+961459270+964552617+968596468+973197244+976517183+977090830+975964353
1358+975166958+975235322+975275476+974706380+974589216+976678482+981063017
1348+985363832+986756373+985281363+984185257+986450155+992105631+998418816
1338+1002741698+1005060628+1007400601+1011401909+1016431982+1020108872
1330+1020866681+1019822446+1019407824+1020846775+1023348616+1025211063
1321+1025667773+1025440499+1026249155+1029384021+1034464258+1040043521
1312+1044022761+1044439773+1041900166+1038796240+1036673986+1036357303
1304+1038861647+1045287559+1055458612+1066488030+1073606232+1073741823
1295+1069838796+1067485741+1067678322+1066468693+1061240238+1053848352
1287+1046686356+1040142370+1034368934+1030656554+1029652928+1030116350
1278+1030458286+1029853472+1028110578+1025599636+1022969711+1021014672
1270+1020093402+1020027767+1020770562+1021935259+1022071988+1018938828
1261+1011469363+1001961480+994899471+993218117+995988638+999558033+1000892788
1251+999729456+997100213+993577570+989539293+984731035+978333788+970691990
1241+963355728+956788196+949778286+941157376+930732829+919309889+908810266
1231+901169208+896554724+893414285+890218505+886692165+883402711+880271997
1221+876133221+870252859+863937456+859773370+859025684+860259883+860775403
1211+859256599+856786323+855452194+856527767+859617702+863032225+865432827
1201+867060605+868808163+870888386+873144923+875581471+877695137+878544801
1191+878480759+879555081+883310629+889218064+895426484+900112290+902509821
1181+903699885+905780620+909540832+913582465+915888768+915980679+915819266
1171+918571018+925901707+936944946+949982640+962854768+971691066+973541910
1161+970787883+969008588+970908345+974324859+975485575+973557039+971114689
1151+970082171+969988667+970944973+974887358+981987245+988538966+991357035
1141+992579973+996295311+1002357561+1005887484+1003137324+996807873+992689515
1131+992936128+995738499+998984159+1001175915+1002558900+1006532453+1015712279
1121+1026245401+1030429621+1026134721+1018990926+1014731631+1013579446
1113+1012315330+1010097980+1009237226+1010687325+1013223178+1014944118
1104+1014580114+1013762699+1015946606+1022379229+1031249880+1039197895
1095+1043481988+1043952008+1041560050+1036234338+1028125934+1019546600
1087+1013817982+1013370599+1018887413+1027829157+1034542177+1033375319
1078+1025324814+1018900721+1018442873+1019955649+1018907092+1015611609
1070+1012323065+1010349029+1009618292+1009395454+1009319468+1008945796
1061+1007194484+1003149610+998520168+996850644+999789061+1005765088+1010719403
1051+1011486540+1009826684+1009938956+1012036526+1011488474+1006221344
1043+999835017+995567531+994696198+998477511+1006291642+1013228638+1013598101
1033+1007207907+999664618+996457975+998505608+1002336744+1003125608+999090630
1023+993225965+989839482+990785777+994457662+996948697+995092279+990243640
1013+987193632+987974306+990134552+991699995+993466663+995643972+996192594
1003+992708284+984460535+973001137+961351434+952566609+948549205+948572410
993+948461446+943918285+935847532+929120692+926524380+926540021+925624382
983+921389713+914408013+907235439+901607775+897280513+893331417+889561194
973+886590244+885148619+885075421+884529870+881516206+876875674+873648385
963+872998582+872900586+871514984+869629389+868316076+867108040+866143999
953+866950551+869581614+871676965+871702104+871086711+871919995+874517785
943+878003800+881677391+885917975+891527951+897867412+903248748+907811929
933+913734664+921546917+928665232+932262951+932350881+931591138+932940794
923+937111477+941429298+941985370+938382816+934735957+934624310+937007964
913+938002717+936065593+933655663+934067612+938194900+943415847+945035548
903+940421691+931941775+924511839+921300248+922447371+926389699+931922949
893+939242319+948247594+956261187+959916692+959245333+956748724+954395101
883+953189851+953529057+955752834+960460536+966385488+969709977+968566665
873+965513927+963826999+964173257+964253679+961135876+956173030+955105590
863+960373175+966187561+965895449+962255073+962316953+966841744+970851583
853+971514069+971552972+973315545+975163659+975864707+977261911+980740533
843+985068989+987663993+986617483+983468057+981516998+982070397+984647655
833+989783858+998813418+1009650597+1015822504+1014123631+1010321501+1011144832
823+1013688192+1007885294+991351461+974092351+967210297+974188357+990142515
813+1005995889+1016897792+1025467799+1032434825+1033571881+1028830281
804+1021699681+1015806806+1013873038+1015409587+1016864805+1016149310
795+1015213253+1016916675+1020981684+1022846633+1019389510+1013017402
787+1008283309+1008124285+1011081245+1011890697+1007195280+999678495+993872299
777+991444737+992056718+993460179+990225553+979597449+967621849+961916208
767+963152796+966928195+969986506+972371184+973765431+972618592+971597335
757+975670079+983886092+990024669+989217377+983122367+978596553+978107651
747+979991255+984005303+989753600+994369164+994456525+989853018+984606136
737+983169232+984835572+984610686+979843833+973822648+969565058+967434387
727+968417538+974676691+986390549+999114973+1008695202+1014868359+1015780757
717+1007694534+993040551+980612904+977406489+984991866+1001095265+1020326364
707+1033599408+1031576914+1015346341+998708085+993847046+1000965020+1008158070
697+1002578010+985504770+968904506+961580870+964559442+972518036+978662756
687+977931223+970405906+963355273+962263490+966409603+973518705+982637446
677+991444851+997393350+1002386795+1008148969+1008541297+993293647+963990914
667+938907379+928664209+929976782+938922224+950658435+959508325+963313868
657+960601132+953832886+950404144+953666525+957078261+948176784+928849282
647+917235183+922901636+937668460+950681242+962372123+972481295+970436619
637+953580643+938259396+937760939+951275876+968804405+975090290+959415846
627+930427293+906659062+898450727+904358504+913879583+915641644+910495033
617+907575270+909406606+914776112+921837096+917945956+901554539+891368130
607+897360651+915763585+931370062+934435142+924044436+904282518
##END=
