##TITLE=<SNM>
##JCAMP-DX=4.24
##DATA TYPE=INFRARED SPECTRUM
##DATE=29/4/2025
##SAMPLING PROCEDURE=Instrument type and / or accessory
##ORIGIN=Admin
##XUNITS=1/CM
##YUNITS=ABSORBANCE
##RESOLUTION=4
##FIRSTX=4497.3318
##LASTX=599.83466
##DELTAX=-1.4281778
##MAXY=2.1969616
##MINY=0.49549368
##XFACTOR=1
##YFACTOR=2.04608e-09
##NPOINTS=2730
##FIRSTY=0.50467855
##XYDATA=(X++(Y..Y))
4497+246656315+245165791+244683118+245366913+246505737+247128036+246739572
4487+245761640+245291347+245906480+246826616+246952666+246393290+246030782
4477+246121934+246302751+246463729+246838298+247429252+247938435+248174223
4467+248134488+247791323+247159818+246574078+246409254+246496822+246374326
4457+246169039+246539033+247567071+248446191+248593828+248512901+249026658
4447+250126825+251087162+251329183+250784140+249660435+248277609+247112859
4437+246733833+247386371+248587127+249465868+249682954+249656910+249747304
4427+249702879+249150815+248193915+247317971+246942820+247069832+247356133
4417+247617119+248042055+248747465+249411947+249609601+249226439+248426527
4407+247588658+247332070+248050270+249190841+249543823+248601081+247156818
4397+246224475+245943709+246011935+246428597+247138144+247689597+247935143
4387+248365294+249260581+250186048+250525980+249880900+248076837+245585542
4377+243603721+243068364+243898718+245334985+246716646+247783661+248456008
4367+248670239+248536585+248303798+247849614+246623951+244584509+242732394
4357+242167308+243074044+244843135+246502794+247127395+246614687+245842391
4347+245524541+245484632+245427185+245596262+246272250+247179452+247583822
4337+246876285+245260730+243716910+243037543+243222875+243818855+244361204
4327+244529480+244377095+244356965+244724921+245135495+245121833+244799671
4317+244738525+245045422+245030798+244191253+243102928+242665626+242976426
4307+243648001+244565107+245612954+246378084+246694477+246824810+246879198
4297+246752390+246588731+246646819+246926536+247334459+247777282+247938231
4287+247569548+246982351+246636098+246461457+246132421+245666002+245257496
4277+244847505+244304151+243922795+244378581+245963926+247992328+249326796
4267+249516120+249026600+248480100+248042113+247448275+246502153+245562062
4257+245269207+245830885+246917884+248067690+248926709+249395225+249544668
4247+249125500+247731488+245888273+244996015+245681063+247149040+248323840
4237+248618181+247779437+246130003+244795505+244745779+245744132+246787143
4227+247372708+247852994+248536177+248984418+248649264+247792284+247161216
4217+247067997+247288082+247504614+247498875+247262360+247113849+247344364
4207+247813579+248263684+248623075+248718159+248335988+247784419+247727060
4197+248280755+248773916+248596799+248028654+247943096+248673443+249455964
4187+249300316+248159919+246831131+246015955+245919064+246393203+247082970
4177+247686276+248251362+248960530+249630576+249853546+249624021+249358345
4167+249355520+249637072+250230561+251099717+251783338+251781911+251382727
4157+251341622+251695974+251725250+251193520+250802959+251102572+251615747
4147+251518012+250803978+250261469+250411669+250915055+251098086+250765234
4137+250276792+250031187+250112638+250363486+250602682+250754077+250849685
4127+250919396+250937574+250923212+250945264+250973987+250894110+250719265
4117+250646291+250917764+251672814+252684189+253179506+252404618+250601750
4107+248941566+248294534+248556598+249251405+250141186+251011479+251501582
4097+251543297+251563281+251901348+252283287+252052510+250902267+249402829
4087+248648536+249203805+250438411+251159990+250954615+250516599+250615034
4077+251230342+251765539+251677912+250886157+249884920+249347538+249383107
4067+249471491+249297519+249196230+249556991+250205188+250642883+250669217
4057+250484730+250339511+250390957+250766749+251370404+251723328+251412732
4047+250620481+249965846+249978285+250746998+251844251+252633414+252747899
4037+252181473+251073499+249826454+249257144+249877258+250989165+251263697
4027+250432556+249639373+249826017+250627152+251280447+251769530+252453325
4017+253266870+253824732+253863768+253392775+252752706+252373681+252257972
4007+252151293+252210430+252776593+253620348+254247483+254723428+255334628
3997+255758078+255479352+254813967+254609700+254989453+255143266+254480037
3987+253482004+253136043+253800145+254965740+256072724+257057852+257850248
3977+258041319+257561558+256933666+256453643+255943411+255542624+255860533
3967+257138545+258885889+260330444+260912076+260526584+259506120+258349526
3957+257501868+257245806+257458754+257650262+257574230+257521445+257776896
3947+258178789+258400127+258293973+257886021+257405677+257332180+257997040
3937+259059103+259770543+259878270+259833175+259967820+260027101+259786070
3927+259504984+259553749+259997300+260671191+261438447+262153034+262554548
3917+262476127+262079186+261707356+261556282+261528870+261376194+261027902
3907+260786725+261085028+262024303+263245801+264358290+265210726+265603909
3897+265345661+264678820+264179425+264263818+264797268+265178449+265233623
3887+265560707+266607069+267797571+268225158+268093573+268087921+268028989
3878+267365702+266278470+265393058+265158377+265878470+267512727+269069116
3868+269548673+269347930+269405202+269743007+269545090+268385496+266640045
3858+265165602+265218620+268162847+273303794+276381033+275146688+271531193
3848+267920301+265877567+266094798+268109799+270596433+272625912+274249478
3838+275607222+276427177+276569919+276091324+275059673+273885455+273279528
3828+273356725+273401150+273176432+273630907+275209087+276394812+276193253
3818+276171929+277417664+278380798+277481170+275560001+274343047+274895345
3808+277100922+279449387+280810248+282081181+284148881+285774690+285737081
3798+285047169+284895832+285178434+285522531+286237234+287677682+289576886
3788+291557309+293752515+296465527+299649182+303278165+307642680+312569251
3778+317142666+320886454+324323812+328309593+333539274+340048569+346700433
3768+352236660+356630044+360313327+363362367+366058484+368963820+371943848
3758+374139666+375505946+377208690+380493197+385554005+390945189+394999632
3748+398246705+402661413+408899905+414498153+417222672+418681647+421262958
3738+425450501+430026421+434058870+438178916+442988730+447681116+451141080
3728+453406084+455521937+458110472+460420688+461271318+460625072+459640556
3718+459178216+458898091+458149275+457172391+456949218+457841359+458918308
3708+459167263+458422671+457169799+456414399+457031571+458511171+459437017
3698+459526712+459835385+461276503+463958549+467624936+471771404+475297816
3688+477066048+477065902+476138978+475373441+475709177+477292426+479558945
3678+481767726+482718159+481555215+480437249+482401008+486907742+489592234
3668+488057227+484770564+482482809+481953758+482842666+484352154+485309840
3658+484869028+483126636+480953802+479596990+480218037+482886566+485636895
3648+486228811+484882778+483037844+481439535+480155201+479038284+478210144
3638+478078908+478668231+479494944+480365674+481686625+483638062+485409614
3628+486149108+486486563+487431782+488754248+489342056+488855566+488516713
3618+489694893+492186829+494518951+495579441+496009767+497615300+500723884
3608+503251710+503562073+502936919+503835789+506977467+510516318+511994082
3598+511106631+509813558+510038975+512119987+515375567+519016144+521698947
3588+521419638+518120245+514693490+513510708+514729904+517484020+520715363
3578+523351382+524933378+525740776+525943762+525553230+525227486+525972019
3568+527705031+528735516+527702759+525103387+522248768+520256198+520134313
3558+522709040+527684872+533003578+536064911+536131214+534971794+534627639
3548+535127995+535229546+534876768+535290722+536643339+537426035+536504733
3538+534560929+533041740+532402486+531901197+530918837+529692824+528596153
3528+527603363+526799227+526511004+526680722+526821017+526598863+526049508
3518+525469624+525264890+525604617+526447673+527847016+529548100+530428618
3508+529532369+527683416+526589658+526673148+526949602+526897982+527160512
3498+528066898+528836077+528868995+528827978+529699582+531451412+532931158
3488+532912922+531540320+530177041+529711526+529662527+528911177+527179796
3478+525361081+524451840+524677839+525655539+527007282+528282585+528738662
3468+527974203+526447148+524867891+523287177+521256095+519038983+517908345
3458+518529246+519804898+520286378+520113747+520283057+520757895+520423935
3448+518452340+515433596+513088364+512384847+512377564+511672183+510308205
3438+508987748+507768494+506865428+506883548+507151904+505970811+503507831
3428+502191977+503451608+505950536+507641423+508157977+508128787+507283169
3418+504950347+502151252+501328996+503370623+506157774+507049887+505884990
3408+504480636+504257142+505056559+505526910+504393826+501934516+499776481
3398+499091259+499829617+501272890+502523548+502800061+501872525+500254698
3388+498824884+498109772+497818228+497326145+496723072+496614995+496924368
3378+496990962+496633581+496271656+496368604+497250462+499030957+501169125
3368+502399391+501807213+500096400+499164961+499924235+501111853+501088839
3358+500044546+499392475+499824082+500839710+501596712+501625668+501109581
3348+500789896+501413069+502917692+504168525+503935593+502453633+501482925
3338+502517314+505363660+508292563+509269738+507568479+504674009+503075175
3328+503669101+504952095+505154381+504386018+503968336+504508544+505373448
3318+505469755+504281845+502555767+501851318+502951135+504994160+506673046
3308+507687975+508362885+508795191+509197434+510107549+511632506+513169815
3298+514169654+514497088+514129220+513364469+512851004+512550254+511613513
3288+509949309+508677036+508626464+509535763+510888672+512488612+514081212
3278+515218259+515592128+515380927+515260091+515728636+516576644+517288842
3268+517729713+517943244+517490546+515986622+514315484+514095719+515700321
3258+517785877+518990042+519163897+518717608+517975754+517378682+517154372
3248+516791573+515748096+514584540+514599455+516304617+518644489+519805772
3238+518940636+516954999+515311303+514444128+513794328+512980171+512229462
3228+511738893+511319696+510817242+510338268+509835814+509073569+508043317
3218+506841191+505425825+504076121+503715128+505034128+507248794+508500676
3208+507812715+505801734+503439023+501408466+500504352+501161492+502604067
3198+503483536+503344172+502822142+502546270+502404984+501792764+500365630
3188+498526406+497142735+496775216+497042116+496806096+495358336+493358308
3178+492070071+491847800+492037794+492093900+492013673+491817854+491306194
3168+490409305+489405038+488562332+487769732+486846654+485934703+485125236
3158+484154266+482991963+482170231+481992881+482025566+481731546+481062840
3148+480282592+479700173+479522473+479520259+479109481+478167321+477291435
3138+476943551+476900262+476761656+476433989+475827595+474730983+473274863
3128+471905146+470737424+469504623+468241730+467407763+467234987+467550564
3118+468212540+469136260+469836135+469590909+468425110+467343908+467074998
3108+466983468+465808580+463459503+461484587+461493180+463395764+465328645
3098+465465299+463865533+462059169+461131546+460978054+460978637+460540476
3088+459454001+458425992+458611877+460007463+461009341+460337198+458680947
3078+457562049+457410742+457564467+457465421+457099505+456602761+456086149
3068+455655795+455222848+454640662+454127109+453921793+453635230+452742826
3058+451558762+450964574+451258333+451761602+451653700+451056891+450913012
3048+451555703+452000681+451222822+449519903+447958619+447104028+446767913
3038+446550158+446334558+446288589+446434303+446538913+446568335+446699309
3028+446704990+446096411+445038863+444292669+444080915+443757996+442779918
3018+441453548+440503814+440245771+440317929+440077771+439295484+438443194
3008+438085434+438161321+438251162+438239305+438182907+437856143+436997095
2998+435842540+434974345+434640706+434459103+433879772+432892342+432071165
2988+431813878+431818714+431554407+430959112+430371829+429989191+429721622
2978+429467715+429193620+428768276+428036851+427137019+426509331+426432599
2968+426634332+426555766+426004226+425336715+424995851+425111881+425491081
2958+425809280+425942410+426102660+426385669+426300082+425234494+423386589
2948+421741670+421050330+421117448+421167612+420790742+420357882+420424738
2938+420898702+421035211+420273256+418886934+417693810+417276536+417609010
2928+418188807+418367381+417837281+416995129+416493374+416367586+416080003
2918+415355949+414365403+413219325+411904346+410556098+409399679+408628957
2908+408453150+408935737+409733522+410324797+410512052+410405403+410049362
2898+409436676+408774204+408308398+407948074+407475159+407029628+406946109
2888+407168292+407240654+406917444+406436722+406111327+405973711+405909040
2878+405803673+405453050+404658528+403560371+402603763+402089190+401934067
2868+401828758+401485797+400878442+400331155+400189315+400392971+400597851
2858+400633449+400529072+400224681+399672879+399104151+398804188+398705375
2848+398465451+397921106+397244040+396628383+396098400+395742330+395812449
2838+396357347+396983404+397180127+396717699+395698546+394528348+393765782
2828+393595802+393547706+393093756+392370838+391920121+391860693+391724621
2818+391105876+390176563+389455276+389246115+389433195+389688151+389708426
2808+389341111+388647295+387871562+387307991+387094780+387039373+386750625
2798+386072860+385258965+384629586+384294287+384269671+384537881+384854450
2788+384791759+384140649+383098366+382025146+381214310+380828089+380781100
2778+380715876+380313079+379652851+379088901+378770090+378533225+378295253
2768+378218609+378381306+378631921+378868233+379074045+379028484+378433014
2758+377390439+376376880+375723293+375372991+375057938+374555368+373913201
2748+373486022+373572279+373985883+374135967+373588709+372501447+371454183
2738+370890000+370806365+370965246+371210501+371454562+371493539+371042676
2728+370009948+368691793+367638615+367243713+367415791+367700519+367744711
2718+367551513+367314881+367192734+367196492+367103680+366604926+365724699
2708+364869962+364307323+363923579+363615779+363512946+363656097+363787478
2698+363606836+363070940+362387173+361805250+361447869+361295163+361261808
2688+361277714+361316779+361312118+361103830+360639101+360121994+359729481
2678+359358613+358886805+358429912+358129045+357950967+357850086+357857368
2668+357909659+357826140+357545286+357248615+357137887+357154405+357060253
2658+356766436+356399209+356070814+355791446+355578235+355472897+355463575
2648+355463779+355353722+355069751+354664217+354225094+353799808+353457488
2638+353283167+353251618+353256716+353251094+353217914+353088309+352831227
2628+352537643+352336580+352287436+352338357+352367692+352321374+352277094
2618+352303312+352345669+352331977+352285834+352242982+352146325+351920733
2608+351585608+351209758+350828053+350479790+350241789+350144636+350141316
2598+350182769+350237448+350270978+350300022+350376433+350452174+350366878
2588+350021237+349503897+349038818+348811916+348802623+348805653+348684817
2578+348542162+348541346+348618980+348515448+348126868+347670703+347406746
2568+347386238+347577921+347973026+348427123+348673106+348619854+348436299
2558+348310977+348283623+348267542+348146998+347909724+347684220+347579115
2548+347547799+347480827+347363253+347277054+347272306+347276122+347169939
2538+346976887+346910847+347167813+347685007+348167156+348377920+348348148
2528+348264134+348250384+348318813+348423627+348505048+348564214+348683011
2518+348883579+349020874+348899542+348469246+347902820+347520532+347557325
2508+347932563+348363500+348694284+348909826+348918682+348671941+348428492
2498+348509039+348831405+349049218+349069639+349070076+349098362+349021718
2488+348826248+348663405+348597948+348552969+348538404+348704305+349054607
2478+349314224+349267498+349064192+349018660+349255292+349658467+350041134
2468+350283505+350369937+350348991+350284699+350236108+350220028+350201967
2458+350181720+350225475+350357381+350504115+350574000+350513000+350312490
2448+350047805+349878087+349952954+350287583+350699876+350929546+350887597
2438+350726415+350653936+350795805+351176695+351654941+351947184+351874764
2428+351527026+351150331+351007268+351278158+351890378+352505774+352876322
2418+353142347+353582636+354154975+354515823+354486138+354270975+354177406
2408+354334539+354728043+355298372+355935820+356507635+356954303+357314655
2398+357633729+357860427+357886354+357706323+357479304+357394795+357520816
2388+357756516+357841841+357429752+356215042+354016981+350808419+346763968
2378+342226792+337484068+332570081+327442010+322372929+317873246+314083838
2368+310641760+307345572+304451451+302190816+300695049+300398552+301735962
2358+304617324+308790214+314406611+321754038+330298930+338122943+342782294
2348+342873474+339094379+334270087+331400845+331063826+331879032+332839544
2338+333891295+335108190+336223942+336901969+337273100+338048105+339822861
2328+342280073+344422319+345651274+346342964+347339191+349175385+351840593
2318+354892925+357646430+359567512+360724805+361765340+363343316+365554602
2308+367902019+369788406+371007078+371728977+372191987+372567925+372948290
2298+373285396+373495897+373677413+374028327+374546162+374983421+375142477
2288+375158790+375418786+376102406+376900658+377361308+377380564+377174286
2278+376971941+376917699+377047974+377229461+377279887+377180083+377066181
2268+377047595+377101750+377145825+377157711+377158322+377147515+377172801
2258+377328594+377535658+377518850+377182997+376801728+376669036+376756080
2248+376875925+377042002+377444711+378103541+378775246+379237966+379443602
2238+379413015+379247928+379191501+379400983+379715629+379842466+379707705
2228+379497291+379389651+379358190+379267301+379045205+378662159+378068059
2218+377307066+376590382+376126002+375929775+375846839+375720351+375532980
2208+375390761+375380536+375466444+375514394+375431807+375309602+375310622
2198+375408706+375486399+375648455+376074877+376670696+377250056+377875939
2188+378654440+379426735+379962137+380267693+380520610+380830303+381194442
2178+381614775+382129668+382720623+383278426+383672075+383795503+383633185
2168+383371238+383310790+383596509+384141989+384782496+385354719+385719965
2158+385863086+385906666+385933496+385889333+385767623+385792735+386186180
2148+386755723+387045840+386965088+386897242+387121318+387501771+387808843
2138+388008973+388198442+388463157+388798719+389105586+389330653+389557731
2128+389842750+390093423+390250760+390431403+390767984+391259805+391825910
2118+392355835+392763380+393131219+393644684+394280879+394821291+395222601
2108+395653859+396173325+396698589+397245817+397897539+398595405+399200750
2098+399726014+400335058+401091419+401812066+402245479+402353206+402322094
2088+402333309+402450620+402709072+403118073+403512392+403597834+403295249
2078+402906523+402813449+403139484+403785380+404600120+405407693+406040014
2068+406466843+406806250+407144463+407395923+407412731+407251316+407238178
2058+407663988+408478786+409396154+410216749+410949281+411707798+412588869
2048+413588825+414585022+415446343+416177097+416880527+417572683+418172202
2038+418728636+419464605+420440964+421381318+422050023+422623848+423436636
2028+424524917+425691328+426867789+428127158+429443244+430730724+432060386
2018+433583595+435288728+437005863+438585500+439978201+441259360+442615152
2008+444159161+445772210+447295915+448816240+450502292+452227030+453669634
1998+454817138+456061941+457714755+459640819+461440074+462867908+464016840
1988+465101975+466199724+467300036+468479411+469822852+471281302+472814707
1978+474549321+476569711+478686001+480627563+482360749+484050821+485812527
1968+487639312+489543644+491650524+494049998+496581669+498941525+501059883
1958+503227123+505771554+508664567+511443329+513561221+514970294+516338701
1948+518472032+521508488+524825418+527682425+529866445+531772088+533847216
1938+536110822+538427563+540947116+543817349+546721607+549224613+551331435
1928+553345562+555546187+558128721+561011655+563796476+566332691+568896756
1918+571425689+573275982+574226473+574981494+576374254+578645143+581404678
1908+583927784+585676526+586809378+587922712+589218174+590379749+591340261
1898+592559982+594296897+596115438+597480698+598488810+599598066+600852861
1888+601766238+602078233+602273645+603068167+604545582+606051662+607004367
1878+607498606+607917512+608360597+608830424+609603622+610899842+612266733
1868+612721179+611834310+610332309+609279568+609019368+609013134+608593995
1858+607616238+606260183+604698812+603227748+602265604+601921391+601777133
1848+601362481+600803979+600606469+600605712+599845273+598074216+596174691
1838+594904631+594074044+593046297+591720364+590557449+589833948+589317919
1828+588681578+587846389+586799707+585552603+584265589+583058336+581929621
1818+580990025+580369939+579910308+579349942+578666525+577957415+577276853
1808+576771544+576631598+576799802+576980240+576944816+576722254+576536340
1798+576609167+577085811+578128415+579752825+581321770+581765088+580950814
1788+579896209+579587244+580373377+582061002+584201733+586277211+587782650
1778+588519609+588952382+590029418+592328739+595087400+596781784+597247474
1768+597444167+597767989+598276211+599427183+601399652+603378239+604624644
1758+605438685+606292985+607326674+608818888+611037690+613502884+615171050
1748+615750759+615996684+616565091+617412516+618260465+619188933+620527684
1738+622501260+625367357+629242789+632980722+634681282+634460992+633764758
1728+633564161+634274553+635697726+637103711+638172999+639675466+642671196
1718+646950852+650151899+650254149+648571476+647473815+647705582+648736417
1708+650301691+652674423+655450329+657567580+658811422+659783120+660782551
1698+661827427+663155399+664584690+665541356+666270334+667608269+669783375
1688+672316095+675036244+678184330+680970957+681949821+681526138+681150987
1678+681659384+683129108+685166598+687350327+689676682+692266498+694591397
1668+695671404+695603820+695680319+696932025+699082778+700732241+701164023
1658+701196067+702120981+704765331+708694481+711293620+711324266+711017864
1648+711855793+713230316+713590843+712864313+712229312+712243994+712881092
1638+714350176+716906317+719556027+720577132+720137776+719557309+719380541
1628+719392252+719571933+720432875+722196940+724251268+726125740+728299040
1618+730963724+732679898+731913982+729853245+728689980+729132016+730519416
1608+731959485+733221038+734522617+735908386+737326315+739076106+741668894
1598+745111729+748568255+751100043+752893530+755214700+758851257+763055987
1588+766290185+767892922+768754971+770361961+773404301+777264935+780907434
1578+784089137+787353398+790669746+793076036+794247283+794455396+793455906
1568+790821810+787177679+783879452+782031197+782115677+783923032+786052809
1558+786287490+785160406+784629054+784591067+783910272+781932850+779145350
1548+776922294+776207183+776549882+777192806+778836443+782681171+786895224
1538+788063324+786901167+785809390+785738892+786543028+787907123+790044941
1528+793342819+797374511+800979548+803783712+806516213+809473431+812266700
1518+815100111+818372995+821532792+823839046+825787686+828620165+833223526
1508+840114556+848654933+855432876+858344883+859306502+860375556+862075650
1498+864060121+866133443+868554649+871699821+876198835+882670493+890007112
1488+894609250+894354760+891870165+891219434+893626482+897545960+901577594
1478+905818331+910725588+916127608+921694861+927288331+932332796+936577961
1468+941144559+947027301+953367811+957401716+957791724+956940221+958349119
1458+963175975+967863525+967491462+962748854+957037810+952143021+948375549
1448+945778158+944541657+944469645+944936443+945938845+948037919+950794307
1438+952432876+951581256+949003208+946423471+944676709+944531054+946820470
1428+950208480+951873092+951654958+951994685+953692215+954934076+954618935
1418+953819984+953144433+951695800+949464820+947573627+946315278+945301805
1408+945050870+946129130+947472250+947329624+946086074+945905869+947556789
1398+949910527+951675816+952300154+951816286+950499442+948337620+945303553
1388+942642831+942939969+947299444+953704800+959547225+963986403+967676969
1378+971815805+977523877+984406284+989441311+989591511+986202743+983523960
1368+984029677+987191687+991058555+994504070+997977667+1001697831+1004565500
1358+1005713500+1005516574+1004596845+1003248889+1002595652+1004808920
1350+1010820073+1017958368+1021223153+1019218348+1016397288+1017139316
1341+1021051862+1024690574+1025554021+1023379556+1019402456+1016483633
1332+1017770530+1023864532+1031916379+1037680150+1039022280+1037659525
1324+1036673611+1036816121+1037100440+1037693667+1039627392+1042659361
1315+1045755652+1048501903+1050370374+1050537121+1049789266+1050393446
1307+1052925059+1055749614+1057780521+1058909994+1058514393+1056080544
1298+1052994624+1051735460+1053398032+1056830380+1059805485+1060569420
1290+1058550982+1053689344+1046110003+1037551274+1031438628+1030218500
1281+1032617740+1034480153+1033252683+1029966923+1026263306+1022568662
1273+1019245265+1016874106+1014769906+1011430661+1007062039+1003586577
1264+1001522578+999032564+995166163+991941345+990975823+990253021+986915291
1254+981584409+976809524+973034652+968792808+963541512+958326455+953951307
1244+949764580+944336458+937349120+929962628+922916504+916216342+910672045
1234+907449208+905964918+903742562+898897412+892247122+886149042+881833380
1224+878715707+875933217+873633663+872451871+872352534+872306623+871011219
1214+868007682+864413074+862596456+864084650+867356834+868913602+867599613
1204+866468917+869071318+875488093+882756721+888100537+890760269+891239767
1194+890702822+891246118+894729620+900672198+906552552+910632776+913040523
1184+914327886+915267541+916858334+919356504+922799688+927412430+932317065
1174+936230659+940105451+946240586+955050950+965237644+975381340+982962661
1164+985200283+982699316+979397243+979092415+982662378+988498627+994549981
1154+999412784+1002698427+1003986140+1002009883+997053628+992718215+992757250
1144+997587193+1004648815+1010452205+1012682252+1011986484+1011471795
1135+1013690189+1017288817+1018534115+1016845325+1015556214+1017984119
1127+1024012052+1030851228+1036901300+1042624870+1047060844+1047205334
1118+1043213436+1039515296+1040130429+1045002321+1049214567+1048412063
1110+1043810741+1039193921+1038314160+1043485054+1051939494+1056717468
1101+1054407718+1049217713+1047954704+1053393604+1063340607+1072252173
1093+1073741823+1064481383+1048330962+1032657359+1022075880+1018209594
1084+1021203810+1029450486+1038355527+1043580721+1046139367+1048877462
1075+1050314909+1047209646+1039738324+1030444091+1022039058+1018048907
1067+1021246807+1029406440+1035465950+1034226012+1027257610+1020582617
1058+1019503134+1025346724+1033817361+1037330460+1031850776+1020542416
1050+1009912696+1004271625+1004748677+1009684191+1014741008+1016221802
1041+1014528001+1012084481+1010225564+1009121960+1008147698+1006544087
1033+1004622597+1003631323+1003772667+1003385456+1000959298+997371856+995444190
1023+996862411+999840546+1000343699+995951771+988626687+983216335+982987714
1013+986802146+991604589+996837241+1002347455+1004713603+1000949743+992535854
1003+982480366+972490948+963559049+956030688+949442622+943521368+938341851
993+933726663+929883741+927985439+929010623+932220350+934870060+933824311
983+928330993+920733650+913532140+906785310+899835726+893994583+891169154
973+890930803+891063174+890071958+887683554+883924297+879174290+874460113
963+870938858+869408308+869838924+870657509+869607331+866434426+863588313
953+863758381+867604391+873287061+877750301+879897383+882259103+887513661
943+894343690+899614446+903498618+908599539+915269521+921039527+923846196
933+924341775+924435577+925393758+928811948+936810253+948722034+958918517
923+962169494+960721967+959975686+960289836+958770297+955411593+952785945
913+952690803+954881115+957560364+958800768+958603492+958691993+959256554
903+958758994+957714585+958798147+961718311+962105230+958803157+957120426
893+960778132+966638793+970371891+972751264+976159375+979034385+978687608
883+976762681+976055435+975127433+970830648+964596293+961883368+966098760
873+975373591+983835314+986431132+984204464+982163303+982299287+982399149
863+981311508+981762575+985444169+989023687+989052119+987171179+987118976
853+989398080+991305354+991090366+989873617+989416841+989711415+989838077
843+989985713+990800570+991893454+993482616+996757655+1000569407+1001788836
833+1000699099+1002543915+1011214042+1023799627+1032730187+1034537716
824+1033137440+1033578019+1037085642+1040164803+1037983697+1029998734
815+1020247726+1013614565+1011550915+1011568976+1012614434+1017382736
807+1026340912+1034160642+1035453482+1033078012+1032970810+1034456731
798+1034025590+1031655597+1031063885+1034490407+1038187498+1038350516
790+1035527941+1031872915+1027313426+1020618274+1013539756+1009229978
781+1007209442+1004401317+1000772509+998792873+997319886+993135489+987965877
771+986922166+990204896+991644790+987791789+982515440+980337246+980901808
761+982209680+985127804+991414421+999972218+1007691039+1012352953+1013247163
751+1009777411+1001739080+992071969+984730106+981842511+984485055+992733945
741+1004407493+1015004353+1020745402+1022440135+1022755218+1022393409
733+1021322665+1020065947+1018688627+1016595030+1014823041+1016141167
724+1019471322+1019610919+1016087333+1012325570+1010292449+1012072246
716+1019557318+1029448971+1031030559+1020013278+1006280043+999119725+998001555
706+998071819+997471135+996064567+992868648+989028348+986729435+984362704
696+980354259+977041757+975683022+973608244+970647122+972416198+977734903
686+974767722+960372743+947519093+947199408+958745885+974885295+989611553
676+998637196+997457851+983222045+960732513+941997868+941193208+961098342
666+981693942+986500580+975924403+960148259+951006324+951637829+955295710
656+955795542+955479469+957699145+960181643+956642442+946072033+937430571
646+939919652+953501056+969587739+977614184+974110873+967999451+968314824
636+972981051+978049986+983531185+984073607+974270919+960019091+950596390
626+945804376+937648530+923434573+907712729+896155881+894352838+902351142
616+912965947+920089385+923793876+927409750+932948221+934665210+925726203
606+915372879+910686727+909717068+905578756+893038149
##END=
