##TITLE=<SNM>
##JCAMP-DX=4.24
##DATA TYPE=INFRARED SPECTRUM
##DATE=29/4/2025
##SAMPLING PROCEDURE=Instrument type and / or accessory
##ORIGIN=Admin
##XUNITS=1/CM
##YUNITS=ABSORBANCE
##RESOLUTION=4
##FIRSTX=4497.3318
##LASTX=599.83466
##DELTAX=-1.4281778
##MAXY=2.1489112
##MINY=0.40404704
##XFACTOR=1
##YFACTOR=2.0013295e-09
##NPOINTS=2730
##FIRSTY=0.4169364
##XYDATA=(X++(Y..Y))
4497+208329707+208050763+207742976+207842241+208566090+209451927+209706448
4487+208909260+207339631+205955920+205854258+207153148+208699933+209350086
4477+209161369+208920160+209055149+209443796+209746878+209679480+209249376
4467+208671238+208054620+207541036+207545190+208239406+209033631+209213935
4457+208890348+208655632+208552644+208157504+207513502+207221156+207639124
4447+208566448+209557461+210031718+209446789+207971587+206632832+206313147
4437+206887056+207570699+207802675+207572679+207094893+206555919+206208789
4427+206256575+206550260+206814357+207096844+207522421+207828988+207609059
4417+206884837+206236993+206400454+207618321+209280365+210370509+210342439
4407+209420551+208230546+207357665+207068074+207241394+207516242+207563983
4397+207324412+206913235+206308411+205504298+204986693+205351603+206219004
4387+206323526+205120937+203551801+202733347+202605699+202412991+202004777
4377+201889310+202247817+202703698+202987854+203201498+203463421+203782362
4367+204161732+204470845+204462491+204155477+203836194+203585187+203270862
4357+203080909+203438165+204230410+204747345+204582231+204108466+203860139
4347+203853825+203760234+203473979+203271130+203476346+204079711+204651386
4337+204681824+204131696+203532516+203353747+203510507+203834035+204580400
4327+205849820+206950791+207135636+206661051+206309111+206185573+205779593
4317+204985725+204322810+204187226+204442998+204784708+205146312+205589714
4307+205956054+205928431+205507038+205130617+205159923+205492311+205801543
4297+205848748+205574034+205241720+205358870+206145412+207276701+208327324
4287+209196438+209944321+210436269+210339967+209475664+208063019+206525511
4277+205228452+204463131+204332937+204562485+204800418+205110305+205732432
4267+206509012+207044144+207257729+207336221+207350398+207309447+207331992
4257+207438569+207471702+207438316+207557416+207874510+208201880+208368603
4247+208251319+207852397+207622655+208154347+209249510+209950799+209735471
4237+208998086+208310452+207887942+207764926+207889863+208009961+207858085
4227+207491209+207208469+207128026+207107774+207169007+207676784+208841549
4217+210242727+211179626+211439076+211432122+211525788+211484644+210837738
4207+209736320+208951878+208873684+209056906+209002479+208832808+208896408
4197+209158748+209263344+208982599+208490785+208213048+208360115+208727393
4187+209075729+209431779+209831877+210069229+209935014+209562152+209392690
4177+209789705+210619313+211309493+211499878+211492581+211829362+212553524
4167+213202113+213458153+213433612+213326514+213194131+213000008+212548252
4157+211647703+210646757+210297914+210766066+211369773+211583001+211601108
4147+211748338+211981684+212120247+212121975+211998407+211714029+211256882
4137+210762343+210522073+210731131+211206028+211560708+211711065+211930533
4127+212336022+212617228+212387084+211657680+210945044+210893208+211667762
4117+212733395+213416815+213635865+213801724+214046760+213946825+213214323
4107+212325851+212072313+212690196+213760997+214754393+215242811+214931450
4097+214038406+213306500+213157513+213193595+212901756+212444073+212393368
4087+213006516+214038823+215024714+215511464+215271015+214524397+213766581
4077+213322970+213276316+213624131+214144104+214298750+213683860+212511664
4067+211459463+211131244+211678602+212777503+213916804+214717358+214989168
4057+214680666+213962341+213239102+212860760+212824023+212891674+212970122
4047+213174534+213538968+213928657+214264842+214592778+214886314+215022808
4037+214981484+214809178+214414872+213750126+213162680+213120300+213590938
4027+214127992+214453410+214547404+214447633+214379907+214708587+215409042
4017+215941866+215805775+214953370+213756112+212780124+212471666+212960695
4007+214140202+215670980+216942664+217526446+217615272+217581945+217454923
3997+217257822+217284403+217563450+217608124+217122937+216518501+216399266
3987+216863487+217512359+217944458+218093490+218136838+218179457+218159026
3977+218108307+218281105+218837309+219479777+219605921+218971285+218061325
3967+217529215+217501547+217787743+218352241+219086499+219550183+219402789
3957+218741022+217885548+217231152+217260949+218289459+220068339+221797647
3947+222737419+222856252+222666760+222533067+222428664+222175870+221678025
3937+221144337+221114987+221913143+223126260+223915899+223835978+223247549
3927+222919778+223298790+224104065+224779279+225252702+225745410+226140594
3917+226047926+225290750+224115233+222989350+222174932+221635868+221651489
3907+223188059+226994638+232266844+236793996+238991053+238834471+236646022
3897+232909387+229151235+227319163+228081521+229812064+230052186+228967343
3887+228940449+230702934+232318085+232700091+233175598+233881370+233035442
3878+230908791+230079169+231460587+233574788+235411834+237069217+237846898
3868+237370824+237133904+238014916+238354496+236353647+232970814+230452999
3858+230261989+233452278+240618459+248185141+248807537+242904879+236403979
3848+232545132+231884928+233692340+236606456+239518204+242318342+245015090
3838+246418755+245448872+243119060+241040939+239543385+238162622+236884207
3828+236094717+235956780+236874454+239806126+244279670+246824452+245564801
3818+243560496+243299244+243051632+240553563+236923937+234825952+235956899
3808+239736018+243370082+245391660+247515050+250672712+252428570+251213265
3798+249087894+247649547+246479541+245371095+245099374+245993833+247571994
3788+249596476+252325433+255619440+258962588+262533721+266976380+271884302
3778+275844573+278491436+281077690+285165729+291470183+298924034+304911989
3768+308037456+309554429+311093709+313337107+316816987+321875727+327554986
3758+332289246+336526317+342793364+353448181+368385278+382729852+390599943
3748+393563423+397156179+403216029+407968724+408391516+407214809+408418053
3738+414066934+423456142+432698642+437217694+436241452+433018805+430830266
3728+430599064+431404473+432210566+432847376+433224185+432726221+431080915
3718+428918317+427326858+427590284+430745594+435887308+439309707+438429991
3708+435015455+432439713+432792130+435979217+439736968+441547745+441311867
3698+440713656+441162002+443101112+446257345+450219463+454412961+457384721
3688+457630755+455759131+453941355+453612854+454442833+455467471+457594747
3678+463291608+471523021+475134897+471657459+467964784+468246348+469468176
3668+467415922+462814820+458541981+455933270+454793761+454882453+456690342
3658+460229846+463577997+464807032+465269436+468130196+474618230+481007296
3648+480872113+474032824+466097866+461198046+459657068+459814618+460677864
3638+462275905+464062588+464987812+465572622+468214719+474179205+480134191
3628+480537685+476185535+472158342+470865661+472303710+475910463+480529435
3618+484661671+487958566+490782664+492529141+492321706+491106817+490612696
3608+490936551+491107175+491430851+493316353+496858746+500016647+501048492
3598+500769311+500777173+501196392+501813903+503662147+507654970+512502076
3588+515517497+515835158+515108345+514577561+514084362+513486686+513075926
3578+512582310+511149652+508767526+506917198+507379661+510608384+515122045
3568+518105420+517543662+514241316+510587120+508426278+508650362+511195160
3558+514682812+516996021+517069405+515744797+514558738+514393266+515456086
3548+517398442+519229353+520048789+519626711+517822962+514777878+511930907
3538+510854031+511031653+510621667+509310700+508397687+508456240+508825781
3528+508999354+509174654+509390815+508959505+507135087+504121631+501146953
3518+499523805+499564429+500469758+501253217+501544788+501718182+502609751
3508+504561102+506493035+506806466+505532549+504619476+505559651+507705839
3498+508912627+507365782+503459447+499902937+499368966+501982651+505006172
3488+505359095+503031234+500840491+500653457+501805862+503172462+504519764
3478+505402816+505090338+503878368+502666040+501584220+500247163+498582678
3468+496953812+496173599+497021299+498893190+499741873+498334589+495714412
3458+493814287+493437151+494010197+494714077+495216270+495488452+495313986
3448+494298611+492521606+490863703+490073960+489668143+488550673+486674016
3438+485233019+485183818+486380599+488071204+489496953+490167238+489941278
3428+488919023+487559183+486692482+486736232+487059909+486807412+486076251
3418+485475597+485056676+484588465+484305948+484489766+484661671+483999397
3408+482525698+481344970+481490517+482822124+484328345+485266882+485492454
3398+484919915+483603587+482122264+481026029+480245340+479613265+479434391
3388+479882737+480549300+481149358+481917479+482872545+483437967+483278719
3378+482875434+482867304+483450237+484536435+485735390+486227815+485544246
3368+484534321+484754652+486797882+489832245+492671949+494661570+495676856
3358+495872617+495565321+495285931+495608595+496456503+496951131+496449713
3348+495344335+494515040+494426795+494986170+495688889+495823208+495157777
3338+494423340+494493418+495155364+495462869+495219605+495139729+495490805
3328+495529909+494662851+493314030+492051608+490855423+489856130+489717582
3318+490563167+491418015+491407025+490802649+490447283+490758958+491456583
3308+491881878+491703183+491376230+491618481+492418559+492849006+492185243
3298+491140412+491245961+492990473+495321700+496845523+496990861+496191141
3288+495320628+494944772+495105657+495738774+496910657+498590868+500451471
3278+501693522+501332439+499542539+498084267+498111995+498481298+497512324
3268+495445625+493736555+493071839+493339167+494473017+496262262+497817237
3258+498211796+497546425+496652294+495996989+495572618+495325303+495108219
3248+494704040+494068332+493151298+491979535+491302161+492149176+494372709
3238+496496203+497111183+495878693+493545947+491454320+490433881+489945061
3228+488902911+487147707+485498590+484749916+485082826+486205150+487648143
3218+488897133+489427530+488866278+487277351+485095632+482937858+481528728
3208+481052208+480697051+479618388+478127504+477284867+477436520+477867830
3198+477906488+477563394+477023436+476361520+475874963+475890807+476139491
3188+476068728+475631759+475096745+474411896+473329629+471922732+470533199
3178+469280665+467977799+466602472+465550196+465259488+465698751+466246213
3168+466142034+465248290+464226601+463777093+463855123+463807561+463041256
3158+461391096+459248988+457379956+456259299+455752430+455557623+455573795
3148+455720235+455794632+455669218+455337321+454673499+453426445+451694204
3138+450242514+449923931+450703101+451536863+451453144+450483604+449262848
3128+448116519+446963518+445942931+445591110+446061971+446534799+445996241
3118+444451452+442747296+441473676+440748948+440741919+441476803+442336952
3108+442606514+442250047+441661544+441008920+440093643+438627092+436730392
3098+435179854+434633941+434682575+434397706+433625028+432915846+432582491
3088+432603636+433076195+434106045+435318283+435841681+435124935+433714256
3078+432673774+432365019+432413624+432501154+432482034+432132357+431408404
3068+430586525+429910045+429494996+429426764+429566325+429543809+429108002
3058+428232098+427046545+425944919+425398261+425396444+425372201+424842072
3048+424006315+423524732+423636893+423850463+423702176+423346811+423089162
3038+422874371+422553613+422239020+422118996+422052730+421534246+420285048
3028+418843008+418146484+418475075+419174607+419471032+419138570+418256799
3018+416833313+415079212+413692389+413248212+413446772+413550832+413359241
3008+413123066+412866192+412452602+411992343+411695054+411574017+411520409
2998+411487112+411515912+411615951+411606897+411210522+410391085+409436734
2988+408638056+408041066+407503729+406888333+406258522+405897200+405991611
2978+406272877+406127121+405205174+403848371+402763007+402349774+402490229
2968+402796512+402809884+402220310+401226496+400433537+400199714+400292040
2958+400209066+399670538+398830165+398107611+397816159+397963642+398325589
2948+398577162+398473906+398054003+397533970+397014980+396545488+396323132
2938+396409233+396396158+395846462+394940925+394246515+393999827+393993215
2928+393997206+393969985+393929153+393816426+393462699+392693923+391600993
2918+390606555+390023085+389643031+389023375+388145268+387531003+387638488
2908+388342845+389148581+389712960+389946991+389821875+389381332+388800036
2898+388225978+387674853+387108925+386474081+385726748+384957882+384367920
2888+384056991+383983934+384097465+384308742+384359492+383925650+382964598
2878+381881705+381199447+381047943+381122965+381160640+381227442+381451258
2868+381725079+381836704+381708430+381410575+381147655+381227442+381673346
2858+381874557+381178837+379908643+379083250+379063891+379163811+378656079
2848+377584534+376514299+375979732+376205335+376983343+377775916+378103315
2838+377866753+377322656+376817902+376508104+376240627+375732269+374878672
2828+373847333+372940277+372439722+372430013+372680781+372898164+373061759
2818+373202393+373030786+372304003+371379226+370830542+370717071+370682553
2808+370498259+370165737+369743718+369283519+368784215+368199673+367553095
2798+366941123+366480358+366326293+366503231+366661823+366357088+365599808
2788+364804376+364283122+364092157+364176382+364382983+364473671+364307038
2778+363972461+363645836+363329694+362873456+362263718+361672922+361154975
2768+360611324+360126792+359918255+359867953+359530606+358722546+357799735
2758+357248312+357143477+357102675+356785283+356282286+355862352+355552018
2748+355215327+354850223+354544446+354254542+353838778+353319967+352983931
2738+353077061+353440497+353649719+353503844+353158009+352816880+352516941
2728+352192996+351821251+351455194+351096731+350623785+350000794+349434688
2718+349121763+348991166+348839127+348524087+347980943+347269945+346618601
2708+346221183+345995968+345680541+345214683+344899911+345004954+345322496
2698+345368837+344936752+344215092+343543496+343273577+343579056+344155229
2688+344398076+344057632+343415610+342768495+342128647+341519089+341151006
2678+341085515+341007395+340598749+339949728+339361970+338965207+338781271
2668+338914041+339355031+339757184+339717008+339219669+338600044+338135526
2658+337845116+337634107+337450826+337285235+337117172+336905180+336628768
2648+336356288+336210115+336192871+336131251+335900467+335621196+335493488
2638+335505342+335464480+335249957+334901561+334524216+334243010+334207568
2628+334457622+334797977+334949123+334806852+334470608+334081916+333742246
2618+333549404+333594644+333840916+334064195+334064761+333916027+333837133
2608+333866082+333854675+333723602+333517150+333249613+332874413+332424221
2598+332095124+332111057+332452246+332786972+332790843+332484381+332140631
2588+331952376+331929414+332027071+332190309+332292224+332210233+331998509
2578+331862909+331939034+332162551+332323347+332231706+331925840+331655683
2568+331538280+331396128+331108965+330891523+331018009+331470912+331986030
2558+332247074+332033653+331425225+330842918+330670238+330837616+330933456
2548+330729059+330446750+330437786+330742818+331132821+331440027+331610294
2538+331567645+331324382+331121771+331182736+331420490+331597577+331641804
2528+331619527+331535510+331372004+331265651+331429752+331842091+332164874
2518+332104714+331759921+331453608+331327271+331304993+331345736+331479519
2508+331671557+331863505+332058789+332218334+332214760+332025909+331837356
2498+331856834+332106411+332411533+332561756+332513419+332388392+332238199
2488+331988621+331695949+331592752+331755097+331971080+332055156+332103463
2478+332333980+332754568+333053108+332879893+332257111+331574198+331152149
2468+330996536+330981228+331049400+331182736+331323310+331368966+331234111
2458+330955436+330678607+330479005+330310972+330169475+330156013+330370001
2448+330816620+331336235+331618901+331506323+331256865+331256329+331536910
2438+331786011+331705062+331243552+330654215+330353859+330575083+331200665
2428+331962026+332587280+332808266+332586654+332292612+332327100+332668914
2418+333042774+333350398+333688727+334077925+334378252+334463073+334413485
2408+334511082+334960143+335616252+336116837+336292315+336311674+336424907
2398+336715942+337101804+337445226+337689860+337951678+338399459+339010685
2388+339575600+339957918+340209640+340449032+340761362+341170901+341599114
2378+341912307+342113816+342457506+343283614+344721961+346583785+348540497
2368+350308358+351605149+352157823+351999886+351573103+351345832+351527744
2358+352155143+353203875+354568689+355985622+357044331+357425011+357121527
2348+356402756+355740512+355755165+356807500+358509989+360076520+361146040
2338+361996301+363011409+364148237+365064080+365602875+365854448+365835298
2328+365477818+364854798+364161282+363628919+363490937+363755316+364096207
2318+364189278+363939789+363322398+362362328+361292689+360392810+359702957
2308+359113293+358605859+358220473+357896588+357553970+357307966+357376585
2298+357710953+357981081+358049432+358158942+358508619+358949966+359270098
2288+359531321+359918583+360349268+360474235+360121908+359517114+358988117
2278+358711497+358740595+358939959+358936742+358498761+357879701+357493928
2268+357409792+357403181+357323095+357192320+357052700+356866351+356570134
2258+356170095+355773332+355556605+355667753+356089474+356658081+357273210
2248+357936645+358519757+358761502+358649222+358527292+358656846+358895881
2238+358940108+358676622+358205969+357705175+357341561+357177161+357122570
2228+357064613+356984855+356890951+356762856+356646466+356677440+356952005
2218+357461137+358129844+358833397+359480958+360200355+361294684+362849004
2208+364492523+365734365+366516573+367282937+368462295+370036838+371728277
2198+373431271+375226740+377101133+378920846+380592658+382073743+383376162
2188+384676616+386206604+387927706+389478095+390528197+391116789+391585745
2178+392204625+392908178+393422344+393590228+393489146+393255353+392939211
2168+392578098+392210016+391702998+390832991+389689670+388677481+387967883
2158+387292653+386370438+385261724+384265022+383593187+383156963+382695572
2148+382100368+381540516+381475739+382642410+385596688+390100163+395349154
2138+400802274+406375329+412065429+417874004+423852429+429926932+435912623
2128+441758992+447548477+453274405+458769132+463845861+468449167+472571038
2118+476092613+478947179+481363584+483658089+485889455+488080913+490770454
2108+494914841+500986008+508393994+516089322+523458352+530228456+535929903
2098+539987593+542117282+542496354+541691928+540178856+537849803+534286861
2088+529361546+523303721+516357126+508510325+499621730+489821076+479565613
2078+469444797+460182313+452326696+445671582+439596305+433986468+429143264
2068+425113748+421765895+419056460+416838883+414869424+413069457+411492890
2058+410237824+409451089+409165803+409262238+409660580+410306771+411136155
2048+412288590+414072771+416742357+420613877+426057854+433102047+441528327
2038+451404033+462887578+475545866+488326559+500131786+510325450+518881433
2028+526056758+532002481+536791273+540500329+543196481+545089458+546405667
2018+546929899+546177355+544088647+541132969+537824846+534342137+530453909
2008+525847863+520569328+514971524+509373601+503950501+498735105+493623798
1998+488622210+484106316+480573722+478025618+475733585+472898408+469594930
1988+466693338+464871720+464076914+463850030+463838385+463974045+464365923
1978+465088358+466030975+466976540+467869480+469003747+470805590+473305088
1968+475976462+478274749+480141875+481761747+483148004+484320631+485612865
1958+487412325+489686429+492032637+494178706+496279744+498721047+501684051
1948+504927844+508075142+511023791+513792076+516162944+518032870+519840192
1938+522043444+524519563+526813711+528705377+530428952+532499016+535228227
1928+538390416+541555286+544519183+547160714+549402147+551548156+553946185
1918+556202926+557568455+558199606+559073306+560714026+562681519+564162604
1908+564827111+565054828+565396315+566042060+566898843+567899476+569026209
1898+570234962+571512335+572855884+574278297+575991626+578149787+580232062
1888+581321745+581164851+580264406+579230893+578602720+578633932+578940930
1878+578946172+578632443+578425871+578776650+580131040+582501014+584638148
1868+584653754+582284495+579109142+576423354+574494578+573198621+572232536
1858+571058509+569441377+567843426+566806458+566306409+566029908+565969986
1848+566544074+568040526+569613818+569194659+565918462+561639071+558442453
1838+556729541+555703831+554739234+554260093+555031699+556591588+557117845
1828+555707166+553368404+550930467+548200839+545290729+542938624+541493397
1818+540646919+540018805+539573020+539565217+540159319+540947603+541083590
1808+540238898+539125270+538864554+540044775+542194835+544030452+544641112
1798+544499169+544920413+546888919+550253152+553062717+552844411+550082916
1788+547700433+547440491+548934859+551220310+553914020+556619107+558579333
1778+559798273+561504752+565026356+570386913+575375009+577179353+576013844
1768+574135877+572830688+572626082+574059694+576680913+578721016+579396245
1758+579747917+580498020+581690989+584140959+588927725+595158646+599652710
1748+600558099+599379485+598341802+598539737+600197909+602744255+604807588
1738+606061254+608456781+613566450+618932307+620018357+617351034+614208263
1728+611992145+611062514+611612716+613402765+616314662+621088920+628345729
1718+636382007+640721559+639046828+634189477+629884533+628166021+629411348
1708+632642037+636115692+638690331+641333947+646207857+653594281+659900551
1698+661896874+660605206+657194571+652688535+649495014+649091342+650930413
1688+654253189+659929917+668503293+675623818+675743424+671239235+667174337
1678+666023243+668280996+672545139+676280403+678857664+681456785+683795130
1668+684174738+683143667+683147360+684986788+686707801+686106254+684102962
1658+683700064+687376240+696342984+708294353+714204933+711575255+708905907
1648+709463853+709764657+706173956+701040045+698149353+698260025+700768369
1638+705402708+711203093+714487510+712705919+709368787+708698263+711313765
1628+715030147+718057660+721205613+725467194+729559134+732313780+735209773
1618+739915292+744906128+746712736+745517266+744230780+744080200+744261039
1608+743901802+743474602+743933372+745255180+746668301+748092620+750603108
1598+755234529+761648374+767894186+771661973+772401057+771728686+771365399
1588+771656613+772429529+774110097+777247031+781412950+785289682+788136117
1578+790373499+792123222+792590451+792732871+795256046+800793511+806250324
1568+808559483+809527951+811903464+815654097+821074933+830955464+845528529
1558+854505280+851227951+844420858+839952169+837916235+837106687+836667692
1548+836903987+839107000+843661820+849181296+854450301+858524550+857628573
1538+850829223+844053580+841116487+841138109+841198448+840504634+841121847
1528+844159844+848125446+851498436+855603600+862060093+868599859+871428544
1518+870646752+868405975+866116056+864959065+865891972+869143390+874389701
1508+880303676+883364128+881551028+879025351+879530998+883173341+888714261
1498+894523104+898288747+898417884+896594538+896353657+899458008+904103725
1488+906576329+906051204+905070287+905941247+909083124+913260957+917129409
1478+920583646+924022396+926908918+927916282+926435138+923771150+922078252
1468+922217217+923506026+924602142+924567833+923415428+921912542+921394684
1458+922737161+923854601+921020198+915200693+910503572+909721483+912792419
1448+916444471+916959649+914613084+912736249+913109066+914694331+916178156
1438+917805949+919706491+920355929+919459475+919269641+920865389+922060442
1428+920616585+917936218+916429818+916223544+916728954+918920232+923444793
1418+927488367+928031540+926308085+924783339+924132532+923171569+920885700
1408+918740406+919609221+923769244+927256361+926850425+924727110+924697149
1398+927063132+929373184+929957100+928389645+925089027+921756482+920245853
1388+921004830+922812213+923762990+923100924+922443922+924221820+928601995
1378+933407584+937652487+942666911+948509468+952586993+953806647+954529171
1368+956860845+960115598+962805913+965007437+967437215+969486371+970137119
1358+970468003+973197691+979693974+987893281+993626119+994745406+992849987
1348+990701714+989706203+989903661+991135824+993639402+997317604+1000814787
1338+1002643195+1003749676+1006988227+1013155950+1019485808+1023109627
1330+1024317129+1024920285+1026010683+1028508960+1032854111+1037707948
1321+1041955293+1046348811+1051368953+1055615941+1057985796+1060176598
1312+1064512338+1070224507+1073741823+1072827380+1069542487+1067474150
1304+1067637954+1068478060+1068615536+1068371557+1068728114+1069938476
1295+1071219005+1071059013+1068267319+1063152349+1056786275+1050130715
1287+1044316928+1040488325+1038934868+1038311341+1035800913+1029965087
1278+1023344075+1019533699+1018763046+1018080192+1014705475+1008319744
1270+1000747836+994379379+990595509+988975400+987943435+986113001+982911678
1260+978512084+973840457+969946511+967050697+964117535+959523581+952611296
1250+944170094+935762071+928840315+923842867+919310681+912613009+902344054
1240+889612085+877234527+867479560+860315612+854058721+847879323+842609068
1230+838632982+834812539+830585684+827357914+826339649+826430486+825459099
1220+822786713+819796846+818057070+817810470+818347152+819182611+820404945
1210+822179686+824546265+827683139+831823088+836660425+841253129+844831499
1200+847402803+849479777+851604938+854255226+857882499+862159150+865512007
1190+866616105+866386660+867515537+871818039+878662778+885852994+891560041
1180+895533625+898763480+902181144+905796146+909086996+912197126+916558955
1170+923579113+932695007+941795057+949408542+955127144+958564882+960312877
1160+962620010+966742329+970652774+971313827+969211062+967646407+968476922
1150+971383280+975346559+978853690+979633396+976478355+971738287+970318793
1140+975283897+984244327+990642268+990076340+985162760+981943269+982710884
1130+984409441+983980513+983059161+984088564+986182454+987930569+990595390
1120+995681352+1001461901+1004720586+1005413447+1006551020+1008727884
1111+1009652929+1009226324+1010295041+1014106131+1017779984+1018231607
1103+1016896635+1016237369+1015522469+1013577075+1011939393+1013417440
1094+1017923894+1021238808+1019561813+1013314631+1005860184+999960386+996931801
1084+995913358+994951442+993891363+992738064+989049915+981006788+971839667
1074+967049208+968457742+973414805+977943893+979971726+980440860+980496434
1064+978840705+973865177+967623772+964205632+964178470+964741300+964693529
1054+965310206+966854668+967880498+967578860+966002293+963998286+963695338
1044+966521819+970749091+972357466+970004289+967130991+967337324+970678089
1034+974837814+977087407+975585951+971433851+968511172+969023134+969800517
1024+966158889+958968435+953755659+953439428+956077862+959281151+963253187
1014+968855756+974686281+977630819+975985097+969709800+959902296+950054228
1004+942963604+937213135+929684173+920733214+913947385+910642061+907713545
994+902107164+894794184+888078642+882178307+876653470+872160896+868441059
984+863614443+857729000+853890330+854107683+856217477+856408800+853452646
974+848810504+844275817+841144303+839799980+838920204+836472855+832032400
964+827133592+823465159+821721571+821799482+823108245+824746761+825920609
954+826578207+827540778+829664570+832900322+836540402+840442389+845227487
944+850958479+856560155+861156968+865388707+870676118+877283490+883625440
934+887977560+890616113+893647140+899088943+907416077+917335564+926531335
924+932644615+934326434+932384197+929091024+925680389+921331306+915534436
914+910404396+908715310+910424648+912838462+913753143+913078450+911590098
904+909427113+906699450+904777167+905162493+907588280+910833920+914566147
894+918610733+921795556+923362772+924630912+927280246+930395379+930947369
884+927620720+923156260+921873170+925509258+931906425+937206940+938679865
874+936021834+931983860+931089729+936153711+945455985+953415781+955241450
864+951730507+948616566+950265981+954625964+956245836+954666647+954143249
854+955127561+954016078+951216282+952316985+959925943+970073266+977091279
844+978870666+976546974+971437960+964587980+957646984+952695401+951216401
834+953715274+959740874+968077956+977664057+987541073+995473827+998640662
824+996214102+991119205+988475411+991453186+998318177+1003531191+1003487351
814+1000582364+999860912+1002848576+1005803359+1004656613+1000624893+997906345
804+998041915+998934973+997746710+994221234+991841610+994374137+1001796180
794+1009768247+1013750766+1011590699+1003238488+992243674+984339571+982287079
784+982675919+979182787+971022196+964366517+963006409+963829121+962517499
774+958961347+954341779+947969749+940178641+933699929+931522529+934275506
764+938708635+941039534+941904776+944716782+950070012+954978113+957670512
754+959343397+960374825+960418427+961365034+965462097+972254776+979106365
744+984190539+986615135+985467078+982148947+980124927+980853586+981645801
734+978946909+973594870+969525565+968867252+971262422+975694241+980834168
724+984262315+983944536+981710846+981929152+985330614+988858414+990902150
714+991314757+989302769+985277304+981190248+977643983+973058666+966974096
704+962643300+964114617+969724989+973163381+973002317+974281596+980654043
694+987082422+984657112+974194274+965957083+965722456+969657144+970749508
684+966795342+960691890+954029897+946484971+938287748+930135795+923478031
674+920409180+920357478+919341298+917192072+923199862+942345855+958929598
664+960600577+951438043+938855403+928970822+925437840+928078061+934713488
654+943979724+953975335+957707502+950350147+939699082+934310590+931557434
644+927115847+924518573+926852748+928813213+923623191+912435088+902992241
634+899739989+902690782+909641130+914056389+911572348+907838394+912523602
624+927373168+944103858+956623835+966427766+969245192+956043076+931176754
614+908857730+897443935+895782368+900554899+911726621+927450722+941004212
604+947226973+946276851+940718955+936378391
##END=
