##TITLE=<SNM>
##JCAMP-DX=4.24
##DATA TYPE=INFRARED SPECTRUM
##DATE=29/4/2025
##SAMPLING PROCEDURE=Instrument type and / or accessory
##ORIGIN=Admin
##XUNITS=1/CM
##YUNITS=ABSORBANCE
##RESOLUTION=4
##FIRSTX=4497.3318
##LASTX=599.83466
##DELTAX=-1.4281778
##MAXY=2.2383888
##MINY=0.69519413
##XFACTOR=1
##YFACTOR=2.084662e-09
##NPOINTS=2730
##FIRSTY=0.70893288
##XYDATA=(X++(Y..Y))
4497+340070897+340901466+341943930+342229507+341290117+340140490+339726421
4487+339897144+340534259+342144703+344538654+346391100+346821324+346282222
4477+345475384+344377738+342812097+341395050+341238537+342522489+343935991
4467+344017050+342747136+341263383+340518448+340833589+341951707+343116631
4457+343435346+342369636+340084192+337291669+334802565+333480499+334231840
4447+336949966+339673440+340546811+340318504+340962624+342475084+343113486
4437+342477257+341885688+341855409+341798254+341972293+343184480+344686760
4427+344714895+343034200+341122511+340235301+340522679+341260238+341407744
4417+340688027+340011569+340155987+340691829+340855061+340485567+339758587
4407+338984945+338710776+339156439+339706950+339697857+339471380+339968938
4397+341459782+343176988+344067457+343635204+342258471+340768742+339848051
4387+339928966+341252890+343331785+344608075+343894333+341973037+340331313
4377+339109834+337927298+337374329+338012416+339310264+340551586+341428388
4367+341498095+340512186+339053480+337725610+336548764+335800568+336210692
4357+337770557+339441216+340422636+340825097+340933317+340529799+339275468
4347+337556203+336477198+336725090+337699934+338267972+338287729+338615250
4337+339454254+339620802+338045955+335433075+333693710+333951095+335584670
4327+337298789+338726845+340150583+341025069+340475445+339115210+338589231
4317+339409078+340592072+341150845+340796247+339626835+338210988+337530012
4307+338224397+340107466+342388793+344196722+344956526+344340568+342304818
4297+339616513+337681693+337216930+337731557+338608274+339784777+341194848
4287+342322974+342407006+341052889+339087876+338252017+339261629+340905354
4277+341698325+341377694+340335430+338939140+337810557+337503307+337655588
4267+337516402+337308253+337923495+339257255+340014542+339480043+338480525
4257+338184826+338952836+340597447+342585649+343753403+343075058+341003882
4247+338864172+337311970+336424703+336389506+337120804+337873745+338268629
4237+339062314+340853031+342536070+342157484+339448564+336627792+336178869
4227+338426571+341548617+343604725+344074463+343409155+342162373+340909729
4217+340182577+339957101+339585376+338701884+337897905+338127957+339588693
4207+341369545+342288006+342095125+341603685+341556451+341880885+342244032
4197+342790224+343832717+345042444+345556357+345014167+344054505+343464853
4187+343167524+342607865+341837482+341398738+341210574+340443165+338804872
4177+337306108+337223592+338614049+340297431+341207314+341223812+340759850
4167+340346896+340561250+341541641+342539101+342498615+341102468+338978769
4157+337108652+336285346+336703732+337776075+338768675+339697200+341044569
4147+342585792+343345996+342894843+341826388+340775890+339796528+338892135
4137+338330674+338212017+338267428+338206299+338097306+338373562+339298913
4127+340386124+340781665+340292599+339668636+339800788+340866469+342346591
4117+343442236+343485525+342601088+341909334+342196569+342510795+341330746
4107+339156296+338195577+339359442+341309159+342614412+343330928+344114034
4097+344906118+344903831+343608642+341747474+340701208+341040709+342175582
4087+343183307+343473059+343121691+342811869+342819131+342322174+340671100
4077+338793264+338035462+338281124+338389545+337876490+337324179+337411413
4067+338030143+338525757+338721555+339150263+340064006+340917306+341033218
4057+340329941+339421601+339295568+340428097+341882000+342077798+340783124
4047+339406934+339319442+340638734+342321259+342963149+341942615+340109239
4037+338898111+338863972+339593068+340581178+341454092+341720770+341117250
4027+340060633+339360729+339526791+340494916+341879655+343247582+344173448
4017+344236207+343175073+341212318+339321158+338839640+340264350+342500931
4007+343791287+343392972+341980928+340642594+340004278+339929996+339800417
3997+339408592+339206618+339252966+338778139+337625881+337125922+338394520
3987+340611286+342029506+342060928+341383327+340589870+339793812+339238727
3977+339475698+340757705+342403117+343107967+342306305+340925655+340196330
3967+340209797+340416002+340869243+341887775+342919260+342892498+341725344
3957+340561336+340382321+341003082+341619382+342016468+342650152+343534503
3947+343912946+343505939+343286238+344211790+345760018+346565483+346120563
3937+344957984+343783968+343168296+343531300+344775853+346128283+346868958
3927+347113677+347542586+348482519+349541624+350203843+350445731+350513837
3917+350283243+349185768+347057351+344703372+343127181+342502846+342488121
3907+343436547+346277419+351037442+356137196+359592196+360271656+357981123
3897+353930952+350580971+349909031+351895717+354174356+354196572+352946558
3887+353381729+355656393+356924248+356279899+355713406+355442411+353784275
3878+351382119+350688048+352345812+355494877+359799716+364100696+365101273
3868+362021400+358301153+356310407+355206956+353656698+352034846+351213683
3858+351874273+355433176+363107067+371080230+371254470+364124313+356152179
3848+351048879+349716349+351563878+355258078+359604347+363919222+367161297
3838+367770936+365836201+363380835+361321926+358944044+356227719+354532328
3828+354500448+355381510+357184149+361196321+366563239+368826352+366667371
3818+364116507+362948496+361005441+357202477+353426447+351829698+353504903
3808+357853145+362244789+365008177+367165929+368694915+367400555+363652745
3798+360400491+358443827+356420257+354097672+352803741+353078425+354116343
3788+355378651+357110668+359274053+361645330+364755138+368882049+372467943
3778+373768250+373724189+374886454+378739597+384993981+392061923+398061038
3768+402178857+404460469+404812980+403992075+404191190+406773733+410220698
3758+412067570+412918553+415727116+422017784+429870661+434962381+435990892
3748+436608193+439762262+444513393+447046330+446205897+445349481+447810022
3738+454839650+464926048+473935357+478139152+477554188+475687617+476137455
3728+479446521+482929483+483991390+483351844+482738431+481690649+479289036
3718+476428693+474846526+475789862+479547937+484409062+486662454+484524459
3708+480321664+477342064+477200991+479272653+481259539+481470605+480679808
3698+480460221+481171590+482654943+485691413+490912711+496146075+497080519
3688+492960756+488121561+486035832+487049990+489742326+492446843+495551591
3678+501575181+509850333+512714393+506775149+499732770+497720179+498475294
3668+496566321+491951287+488276529+487222285+487905805+489375949+491503422
3658+493394611+493379514+492311832+493874499+500031956+508492613+513217726
3648+509734135+500802911+492260023+487799386+487795898+489736837+490974298
3638+491450183+492223197+492902886+492917639+493687965+496928009+500883026
3628+500995221+496848752+492139422+489809804+491452757+496901190+502801377
3618+505276986+505277444+506060693+507593166+507795140+507158968+507684261
3608+508294185+506270501+502372726+500031384+501051261+504314179+507672595
3598+509933307+510710323+509801383+507655325+505753958+506051486+509496593
3588+514404008+517315989+516973971+515252218+514203922+514418705+515153919
3578+515230774+514240920+512856610+511888485+511885511+513542703+517240734
3568+521624917+523808602+522353669+518868820+516011622+515191832+516034038
3558+517257661+517996535+518382985+518998170+520263309+522469410+525528753
3548+528331112+529190644+527501029+524125172+520218648+516848509+514820479
3538+513712311+512054089+509374905+507192478+507378269+510076438+513302816
3528+514771759+514257446+513353024+513263188+513877973+514219304+513059041
3518+510102228+506911819+505492970+505985324+506744956+506328199+504703202
3508+503159349+503477978+506154818+509108542+509678038+508242891+507446947
3498+508193827+508905996+508442978+507597798+507280999+507100984+506196448
3488+504498312+502792113+501701043+501155164+500871074+500712045+500545812
3478+500388098+500710444+501873338+503301622+504128789+504334194+504295938
3468+504039811+503451101+502424020+500620723+497859937+494791158+492340252
3458+490709365+489667358+489341695+490168347+492325842+495330117+498099652
3448+499480588+499046905+497457133+495774723+494509012+493476441+492339223
3438+491007408+489623384+488366079+487517469+487388633+487825062+488154270
3428+488005191+487736484+487675354+487559385+487003271+485938447+484526689
3418+483263552+482789668+483033043+483291057+483564054+484667533+486521038
3408+487708120+487557097+487147489+487353980+487551551+487078410+486642039
3398+487193236+488291626+488495086+486992177+484467275+482533656+482386578
3388+483885085+485961893+487635954+488274699+487509749+485765352+484426846
3378+484661300+486116290+487200670+486962441+486270572+486531160+487757527
3368+488676932+488572628+488256972+489083796+491622708+495351447+498969478
3358+500942897+500675734+499278500+498463914+498933280+500480965+502830312
3348+505366937+506984043+507083257+505964795+503997437+501461041+499243561
3338+498651706+500024580+501894267+502230338+500675505+498606874+496982391
3328+495551305+494189182+493418514+493354982+493473982+493684190+494511814
3318+495988190+497283922+497820080+498071117+498793294+499960705+500915449
3308+501055264+499863721+497028768+493323016+490628564+490367233+492089558
3298+494061719+495196650+495711477+496020557+496064188+495812121+495535922
3288+495593278+496323803+497709772+498923445+498910006+497700336+496592740
3278+496843263+498446244+500284652+501442113+502063589+502590482+502612956
3268+501225729+498557696+496323575+496285948+498294478+500430014+501247802
3258+501102955+501032676+501437424+501978728+501921544+500786785+499005618
3248+497443866+496439772+495870163+495570061+495175377+494201877+492744486
3238+491725753+491989143+493240042+494363593+494860293+495165084+495371290
3228+494907527+493713812+492408530+491243921+490143930+489521024+489888889
3218+490815270+491141104+490344188+489007398+487813453+486734277+485537702
3208+484449719+483691174+483076217+482715215+483233588+484468133+484998400
3198+483935407+482108035+480832032+480568356+481135964+482242246+483424925
3188+484116680+483994306+483075817+481655710+480156860+478773894+477367683
3178+475823915+474292585+473018726+472145269+471692629+471621892+471811372
3168+471812344+470973426+469258507+467566833+466711904+466482853+466144667
3158+465480160+464929765+464776740+464572022+463671374+462175927+460878508
3148+460296289+460309841+460577377+460758936+460583924+460108039+459699031
3138+459646021+459961391+460428841+460589157+459909554+458232147+456046403
3128+454353071+453976171+454632043+454964911+454092312+452802156+452532304
3118+453556870+454711357+454708041+453488649+452308658+452494477+453932569
3108+454920536+454048595+451970958+450526547+450509392+451046150+450968036
3098+450182643+449495777+449498951+449857952+449748273+448951843+448158844
3088+448118787+448801106+449544469+449786443+449346441+448183376+446398607
3078+444551249+443470615+443403424+443615519+443333774+442825637+442847424
3068+443298520+443253573+442307807+441095392+440351800+440133929+440124808
3058+440173586+440255188+440243579+440032570+439638230+438993194+437996963
3048+436932512+436396155+436638215+437317303+437938235+438240138+438180610
3038+437764510+437045193+436249964+435621569+435131559+434556632+433826421
3028+433114852+432699782+432810719+433206575+433026760+431823580+430466890
3018+430067717+430455911+430681158+430466547+430173279+429862312+429330558
3008+428773844+428750827+429417764+429991920+429309057+427247574+425164476
2998+424391434+424850936+425605364+426157133+426600852+426926601+426878309
2988+426394847+425725823+425163875+424967935+425349152+426123537+426519937
2978+425862178+424400984+422944393+421863902+421070159+420637963+420686626
2968+420855491+420679822+420379977+420586697+421350390+421929349+421586674
2958+420344638+418898083+417928843+417555288+417389855+417117602+416908966
2948+417056558+417353658+417251384+416595226+415818125+415447715+415669961
2938+416211064+416525834+416303188+415741841+415153075+414609141+414165479
2928+413970110+414014113+414139346+414268010+414351956+414295515+414131997
2918+413982090+413697885+412933106+411766239+410821588+410537126+410710965
2908+410950480+411150338+411337845+411497846+411686781+411907655+411875203
2898+411272712+410195623+409114731+408468524+408333484+408379117+408192525
2888+407730078+407314093+407189003+407307317+407512379+407655682+407538855
2878+407002155+406165439+405436915+405136556+405148736+405126205+405015411
2868+405130408+405627737+406193173+406420222+406233316+405841091+405518087
2858+405431139+405458501+405246034+404643001+403965771+403621780+403614404
2848+403627356+403415632+402880047+402043359+401250074+401015877+401362813
2838+401739083+401792893+401674494+401550805+401448760+401422198+401317752
2828+400703767+399466706+398117421+397275330+397111126+397341663+397684281
2818+398231703+399117255+399861790+399634998+398312704+396740459+395869576
2808+395970477+396562817+396912726+396745663+396446533+396455083+396699973
2798+396789752+396573939+396285704+396117097+395914522+395491103+394985225
2788+394599548+394194228+393517970+392735979+392380495+392721454+393407490
2778+393862846+393851238+393476597+392898810+392318965+391950128+391742636
2768+391443535+391077929+390983604+391270124+391645051+391795560+391565651
2758+390871009+389890646+389181679+389102937+389302137+389196233+388711255
2748+388151367+387636482+387117938+386741953+386777007+387204972+387597711
2738+387437911+386564997+385342318+384358467+383920009+383890759+384040153
2728+384330418+384746432+385143861+385468637+385816830+386058833+385761476
2718+384731049+383370528+382329894+381949163+382104303+382435713+382625707
2708+382531324+382158999+381617467+381125599+380964540+381269817+381833794
2698+382227306+382212752+381968119+381819956+381821557+381702014+381252805
2688+380657691+380294487+380233386+380143121+379724305+379026746+378344570
2678+377995862+378119723+378496451+378679125+378447129+377986026+377600034
2668+377457646+377589312+377903367+378178879+378211531+378003753+377727641
2658+377498390+377276973+377044749+376970982+377238146+377693216+377863310
2648+377454129+376710166+376134237+375966574+376087975+376255124+376228848
2638+375856895+375271674+374876618+374940321+375312818+375645886+375730776
2628+375505900+374944095+374148123+373443387+373148204+373267890+373548978
2618+373758443+373764647+373478927+372989032+372695678+373011563+373852453
2608+374623122+374812601+374446223+373870781+373359584+373048217+372996352
2598+373152836+373414224+373728993+373983176+373944834+373570222+373178311
2588+373084729+373257568+373515811+373839015+374285193+374772286+375105154
2578+375131030+374811743+374253828+373701573+373377311+373303344+373352265
2568+373427147+373503059+373585604+373718442+373907636+373971853+373663374
2558+373047560+372574420+372632661+373115180+373524503+373488934+373078668
2548+372611503+372299708+372166469+372180336+372325240+372549859+372704027
2538+372575049+372078949+371421362+370943561+370796398+370884290+371095785
2528+371426851+371882693+372381252+372771733+372939711+372929532+372905972
2518+372959868+373072063+373239326+373422287+373435753+373161556+372802126
2508+372677494+372839525+373059140+373164844+373243386+373418856+373566076
2498+373482759+373247504+373106259+373109147+373148032+373220256+373424031
2488+373787035+374164049+374265121+373931824+373428920+373243587+373577198
2478+374173255+374560219+374415601+373840101+373244187+372898024+372780711
2468+372858767+373153350+373493681+373567877+373309606+372995837+372892077
2458+372969818+373046559+373077038+373162871+373339370+373520100+373642731
2448+373719300+373727363+373589064+373293623+372935479+372621053+372457307
2438+372597093+373104629+373772052+374245221+374352813+374198559+373968908
2428+373760158+373567934+373389949+373319413+373501515+373983404+374619977
2418+375148299+375398737+375464813+375616465+375996796+376438856+376620616
2408+376422159+376108590+376053522+376280971+376452781+376333438+376073851
2398+376022357+376459385+377511542+379129420+381162683+383625197+386937665
2388+391837418+399037426+408989012+421827962+437299891+454716847+473247376
2378+492368101+511842337+531272313+550064516+567901575+584871381+601239497
2368+617199434+631950216+642761764+646637237+644027589+638674653+632655066
2358+623885100+609788618+591005507+569739640+548476173+530975928+520893190
2348+519936388+527497255+540094144+552018664+559683835+564053607+567324359
2338+570137469+572205470+573709066+575208888+576853271+578453908+579670440
2328+579748439+578180511+575508132+572252132+567802246+561620428+554518577
2318+547778300+542023189+537233572+532872893+527933340+521641214+514127581
2308+506085282+498039609+490136267+482378687+474911544+468019787+461818412
2298+456090378+450579328+445311939+440427026+435882071+431568339+427580128
2288+424197009+421606174+419653197+417882295+415939212+413926450+412208528
2278+410929665+409894864+408859205+407781029+406805528+406086096+405635543
2268+405329466+405026505+404666332+404249375+403731802+403025065+402168049
2258+401373277+400791344+400377618+400039261+399718802+399364718+399035653
2248+398912250+399021386+399157369+399168148+399069992+398904787+398777038
2238+398932607+399458128+399990997+400063535+399708337+399421502+399500559
2228+399697358+399615613+399204174+398690004+398225127+397828099+397524966
2218+397327739+397138431+396840017+396456598+396123816+395942199+395901113
2208+395868375+395662856+395279580+395008642+395133589+395564242+395964501
2198+396169277+396279957+396423746+396613110+396822633+397045593+397230726
2188+397305523+397348697+397567340+397982982+398391733+398758797+399276884
2178+399891125+400253272+400332357+400547140+401091274+401619054+401798297
2168+401771364+401871864+402193553+402594756+402907924+403031213+402964279
2158+402845165+402882134+403186210+403678364+404160225+404447832+404459297
2148+404264614+404094463+404199682+404604316+405059958+405321946+405385106
2138+405377986+405373640+405417272+405583534+405847953+406027110+406025080
2128+406049212+406382023+406985285+407509234+407694167+407674638+407834725
2118+408342004+408934831+409320193+409612432+410095237+410754740+411376959
2108+411882637+412287156+412588487+412897738+413435611+414270154+415219580
2098+416042057+416626163+417034514+417405552+417784739+418081152+418198637
2088+418136678+417978135+417849786+417855676+417997664+418222797+418558896
2078+419097255+419828581+420629843+421433392+422239658+422932042+423301164
2068+423333216+423250156+423217533+423224109+423216418+423164752+423096760
2058+423197718+423720008+424671578+425719675+426493632+426960539+427442314
2048+428193569+429082294+429868459+430585118+431338174+431998649+432465356
2038+432959025+433705248+434574959+435291961+435821599+436394382+437205308
2028+438172261+439065160+439856186+440776906+442025175+443587956+445303390
2018+446928130+448252454+449306984+450345017+451557746+452935308+454394587
2008+455908418+457485753+459091565+460653660+462166577+463693390+465207136
1998+466605027+468022360+469881040+472313075+474721179+476334740+477124022
1988+477703467+478530691+479657272+480968530+482243447+483247312+484092949
1978+485206835+486731475+488367623+489960826+491785968+494085565+496677258
1968+499125190+501124628+502746595+504333622+506051429+507709593+509250873
1958+511117416+513706993+516743520+519597401+521989865+524033220+525847096
1948+527578971+529728059+532927790+537033428+540765370+542963408+543948574
1938+544846077+546233932+548072397+550174309+552271418+554148082+555968934
1928+558184471+561140540+564832338+568750757+572164755+574957907+577574990
1918+579837474+580962341+581228303+582168694+584643617+587692896+589620397
1908+589982943+589933308+590674241+592352419+594385481+596206906+597560851
1898+598550020+599578131+600951519+602626838+604491779+606362897+607614311
1888+607697857+607083930+606726187+606939826+607418227+607835327+608117702
1878+608470870+609168115+610211665+611647098+614090627+617952147+621808578
1868+622763837+619927968+615832737+613234925+612655880+612919213+612873122
1858+612220825+611149311+610025588+609365685+609503098+610275197+611332185
1848+612750691+614804626+616642634+616033681+612260796+607691395+604747849
1838+603868760+604071763+604277225+604387933+604958515+605684580+605259875
1828+603574548+602034469+600941969+599164462+596502261+594094415+592591734
1818+591672216+590948037+590454711+590371280+590532767+590289278+589144740
1808+587460100+586136348+585921794+587065473+588987828+590332166+590186861
1798+589283755+589317665+591415917+595154549+598025986+597219291+593459787
1788+590194924+589625658+591370799+593652783+595321755+596432039+597334860
1778+598337067+600135446+603735292+609237136+614415832+616240402+614798679
1768+612407416+610583247+610166719+611691930+614312672+616043231+616423905
1758+616819275+617835435+619190352+621511393+625851257+631376432+635196151
1748+635885961+635057594+634675090+635521413+637632017+640310629+642129080
1738+643002394+645361977+651028911+657006410+657795034+654149212+650240115
1728+647733626+646663027+646903314+648168053+650279972+653857059+659750441
1718+667008519+671660779+670759388+666378580+662167837+660297577+661481172
1708+665252570+669898026+673469280+676292397+680549745+686290388+689956911
1698+689978355+688685025+686422026+682484222+678770865+677472846+678926120
1688+682866783+689836539+699095599+704820917+702523379+697082665+693780118
1678+693833071+696521748+700223038+703341224+705872188+708399606+709608246
1668+707733984+704703118+704140942+706811206+709677611+709486730+707457099
1658+707569294+712751250+723742413+736316658+739786125+734712704+731938022
1648+733894630+735823789+732988892+727350837+723062095+721872382+724552882
1638+731270514+739440276+742992488+740096405+736871399+737836151+742502021
1628+747889782+752272535+756873044+762584066+767585549+770850412+774764427
1618+781205632+787499873+789363214+788148626+787689381+788996836+791348642
1608+794175590+797168142+799864253+801707521+802345123+802044907+801727936
1598+802215315+803592763+805296960+806557467+807168249+808030927+810230624
1588+813373970+815658585+816050524+815575783+815864219+817515063+820562684
1578+825123965+829923474+831875164+831030042+831097233+833625337+836707039
1568+838569064+840035376+841671696+843250946+846824888+856369926+871690145
1558+881178399+877886831+871410916+867993429+867399802+867737359+867848697
1548+868402695+870905009+875236353+879618705+883878627+889327060+892564303
1538+888908530+882227897+877444627+874723527+872317797+870617717+871319250
1528+874125726+877158250+879954433+884045547+889570492+893420004+893017143
1518+889636197+885719722+883479883+884909025+890349224+897754379+904451310
1508+909267975+911648716+910929856+908577993+907033739+907810469+911215433
1498+916096830+920162097+921619202+920908233+920212247+921824378+926087444
1488+929735783+929497840+926681758+924624049+924530096+925542939+927149523
1478+929954683+934560396+941137985+949266917+956208367+957839312+954614192
1468+951339837+951195333+952629851+951072387+946023727+942916521+946695125
1458+956035958+960676610+953940736+944178114+939349269+939400506+939908071
1448+937297393+933125307+931361810+932530021+933602393+932579543+931009328
1438+931230858+932772996+932975999+931549030+931082466+933278045+937284070
1428+940819584+942044179+940291090+936294787+932277268+930473228+931128556
1418+932004844+931037005+929306560+929404916+932123844+935442516+937080838
1408+937246328+937024111+935800717+932728393+929154393+927246049+927925681
1398+931093217+935805692+939604253+940113648+938447363+938066575+940614294
1388+944695801+947563120+948162466+947848125+947852071+948191001+949118639
1378+951696150+956023434+960222340+962197247+961763106+960349746+959612302
1368+960780227+963961830+968080107+972095795+975761060+979254087+982252472
1358+983922474+984061088+983309919+982287926+981682119+982854048+987014984
1348+993503193+999228912+1001183804+1000740170+1002767572+1009348991+1016951374
1338+1020858527+1020930236+1020095350+1019865470+1020531549+1023230519
1330+1028876409+1035340144+1038164232+1035724878+1031797252+1030792759
1321+1033226166+1037408489+1042435190+1047431355+1051167071+1054052689
1312+1057046385+1059097918+1058830755+1057461770+1057091561+1058214997
1304+1059680051+1060476052+1061680576+1064739691+1068235119+1068943514
1295+1066661988+1065062895+1067201004+1071730891+1073741823+1069614054
1287+1061348680+1054362283+1051464656+1050936391+1049627449+1046374824
1278+1042349871+1039307340+1037794595+1036390728+1033536904+1029980174
1270+1027848812+1027493929+1027263363+1026084000+1024435614+1023327160
1261+1023087902+1022676177+1020435366+1016463137+1012771453+1010300304
1253+1007925453+1005623797+1005504512+1007315071+1006138796+998367378+987155428
1243+977279867+969274566+961976974+956232728+953301648+951634335+947779162
1233+940367945+930827997+920966618+911931319+904498887+898667607+893464436
1223+888154960+883166229+879216588+876174171+873191968+869860429+867020329
1213+865857150+866067987+866066272+865640823+866526603+869578226+873264363
1203+875816199+877440853+879264679+881551524+884043831+886899886+890181217
1193+893291855+895747793+897670948+899369312+901350508+904219200+907908311
1183+911633848+915330107+920118923+926021740+930974331+933377431+934311017
1173+936132384+939579206+943687304+948049985+953292156+959132814+963564973
1163+965130671+964525779+963097895+962412373+964542934+970058558+976727813
1153+981703277+984219144+985754077+988652619+994108772+1001016598+1006733281
1143+1008554591+1006223429+1003254550+1003627962+1007318388+1010922923
1134+1012592010+1014003654+1016693017+1019256689+1019491715+1017483528
1125+1015753712+1016942224+1020725746+1023725504+1024629697+1026397483
1117+1030849828+1034411361+1033505567+1031479538+1033547426+1040129646
1108+1048633820+1056423652+1060556911+1060096923+1057888019+1056208068
1100+1054072475+1051280753+1050278317+1052986208+1057848448+1060765403
1091+1057588947+1048093203+1038374784+1035095511+1038453926+1043128489
1083+1044284520+1039817307+1030235901+1019592016+1012828523+1011689532
1074+1015421130+1022757493+1029673096+1030304293+1025116904+1021533069
1065+1023546632+1026694839+1024080159+1015318771+1006904147+1004860506
1057+1009973784+1017037836+1019424696+1016412701+1012921961+1012443903
1048+1014407258+1017536595+1021741334+1026009203+1027509254+1024966167
1040+1021382447+1020488204+1021782049+1021553884+1018282732+1014171889
1031+1010630484+1007166736+1004878690+1005850246+1009341443+1012107318
1023+1013070411+1013565510+1013104264+1010619505+1007894802+1007414114
1014+1008718709+1009630794+1009403659+1008142638+1005165982+1000012561
1005+993283264+986575696+981424448+977517066+973299061+968730060+964747195
995+960538911+954937110+949262057+945537435+943696396+942868544+942776420
985+942226024+938220286+928867902+916755532+906757998+902237775+903601842
975+908226140+912037510+912352765+909159154+904021287+898685849+894387614
965+891386027+888793991+885575104+882579349+881807537+883325600+884832856
955+884452297+882308640+879115601+875441358+872511365+871663097+872979072
945+875817629+880465943+887185177+893867126+897590147+898834413+901051436
935+906211376+913250497+920309231+926768277+932486619+936441978+938348550
925+940479225+945506155+953339104+961245819+966745547+968828073+967676388
915+964375156+960441241+957072703+954624771+953220275+953169782+954044868
905+954485871+953572700+951706615+950141775+949831381+951103724+954406157
895+959843782+965167726+966861745+964788482+962870760+963704274+966129675
885+968895550+973292084+980274821+987150395+990005478+988071973+983477239
875+978106404+972907579+968698609+965819624+964869798+967923766+976406324
865+986459384+989694168+983406674+974753021+971228428+974454406+982139019
855+991293147+998689324+1001074697+998558830+995135682+993059331+991690575
845+991240080+993310255+996902782+998485520+997259953+996103006+997039566
835+999145881+1000736396+1001528280+1002596248+1005153516+1009090977+1012530251
825+1012794327+1008997081+1003881744+1001895516+1005279664+1011778167
817+1017164213+1019248683+1018112438+1015560316+1014276307+1014945474
808+1016563666+1017749434+1017679097+1019416919+1026243315+1035509866
800+1042949045+1046493881+1045416191+1042098148+1041054311+1043352536
791+1045721897+1045134732+1040663516+1034801471+1032019927+1029877128
783+1021251496+1006410192+994069658+992091206+999146567+1007173827+1009105502
773+1003378297+993916176+986560714+983876612+983439154+981550367+978209679
763+977655566+983192234+991700754+996463837+996912045+997349274+998002773
753+996580035+993631171+991379494+990616203+992262530+997886346+1006456511
743+1015115082+1022253359+1025768001+1022383510+1013431356+1006634467
734+1008697208+1019186239+1030799277+1035775543+1034230774+1031063124
726+1026031276+1016469770+1006027173+1001759647+1004371582+1008271988
717+1011758953+1017672464+1023392693+1021552626+1011403955+1001513527+998503933
707+1000239239+1000618369+998765722+999045923+1001928568+1002891432+999975964
697+995469865+991989076+992557027+1000180568+1012683733+1021424420+1021591283
687+1018245676+1017600527+1019444596+1019325996+1015332038+1008867731+999307483
677+985634677+973264750+968477535+968438079+963919972+952343244+941622905
667+940579926+951203453+968491374+983950036+989071206+982586541+967679247
657+947610126+930575473+927015827+941676200+965986944+980215464+978235183
647+973463865+975906308+978248792+969053721+953698505+944326678+945513761
637+954829947+966953239+976575017+982406068+982839294+975125174+964584907
627+956653888+949178339+935568264+918858874+910192411+916691715+932163358
617+938926279+928339350+913774359+911318993+920663028+932852997+938572882
607+940059323+944549295+942731131+924166634+896074485+874745715
##END=
