##TITLE=<SNM>
##JCAMP-DX=4.24
##DATA TYPE=INFRARED SPECTRUM
##DATE=29/4/2025
##SAMPLING PROCEDURE=Instrument type and / or accessory
##ORIGIN=Admin
##XUNITS=1/CM
##YUNITS=ABSORBANCE
##RESOLUTION=4
##FIRSTX=4497.3318
##LASTX=599.83466
##DELTAX=-1.4281778
##MAXY=2.1164918
##MINY=0.37722325
##XFACTOR=1
##YFACTOR=1.9711366e-09
##NPOINTS=2730
##FIRSTY=0.39159501
##XYDATA=(X++(Y..Y))
4497+198664572+198463469+198931912+199439091+199391087+198600662+197226403
4487+195656409+194619296+194995254+196983374+199606251+201418638+201671858
4477+200700197+199418166+198602869+198500269+198857782+199214720+199296561
4467+199165370+198920361+198593677+198482882+198938005+199624878+199743277
4457+199118485+198389550+198125234+198320289+198650813+198824051+198748968
4447+198540230+198317854+197986861+197328368+196418077+195758192+195671891
4437+195845325+195903792+196004154+196367956+196749055+196806463+196587247
4427+196348754+196174111+195879404+195258739+194536926+194361950+195073875
4417+196249254+197149430+197323968+196689227+195452418+194124243+193241318
4407+192911111+192887631+193053929+193485072+194168301+194972621+195772541
4397+196385343+196517698+195980538+195024238+194363068+194555946+195355836
4387+195998771+196049058+195548865+194615985+193442693+192381616+191657459
4377+191373472+191806460+193065041+194532708+195314878+195214228+194829334
4367+194779032+195126566+195522300+195693905+195661731+195561429+195445070
4357+195306305+195183067+195129469+195172166+195370124+195696823+195808721
4347+195344663+194530032+193949962+193775016+193817048+194083013+194645952
4337+195293695+195732278+195797004+195408618+194774844+194477734+194885820
4327+195628211+195962636+195574477+194811297+194205873+194024712+194237578
4317+194589844+194753602+194686230+194676916+194883295+195175825+195513047
4307+196012364+196644988+197272441+197880512+198472042+198878904+198870543
4297+198363666+197528170+196764809+196404318+196355422+196322099+196294068
4287+196471191+196821310+196991630+196765202+196375349+196096911+195809039
4277+195327472+194914910+195013322+195572663+196054774+196137310+196108538
4267+196419589+197104450+197870382+198471679+198628950+197939145+196427058
4257+194926673+194405251+195032433+196223354+197402619+198361126+198929009
4247+198804577+198022982+197322698+197582207+198852974+200298370+201238567
4237+201844944+202530622+203130619+203046782+201898346+199908683+197918235
4227+196887412+197065049+197785774+198280903+198502492+198997197+200071020
4217+201209961+201649647+201516491+201615855+201982107+201751431+200678531
4207+199611845+199264311+199524561+200000639+200427534+200610615+200602238
4197+200839355+201548257+202170509+201954212+201078332+200589024+201073101
4187+201994248+202618299+203019159+203613516+204195505+204228874+203845356
4177+203763092+204306814+205068815+205491869+205511827+205564926+205898096
4167+206123390+205891504+205566151+205557865+205590765+205278611+204738517
4157+204231746+203870757+203699651+203548276+203154674+202716651+202735731
4147+203261431+203899725+204386130+204681532+204833860+205009380+205334643
4137+205664941+205721139+205382693+204792297+204382199+204694973+205753238
4127+206668261+206426926+205150883+204008373+203870636+204574684+205385414
4117+205682313+205371459+205007415+205181363+205675524+205822152+205655884
4107+205831662+206415723+206799210+206830144+207026696+207649130+208394983
4097+208949864+209212320+209145644+208888812+208768885+208896810+209042258
4087+209051949+209074205+209289792+209614979+209712862+209313938+208544891
4077+207837653+207539741+207700294+208097978+208415727+208482902+208314745
4067+207941977+207459488+207176408+207294762+207553545+207616381+207583769
4057+207646650+207521341+206833864+205919521+205583130+206037799+206686541
4047+207062650+207326453+207671113+207980758+208258742+208652390+208922830
4037+208598323+207818316+207390740+207825800+208784352+209611910+210018817
4027+210051732+209721556+208975748+207999007+207283695+207283604+208057050
4017+209243315+210272324+210629957+210159896+209230811+208500773+208439751
4007+209020940+209764253+210180549+210312707+210660044+211428698+212087947
3997+211899167+210768375+209406771+208672574+208829574+209458388+210030731
3987+210407959+210704238+210895151+210826176+210546422+210370116+210566637
3977+211091793+211616541+211761444+211398519+210828988+210462329+210300128
3967+210142403+210255571+211186183+212817426+214223647+214690941+214436694
3957+214107092+214010026+214062142+214288676+215080688+216616346+218120995
3947+218481229+217783455+217202841+217200815+216939840+215787034+214298730
3937+213328173+213203196+213946177+215461363+217165572+218079689+217909777
3927+217541500+217960442+219064458+219959781+220260445+220377226+220668864
3917+220880308+220318775+218704632+216828305+215811497+215831833+216412507
3907+217891664+221302093+226341496+230596961+232100400+231218896+228857796
3897+225381689+221821806+219983216+220831956+223001131+223809986+223164737
3887+223632591+226171540+228575125+229097090+228858129+228450239+226739060
3878+224466076+224358607+227207533+231070167+234264086+236352931+236413106
3868+234468666+232805521+232866997+233126294+231384982+228096461+225518504
3858+225520984+229487139+238030485+246871651+247341803+239989878+231677541
3848+226231987+224700380+226611861+230322363+234114691+237668467+241307228
3838+243899895+243704750+241192109+238293274+236055503+234441149+233338872
3828+232786153+232652075+233309601+236060311+240909180+244312049+243696752
3818+241711535+240679623+239027546+235271398+231152552+229212844+230677713
3808+234520797+237731106+239178921+241161175+244730765+247039808+246190025
3798+244209631+242542631+240494819+237860921+235794694+235133827+235757380
3788+237402245+239904968+242617562+244866385+247077138+250054624+253237778
3778+255159842+255595189+255783969+257384202+261647589+268072863+274079059
3768+277971689+280758913+283822156+287791320+293590290+301898196+311346405
3758+319284704+325258242+331620770+340958577+353692858+366149486+373643336
3748+377375732+381692430+387985379+392900138+393609267+392829319+394743430
3738+401693770+412725247+422655461+426095266+423308345+418792404+416021147
3728+415714496+416802576+417633082+417415363+416722201+416254196+415865478
3718+415316464+415474854+418064770+423931716+431001136+435024790+434665615
3708+432595744+431503975+432564901+435610242+439003692+440691677+440411455
3698+439818625+440915293+444822770+451233953+458856499+465830455+469409933
3688+468050460+464066751+460601727+458824144+458767779+460594802+464611623
3678+470511439+476244458+478709700+478398180+478653818+479750274+478064587
3668+471901845+464372828+458804398+456489866+457472050+461232295+466545600
3658+471063991+472586480+472418837+474891396+482493712+493043669+500300689
3648+500274623+495347587+488806559+482274996+477180195+474777215+475205002
3638+477549500+480634969+483509763+486173885+490372531+498128188+507524598
3628+511754934+508433029+502332610+498048570+498057218+502933453+510190564
3618+515833170+519213012+522381908+525602393+527535856+528444530+529520726
3608+529774610+527526119+524089731+522409728+523593151+526352797+528916617
3598+530766077+532232232+533185114+533601562+534985769+539208243+545541138
3588+549859953+549060260+545200469+542085397+541322293+542450620+544239845
3578+545386679+544797992+542179500+538993428+538088322+541215429+547184613
3568+552769462+555436033+554758021+551456436+547071762+543931592+543407313
3558+544576402+545633245+546002037+546266021+546996770+548633592+551521692
3548+554985114+557310169+557813401+557629913+557372460+556122755+553490897
3538+551134757+551077062+552951741+554466640+554537460+554260473+554410155
3528+553879465+551826135+549779941+549690435+550960038+551260973+549865215
3518+548126004+547091054+546684706+546657008+546763085+546634510+546555647
3508+547508167+549679730+551867381+552804237+552329126+551147034+550333733
3498+550963303+553009739+554807310+554964612+554498573+555549670+558521229
3488+561882505+564341880+565896937+566786923+566581723+564850012+562277362
3478+560203893+558895222+557437171+555698747+554822187+554965458+554344355
3468+551983679+549652999+549277918+550266906+551030071+551565477+552624800
3458+553428061+552367650+549872653+548386602+548976015+550214411+550704037
3448+550553750+550040115+549096063+548008255+546858518+545285440+543506859
3438+542424736+542504203+543371389+544348705+544858953+544624542+543721251
3428+542641548+542296705+543512786+545900858+547684882+547591082+546229553
3418+545073103+544936122+545613530+546312407+546475636+546018729+544573923
3408+541452622+537092380+533777551+533881754+537234865+540735964+541697979
3398+541355797+542940004+546713131+549297936+548199364+544936787+542534865
3388+542007684+542254129+541923076+540843191+540066297+540662665+542682007
3378+545283686+547594831+549279854+550307244+550814831+551211382+551806661
3368+552473546+553055581+553772420+554843536+555875160+556161400+555667541
3358+555124272+555390433+556893116+559281068+561463336+562372856+561997110
3348+561406305+561652630+562774789+563835019+563824314+562793900+561951086
3338+562031219+562243978+561842832+561565663+562045129+562227287+561140749
3328+559788836+559413634+559488747+558851376+557588123+556849270+557548813
3318+559581580+561839566+563164868+563322533+562751505+561814710+560670356
3308+559304473+557561755+555660586+554580580+555229080+557407658+560119829
3298+562512014+564038465+564207560+563070221+561713410+561334579+561949937
3288+562922172+564384638+566812384+569606925+571561132+572159012+571120191
3278+568003729+563773271+561153933+562029344+565284482+567900856+568050538
3268+566622666+565454060+564812213+563670581+562197411+562178844+564365345
3258+566925658+567438446+565743142+564004960+563997340+565116173+565479219
3248+564584455+563875902+564513152+565729535+565944714+564710611+562757734
3238+560696240+558655489+557148210+557260879+559214180+561420760+562030372
3228+560939662+559128181+556993388+554771084+553460296+553842271+555407669
3218+557109444+558340341+558854581+558643031+557989330+556951175+555275950
3208+553210101+551451114+550123514+548746503+547454826+547280590+548742572
3198+550800498+551915339+551728585+550953022+550258318+549851970+549633465
3188+549090620+547591323+545379845+543785781+543694883+544484779+545019218
3178+544853933+544095909+542773147+540990211+539344318+538393371+537907374
3168+537365617+536797673+536359272+535832695+535189155+534707452+534311264
3158+533692036+532873413+531935287+530771762+529498530+528337243+527118804
3148+525650170+524308841+523588736+523367328+523174647+522858168+522491010
3138+521949071+521131779+520430725+520378110+520677957+520339525+519084558
3128+517639752+516482818+515484336+514757699+514598825+514756913+514801062
3118+514816242+514814125+514302183+513370468+513023811+513505151+513501402
3108+511958138+509654250+508194567+508347938+509707712+511179370+511633858
3098+510638339+508802970+507308603+507007788+507802734+508799886+509141583
3088+508620872+507387254+505513330+503296046+501458136+500522913+500350795
3078+500502956+500578129+500193583+499321408+498609891+498785366+499762500
3068+500658897+500693732+499947047+499133172+498587938+497833603+496394844
3058+494585480+493102543+492373246+492588999+493666223+494932984+495468421
3048+494980519+493962502+492901668+491825472+490817434+490405461+490885803
3038+491586102+491542740+490771229+490016108+489431956+488503416+487157037
3028+485983412+485338087+484980907+484587532+484141087+483835072+483719046
3018+483376562+482241521+480459796+478966729+478389078+478399995+478441875
3008+478383938+478144750+477480254+476518269+475819090+475652867+475741951
2998+475765900+475559037+474887828+473718285+472623583+472281704+472629358
2988+472892677+472416720+471364926+470553652+470483014+470643491+470088369
2978+468676251+467326727+466936345+467340093+467508794+466812548+465792626
2968+465204150+464793388+463808664+462327602+461255155+461171303+461698939
2958+461978586+461528453+460555008+459630943+459321661+459953046+461204747
2948+462006980+461451283+459781441+458037786+456893855+456259870+455876231
2938+455758935+455862775+455814423+455382977+454772669+454081684+453099107
2928+452004526+451510607+451938697+452779031+453288795+453105911+452381150
2918+451594489+451028814+450443059+449495771+448286676+447266875+446781755
2908+446845892+447180634+447337785+446952665+446103894+445358691+445181553
2898+445302477+445020017+444206566+443556524+443601156+443934689+443783586
2888+442992753+442041897+441357867+441009668+440873442+440706646+440228753
2878+439484729+438972183+439071275+439480707+439518082+438819840+437572312
2868+436287710+435457839+435233982+435364099+435521673+435494549+435003895
2858+433902541+432661483+432045369+432221752+432701187+433084039+433307292
2848+433260936+432783769+432062273+431513894+431181691+430705008+430010243
2838+429485632+429285965+429046082+428446992+427576329+426720059+426139869
2828+425850998+425492790+424825089+424267880+424332349+424717590+424665308
2818+424053669+423492257+423327698+423168128+422569583+421698950+421020484
2808+420636603+420242442+419606098+418885812+418450314+418415297+418440123
2798+418136829+417545027+416928792+416277117+415338145+414069177+412808011
2788+411953434+411576690+411449566+411355343+411185552+410880232+410502339
2778+410212500+409993723+409621787+409063762+408637759+408588409+408648947
2768+408223730+407094133+405798071+405033092+404817762+404660702+404408299
2758+404361792+404584591+404637902+404137602+403237970+402402263+401895794
2748+401629361+401339251+400805537+400056524+399428557+399183593+399091516
2738+398746130+398174406+397716773+397501595+397411725+397318136+397081186
2728+396541273+395633870+394475364+393427381+392941051+393059527+393278969
2718+393171561+392793305+392270931+391479644+390374540+389290664+388715432
2708+388849239+389338804+389452501+388775245+387698141+386938998+386725150
2698+386750248+386725967+386578946+386238337+385611882+384746510+383832605
2688+383111896+382787162+382893149+383253715+383576967+383561485+383055500
2678+382266300+381647374+381444926+381488439+381388440+380816505+379798034
2668+378863053+378617908+379049505+379509738+379428820+378823924+378138352
2658+377797683+377859914+377926348+377492393+376536305+375599660+375114662
2648+374900783+374584214+374209647+374030876+373951922+373637712+373044005
2638+372459248+372090941+371884501+371704581+371474494+371160163+370828868
2628+370673199+370733283+370727810+370449523+370056480+369680280+369201541
2618+368677715+368411554+368389087+368260572+367978415+367866410+368031967
2608+368208773+368195771+368121928+368226433+368520716+368735683+368622046
2598+368237742+367855010+367647361+367555587+367418424+367158068+366787826
2588+366294965+365699353+365245893+365264369+365716921+366131948+366153659
2578+365927443+365729047+365488256+365013871+364432683+363996973+363672844
2568+363303085+362949081+362773182+362796466+362951893+363174057+363344845
2558+363329937+363169854+363149049+363488570+363911730+363789626+362927248
2548+361912377+361453716+361683137+362261966+362831875+363193168+363290809
2538+363206322+363093471+363059513+363111372+363204991+363314637+363406199
2528+363377745+363169914+362956610+363049080+363518627+364059567+364341937
2518+364360292+364308039+364282185+364271722+364269333+364246685+364131143
2508+363873206+363494376+363133930+363055975+363418537+364013181+364425819
2498+364449375+364192648+363878256+363683186+363657967+363663470+363495736
2488+363143395+362798220+362605115+362576510+362721746+363024557+363308468
2478+363373058+363240552+363044272+362764352+362340527+361962996+361961121
2468+362395470+362981678+363471424+363882792+364221738+364282941+364012607
2458+363778317+363915117+364232019+364302173+364051826+363772118+363684577
2448+363722134+363694254+363523828+363287361+363088239+362962356+362919749
2438+363032782+363413880+364039761+364633377+364879007+364770510+364558778
2428+364364162+364086238+363731901+363554581+363744994+364205893+364744142
2418+365280637+365753510+366002919+365922666+365632495+365359802+365239180
2408+365342868+365776764+366551208+367391300+367881590+367893474+367764173
2398+367954405+368593863+369439247+370185599+370677069+370863884+370744320
2388+370407219+370013662+369638006+369121166+368141008+366492000+364230477
2378+361479419+358291532+354866453+351641917+348926722+346674240+344764483
2368+343206977+341975112+340887365+339743132+338667480+338414019+339943615
2358+343411996+347949981+352677351+357501394+362490662+366828648+369103507
2348+368534081+365772682+362751108+361192483+361060582+361223569+360999651
2338+360480422+360063944+359984084+360248793+360927743+362075000+363325129
2328+364125125+364416263+364649162+365223667+366169958+367228071+368115396
2318+368793046+369431839+370127753+370817286+371472438+372213468+373181319
2308+374353341+375513117+376429925+377044224+377438447+377770710+378323685
2298+379345210+380656028+381702076+382183627+382355716+382599803+383001766
2288+383402217+383621781+383616126+383512347+383439441+383339563+383069077
2278+382646189+382265484+382073861+382006489+381863067+381541085+381153969
2268+380848648+380589109+380258570+379894738+379668613+379695253+379989929
2258+380515357+381133558+381626237+381938210+382279484+382793149+383303125
2248+383615461+383844882+384179594+384516877+384559453+384145969+383377089
2238+382534850+381936577+381748553+381823363+381760588+381305858+380724065
2228+380542149+380876377+381323910+381580818+381793941+382196600+382787464
2218+383512891+384444092+385610914+386890284+388193391+389599703+391207556
2208+392979122+394790482+396567974+398381753+400396861+402635071+404858372
2198+406885818+408914382+411264415+413885537+416369769+418455182+420293787
2188+422157460+424077346+425866662+427336838+428456759+429441725+430577612
2178+431798047+432695320+433107232+433304086+433480136+433511161+433298008
2168+432941433+432467290+431719577+430705522+429778070+429216023+428815058
2158+428123649+426890726+425155749+423168340+421276122+419698931+418451614
2148+417413186+416361756+415408359+415553505+418003355+422739222+428527004
2138+434326971+439922193+445373629+450720076+456066221+461453037+466739733
2128+471725463+476341645+480754593+485162582+489467456+493339857+496476247
2118+498650381+499904138+500795606+502005578+503715033+505793401+508543219
2108+512828167+519329673+527914203+537843026+548264256+558182253+566303708
2098+571466848+573274216+572256804+569396161+565322401+560061650+553499001
2088+545650119+536614366+526684273+516196276+505279252+494260414+483933650
2078+474939234+467349950+460975689+455542880+450730236+446453756+442889065
2068+440133380+438095169+436544649+435166096+433817056+432590876+431496990
2058+430489285+429751974+429468637+429543902+429857689+430411692+431197960
2048+432330430+434124372+436805972+440446139+445205834+451400326+459452776
2038+469780871+482357608+496454475+511129416+525698975+539488677+551557071
2028+560970082+567261005+570670844+571964033+571993486+571395485+570360716
2018+568545667+565544776+561552721+557241285+552979016+548524309+543524942
2008+537989321+532105471+525955883+519691933+513690575+508282138+503504663
1998+499249228+495541901+492560363+490249248+488037679+485384987+482598369
1988+480538658+479623967+479568237+479869475+480237087+480702582+481451837
1978+482525493+483779432+485056958+486226410+487283435+488581462+490566180
1968+493104600+495474469+497176455+498394470+499593617+501084930+503017063
1958+505422886+508105786+510623280+512580875+514033361+515558602+517770564
1948+520704385+523928014+527245625+530715639+533973377+536419689+538186961
1938+540026987+542306503+544685020+546646061+548147958+549729382+551859398
1928+554426483+557209353+560265580+563356158+565884418+567918274+570090019
1918+572213805+573372855+573564024+573839922+574858665+576300931+577543863
1908+578451448+579345183+580339432+581083547+581308341+581355211+581952124
1898+583560945+585895071+588050245+589441408+590367862+591048414+590822108
1888+589332851+587593217+586719984+586711275+587079764+587669479+588388193
1878+588833791+588573798+587636398+586813421+587369572+589865113+592877917
1868+593537968+590648537+586085515+582149885+579434992+577272198+575103114
1858+573062122+571490797+570368820+569403479+568489362+567791574+567493601
1848+567892269+569376748+571339422+571583751+568898311+565044568+562062969
1838+560165853+558630210+557295594+556834272+557753892+559231053+559359568
1828+557468438+554881939+552517755+549921398+546923350+544383903+542944419
1818+542267555+541723258+541334207+541712614+543104140+544719371+545319912
1808+544604827+543602232+543658355+545323843+547937013+550055477+550655110
1798+550147826+550054328+551818273+555585594+559207285+559711970+557331759
1788+555070871+554885386+556660883+559452763+562505906+565083334+566559104
1778+567375489+569053073+572937478+578911802+584516488+586725003+585666527
1768+583434365+581274111+580226944+581443388+584422385+586859384+587820310
1758+588506547+589443887+590471883+592606132+596970607+602455366+606319753
1748+607609193+607715996+607922043+608666762+610084050+611919299+613474476
1738+614940631+618035987+623637830+628684793+628929727+625848462+622930486
1728+621049759+620044624+620194789+621764179+624837763+629911820+637485410
1718+646059780+651153734+650082497+645607046+641610213+640214817+642116409
1708+646859171+652464340+656240491+658184841+661613065+668584843+675794963
1698+678494253+676973608+673132444+668592645+665768107+666011165+668751217
1688+673443056+681372072+692817124+701313055+699961687+693479715+688944875
1678+688788964+692580174+698196653+703296836+707785109+712371717+715115397
1668+713600861+710418538+710118933+713402918+716473479+715852315+713424267
1658+713404188+718326991+729121730+743018417+749410338+745458561+741588428
1648+741980322+742625193+738680552+732179227+727537826+726265320+728480306
1638+734184840+741593568+745046528+741009901+734303074+730322388+730080963
1628+731687183+733470844+736064358+740062401+743459116+744776677+746392090
1618+751157108+757199227+758451412+753858695+748199579+744683119+743123950
1608+741970645+740596416+739689376+740132494+742210196+745538330+749359839
1598+753014249+756179335+758700761+760351069+760878069+760289563+758999096
1588+757598801+756515227+755942445+755969721+756658921+758169164+760861438
1578+764730905+767987132+767705367+764717238+762980870+764141916+766360349
1568+767046103+766428628+766293824+767866721+772793818+783448975+798424398
1558+806416068+802278927+795606754+791573937+789615315+788409153+787569000
1548+787857357+790707174+796772094+804933463+813282616+819807466+821105614
1538+817034999+813153617+812714914+814134985+814049772+812847541+814202175
1528+819354490+825864221+831297090+836360685+842237338+847624970+851330544
1518+854529377+857856180+860456408+862491897+865700769+871550207+880315565
1508+890166674+895142818+891146651+884369247+881065183+882470376+887754108
1498+894298312+897864485+897273318+896888802+900587602+907188714+911633141
1488+911101605+908292851+905974267+904452897+904242798+906629056+911525672
1478+917052887+921747569+926082652+931449117+937645938+942105968+943457457
1468+943228671+942669738+940509847+935177431+929317409+927636620+932297676
1458+941047189+945715019+940679184+931998736+926815881+927093230+931116431
1448+935272441+936611290+934756689+931274035+928299634+927936588+931606601
1438+939022042+947094328+951753873+952992148+953125864+952672041+950869330
1428+947929461+945875526+946705640+950040789+953783012+957430043+961730957
1418+964352593+961626028+955176291+949612367+947212199+946906425+946574645
1408+945950458+946226477+947564722+948930121+950071632+951581452+953427586
1398+955463438+958102431+960698365+961207343+959170039+956779608+955916898
1388+955972053+954761900+951849246+949694616+950470179+953867741+958588549
1378+964517152+972178978+980217458+984778061+983585083+979837236+978670082
1368+981617450+986016276+989111632+991658942+995510750+999323671+1000223636
1358+998513334+996703184+995726715+995261341+996024022+999266459+1005335189
1348+1013836321+1023169017+1030166862+1033493121+1035961689+1040147937
1340+1044430102+1045679808+1043380698+1039136270+1034983285+1033215287
1331+1035298614+1040000856+1044103161+1045822535+1045852774+1045356133
1322+1045651505+1048795001+1055037966+1060589432+1062109835+1061941586
1314+1063553431+1065699896+1065757229+1064605859+1065175194+1068404689
1305+1072084378+1073741823+1072980533+1070633525+1067254166+1063820378
1297+1062170433+1063264349+1065360739+1065245106+1061770314+1056372461
1288+1050977390+1046841217+1043622487+1039229648+1032364007+1024530002
1280+1017834182+1012852716+1009686540+1007783799+1004987867+1000237788
1271+995633338+992983338+990688219+986148359+979139084+971088570+962920185
1261+954634957+946111570+937816424+930874098+926223806+923500024+921025892
1251+917126972+911448564+904743430+897675251+890257572+881939203+871986310
1241+860501161+848994542+839434148+832944072+829110045+825941329+821149158
1231+814406165+807849927+803970118+803567278+805553599+807836259+808554489
1221+807366652+805621576+804929593+805816253+807826704+810311722+812737714
1211+814755120+816590731+819068855+822582836+826178824+828691480+830796700
1201+834449416+840135868+846041671+850393023+853459470+856269434+858855691
1191+860843463+862597672+864823544+867781072+871376637+875479305+879822553
1181+883717784+886409574+888351202+891894696+899686791+911895431+925245221
1171+935531465+941677485+946224239+951262312+955376108+956259865+955269729
1161+956519495+961423852+966640999+968301770+967055572+966861681+969587762
1151+972788046+973004435+970161572+967025333+965379137+964928338+965272092
1141+966402960+967756626+969029978+971041458+974250572+977883270+980831787
1131+982361564+982378256+981701514+981764168+983656991+987627093+992797007
1121+997088969+998653037+997670460+996231278+995950603+996052084+996117036
1111+998354339+1002924135+1007063755+1009879222+1012244978+1013352017
1103+1011191763+1007313285+1006299139+1008791172+1009649770+1004850281
1094+996860304+991107388+989765273+989937633+988012455+984642471+983360047
1084+985752111+989451455+991400824+989937270+984256020+975963354+967739450
1074+961879368+960204385+963093029+968372044+971417688+968427563+960432748
1064+951830014+945779367+942830124+942674274+945336430+950094311+954610706
1054+956543323+955548469+952786223+949496492+946601679+944780038+943971394
1044+943379018+943112373+944265617+947009297+950338096+953530518+956249463
1034+957428834+956193098+953949990+952898650+952851175+952252933+952000379
1024+954821228+960219323+963556710+961865035+957354265+954401575+955128937
1014+957361159+957036516+952545583+944886841+935040691+924437001+916057610
1004+911590625+908349337+901756994+891274016+881111025+874770207+871634452
994+869141149+866322054+863664373+860954076+857355850+852927088+848489556
984+844784043+842434313+842006012+843134702+843519762+840578200+834766923
974+829489117+827045647+826100990+823621778+818604570+812714974+807785942
964+804494881+802902933+802558756+802392867+801948841+802477293+805406276
954+810181030+815032772+819470183+824534382+830696307+836622189+840287061
944+841179890+841233291+843185563+848112055+855081354+862862986+870767145
934+878033268+884162172+889936376+896074171+901241666+903940048+905800999
924+909506573+914170774+916082587+913739993+909235150+905111073+902785110
914+903106608+905593622+907136643+904083077+897104646+891358080+890630294
904+893805420+897377097+899456553+900185730+899799218+898309417+897124846
894+898731912+904082049+911260176+917152796+920862240+924362674+928910154
884+932651590+932989175+930002981+926279083+924395936+925294510+927986300
874+930522966+931963478+932996614+934308309+935414683+935644498+935449519
864+936177667+938501512+941557256+943901664+944869121+945597693+947065420
854+947732426+946454356+945229567+945816198+946612988+945823092+944846926
844+945749068+948378506+951352000+953622384+954968067+956456901+959680469
834+964113526+966135831+962648883+955813300+952182174+956555660+967610452
824+979928376+990475278+999005015+1003432448+1000524330+990936962+980776390
814+975755674+977433137+984304644+992990595+999184150+1000268510+997894468
804+996106332+996062304+996349028+998540367+1005565850+1013346091+1011717554
794+998963044+984956046+978123668+978543624+980697407+979230405+973112629
784+965453161+960421076+958867471+957044318+951637393+943591475+935378276
774+928126306+922216390+917715659+915258521+916805171+923594187+933208890
764+940708999+943326886+942973093+944642089+950548255+957514107+960534531
754+958282352+955020985+954658060+956449764+959068195+964502396+973269810
744+979545130+977287749+969834631+965969941+968696808+972396153+970071944
734+962666422+956709575+956895544+963833455+972947949+976585304+972405043
724+967039968+966087207+967045714+964940252+960544873+958356860+960319534
714+966135347+974238114+979785225+978212510+971833108+965844088+961467335
704+958401674+958384438+960454278+959104966+952238176+944680371+941745099
694+943907893+946834275+945880002+942268652+940721881+942969827+947354139
684+950116930+948881799+945126695+941771467+939092558+935781842+933180284
674+932823104+931327437+924528261+912121133+899854978+899728097+913804523
664+931626195+942589969+942040773+935779786+933110433+935605369+938704233
654+938878105+936078544+931825348+926130187+918028267+910509107+909390275
644+915511861+921824799+920111957+911297552+902341266+895449016+889655942
634+885640543+884854215+888273973+892651874+892979057+886811144+875461102
624+864529140+859550879+862021987+868255880+873313790+876881898+881684895
614+887358163+891926084+895235409+894625071+885926420+871671827+859018496
604+853787682+859637483+875207459+889064534
##END=
