##TITLE=<SNM>
##JCAMP-DX=4.24
##DATA TYPE=INFRARED SPECTRUM
##DATE=29/4/2025
##SAMPLING PROCEDURE=Instrument type and / or accessory
##ORIGIN=Admin
##XUNITS=1/CM
##YUNITS=ABSORBANCE
##RESOLUTION=4
##FIRSTX=4497.3318
##LASTX=599.83466
##DELTAX=-1.4281778
##MAXY=2.0793259
##MINY=0.41856423
##XFACTOR=1
##YFACTOR=1.9365232e-09
##NPOINTS=2730
##FIRSTY=0.43441865
##XYDATA=(X++(Y..Y))
4497+224329177+224007288+223775059+223701235+223599356+223320650+223048701
4487+223007257+223140577+223415096+224006642+224835464+225416345+225397585
4477+224797806+223853823+223151626+223406740+224464483+225083868+224405587
4467+223122125+222515128+222875752+223442044+223516976+223132082+222719733
4457+222589152+222767856+223040190+223135744+223099240+223275667+223651573
4447+223692725+223220741+222768117+222710068+222757776+222523946+222062704
4437+221754358+221913841+222543722+223378746+224121002+224519300+224353047
4427+223693910+223001978+222531702+221906561+220758297+219568280+219366908
4417+220630640+222715716+224376793+224815550+224267049+223636491+223620317
4407+224078357+224140439+223139453+221551215+220609249+220780242+221174355
4397+220840477+219967179+219307504+219147683+219317291+219598383+219814376
4387+219966009+220273309+220813976+221312369+221379421+220832783+219931614
4377+219340991+219477282+219874226+219680224+218845677+218253870+218563693
4367+219423772+220036586+220034001+219451119+218370877+217090601+216210608
4357+216142124+216840042+218059315+219434499+220448904+220807251+220718884
4347+220531824+220373295+220306643+220443980+220729472+220934539+221004684
4337+221073491+221110750+220971689+220741676+220528684+220055654+219095650
4327+218154807+217984182+218527420+218973088+218741659+218003650+217326862
4317+217190402+217752077+218688934+219334435+219300963+218937353+218975596
4307+219721499+220731596+221226633+220699755+219348409+218075289+217782871
4297+218498334+219369216+219591165+219203424+218880057+219046665+219466232
4287+219660987+219493626+219229355+219212858+219586363+220199870+220721608
4277+220882907+220665959+220304088+220120352+220228972+220337330+220068396
4267+219500843+219146544+219411122+220199731+220963148+221127586+220674393
4257+220213413+220264244+220652755+220846310+220671561+220456615+220558955
4247+220876843+220908884+220430929+219928059+220047420+220779904+221493397
4237+221681335+221434624+221172508+221066997+220879659+220488702+220379051
4227+221178941+222712623+223932572+224000378+223170802+222370758+222166230
4217+222411063+222752528+223058350+223336656+223616669+223892651+223931987
4207+223480487+222908471+222968090+223638723+224066400+223818550+223344904
4197+223167693+223378254+223881709+224551495+225158246+225428826+225229777
4187+224747944+224414728+224466729+224704560+224854178+224922308+224992007
4177+224964799+224736694+224442876+224395060+224832940+225639463+226329610
4167+226543403+226443801+226398402+226416177+226225638+225887944+225920785
4157+226535600+227083762+226777940+225818768+225188117+225387582+226006305
4147+226469871+226592649+226386844+225923125+225487691+225447186+225824308
4137+226256756+226503790+226773277+227296170+227769277+227657502+226991840
4127+226346754+226016001+225781940+225517116+225389906+225379595+225227807
4117+225051103+225402310+226416869+227408037+227697854+227422718+227081685
4107+226756071+226320777+226089779+226621089+227889885+229084457+229409193
4097+228912355+228303542+228027206+227855305+227466348+227015971+226928650
4087+227389846+228210697+229012326+229426552+229305067+228831606+228364146
4077+228200678+228482831+229141922+229826236+230002908+229343387+228087349
4067+226960722+226625691+227144674+227964678+228422442+228287799+227866400
4057+227623768+227743992+228042227+228228349+228193922+228073237+228061910
4047+228163220+228174685+228013110+227923788+228158080+228517535+228556347
4037+228251664+228034332+228080531+228072529+227851396+227831882+228414301
4027+229333568+229984779+230202127+230233860+230008248+229167945+227982761
4017+227377765+227727263+228366055+228528461+228129886+227512039+227056400
4007+227118004+227762967+228563934+229053154+229243185+229439649+229709044
3997+229826020+229696547+229583742+229836978+230483772+231121717+231224704
3987+230682144+230011526+229811262+230020729+230020206+229583973+229366256
3977+230072023+231412888+232294589+231983242+230805738+229683343+229181550
3967+229152217+229277304+229636266+230391219+231248727+231759093+231868036
3957+231774482+231652089+231771574+232387481+233332387+234121351+234454336
3947+234331219+233908713+233559476+233719097+234362875+234932644+235011331
3937+234784827+234710772+234994172+235434915+235593612+235163642+234354565
3927+233752416+233681593+233805448+233653907+233557953+234458152+236598677
3917+238703266+238966613+237102471+234663203+233309641+233433128+234384036
3907+235765145+237988096+241183670+244196185+245721833+245773942+244834653
3897+242932822+240513284+238824783+238751590+239579243+239614762+238814595
3887+238977524+240910628+243153801+244249602+244638636+244600177+243383229
3878+241524735+240874278+242098813+244173331+246145786+247676282+248143310
3868+247543470+247099557+247401024+247404794+246096185+244092367+242697176
3858+242834682+245440065+251173954+257091441+257128391+251742600+245739593
3848+241878188+240881865+242323640+245082611+248222274+251724948+255503203
3838+257859613+257051536+254088760+251203086+249252270+247842659+246856801
3828+246710738+247383479+248602628+250764791+253880847+255946239+255635415
3818+254743357+254501109+253504802+250849787+248064793+247109468+248969116
3808+252927553+256424794+258115496+259624970+261806600+262523170+260648101
3798+258154247+256478288+255404971+254804346+255086884+256202230+257646144
3788+259315208+261433894+263800785+266071890+268651064+272101444+275783560
3778+278512291+280457506+282943696+287171528+293756062+302027542+309648597
3768+314869335+318378657+321588959+325323523+330305168+336698778+343140589
3758+348144334+352361731+357726762+365830989+377261616+389603524+398078332
3748+402733502+408612853+418238681+426965755+430129488+430864157+433806618
3738+440004873+447389266+453227681+456202676+456485168+455132883+453736339
3728+453602603+454567285+454932788+453512605+450914809+448083060+445146232
3718+442131162+439761625+439264818+441558146+445877699+449355196+450087125
3708+449141619+448508798+449646275+453004809+457534585+461398914+463662109
3698+464341406+463791289+463243543+464763174+469638631+476731391+482174724
3688+482593444+479381142+475904631+473635003+472538340+472256279+472763366
3678+474582017+477380216+478923917+478522464+478791935+480849187+481179171
3668+476746288+470528365+467131572+467469251+468900545+469376484+469898715
3658+471700283+473337275+473097044+472611902+474756166+479764589+483891958
3648+483427099+479871455+476599471+475015973+475015173+476040921+477402193
3638+478479557+479417246+481183511+484378946+488700008+493532005+497617914
3628+498838001+497199840+495353180+495402734+497781936+501339027+503956029
3618+504774387+505365163+507083320+509195727+510814282+513050453+516845837
3608+520002183+519807474+517374932+515847821+516413082+518042410+519760874
3598+521638898+523620094+524792782+524614324+524186924+525586024+529981602
3588+535893610+539693796+539639501+537654489+536199802+535810999+535423365
3578+534156616+532510545+531584152+531719950+532521810+533919986+536527846
3568+540444808+544048376+545463665+544914934+543870411+543012656+542228217
3558+541696475+541858374+542700924+543849111+544882062+545476223+545616392
3548+545370097+544619946+543576592+542939832+542743953+542185618+541310812
3538+541301886+542239174+542412892+541128414+539985706+540209286+540683347
3528+539834272+537953108+536292632+535347464+534901719+534654809+534426858
3518+534230056+534194475+534148922+533607700+532717750+532388597+532905072
3508+533545895+534062063+535334906+537962096+540907481+542435484+542333728
3498+541983953+542199284+542215536+541218659+540080321+540478481+542716437
3488+545232883+546223789+545392996+543737137+541930520+539764649+537171378
3478+534989810+534027713+533888099+533577290+532913567+532480627+532435320
3468+532422147+532547541+533268760+534216390+534491002+534339322+535052599
3458+536939241+538427108+537676465+534711258+531388827+529462726+529143915
3448+529285315+528771918+527901174+527868240+528917996+529852329+529419758
3438+527431360+524576281+522223334+521763554+523076164+524265903+523685284
3428+521879284+520830205+521559673+522902569+522932733+521461672+520069651
3418+519866201+520649224+521875590+523177181+524010005+523703875+522257006
3408+520561072+519421564+518662857+517579737+516144748+515143532+515051286
3398+515494045+515950285+516285717+516482950+516353185+515791157+515391704
3388+516376362+519025374+521614583+522285138+521484017+520870095+520863878
3378+520891948+521003369+521822158+523423600+525117933+526125029+526382528
3368+526584439+527160995+527818070+528355106+529070291+529999700+530659175
3358+530839234+530918398+531197196+531360018+530964505+530452401+530931079
3348+532507159+533787020+533647282+532333933+530529472+528993713+529042898
3338+531597264+535723401+539125611+539849169+537362886+532855949+528799373
3328+527408830+528910424+531424470+532813904+532528643+531576273+531152812
3318+531505727+531945254+531828231+531355093+531414497+532640187+534668167
3308+536417164+537119731+537063528+536942935+536533264+535074514+533022649
3298+531958981+532413959+533207694+533558638+534358159+536419504+538634191
3288+538980026+537402530+536206081+537013296+538830685+539852801+539874162
3278+539746305+539843875+540186386+540873193+541795954+542704063+543443934
3268+543532763+542226555+539788780+538027471+538719326+541553290+544169277
3258+544624009+543605155+543395426+544760668+546031172+545537905+543790446
3248+542306211+541442178+540514923+539186677+537853384+537134874+537452146
3238+538672726+540109930+541242236+542033077+542180386+540896955+538098386
3228+535080485+533382643+533405789+534427350+535600838+536519598+536841302
3218+535953076+533578091+530546093+528441410+528443811+530361971+532559545
3208+533291536+532262895+530431717+528732459+527494457+526350087+524734363
3198+523033873+522595824+523893783+525704523+526903066+527748817+528477730
3188+528219369+526468402+524253407+522695179+521555363+520135765+518675907
3178+517910859+517912768+518213049+518585293+518847963+518300032+516339365
3168+513422143+510592641+508406487+506922714+506189030+505944674+505382030
3158+504035532+502471425+501519055+501331394+501630383+502204354+502698175
3148+502539970+501657161+500829416+500705253+500857179+500473454+499641061
3138+499054441+498746556+498160766+497256997+496498012+495886829+495109562
3128+494484036+494636455+495406520+495976982+495875164+495108546+493631545
3118+491536774+489584818+488754733+489107217+489538711+488935438+487296938
3108+485465883+484214308+483981125+484879847+486313235+487116479+486741866
3098+485814427+485128358+484676950+484006118+482991327+481938524+481193052
3088+480781750+480496919+480253886+480187557+480498889+481244299+482062195
3078+482247578+481520635+480388330+479316936+478264472+477326630+476831885
3068+476668540+476522338+476582419+477001263+477108313+476175087+474534310
3058+473152600+472428088+471846362+470758378+469350506+468526209+468782045
3048+469704283+470676844+471396862+471588524+471119511+470514391+470452187
3038+470730431+470582783+469891236+469172941+468584597+467808253+466772225
3028+465765129+464944309+464331895+464044602+463982551+463588639+462436481
3018+460840118+459567274+459235998+459902829+460842180+461030056+460153003
3008+458755688+457469949+456628384+456238288+455801254+454740387+453367357
2998+452677226+452962334+453429808+453334393+452756329+452183374+451951914
2988+452080263+452286084+452225880+451821472+451185420+450312121+449205701
2978+448176906+447609553+447465660+447284340+446655644+445613645+444723510
2968+444644838+445261500+445549101+444856138+443882191+443700686+444260006
2958+444522706+443886716+442853304+442166620+441803302+441217789+440277792
2948+439375254+438727690+438158275+437570207+437189161+437303536+437935156
2938+438725812+439198396+439192425+438833847+438077910+436792848+435349149
2928+434406751+434014162+433570696+432775176+432025241+431792335+432103389
2918+432674528+433186971+433386174+433119042+432393514+431412335+430507395
2908+429955062+429792333+429816494+429802551+429691654+429461025+428914694
2898+427955122+427009923+426602037+426515117+426062878+425163479+424435120
2888+424228499+424235301+424038930+423528487+422781137+421946067+421288408
2878+421124970+421575762+422316433+422710930+422346935+421376128+420286514
2868+419454736+418885198+418278848+417461352+416701044+416357610+416376508
2858+416489806+416677744+416975902+417107699+416832717+416388204+416129936
2848+415977394+415583605+414871620+414119007+413623831+413445066+413384369
2838+413161004+412689867+412154524+411683510+411086363+410212726+409473009
2828+409491230+410173175+410621104+410183947+409148473+408114200+407191408
2818+406197702+405272356+404823718+404924674+405128524+404969242+404319862
2808+403202916+401758294+400545470+400252606+400845321+401526711+401732039
2798+401662663+401730161+402015392+402388190+402711310+402763235+402263350
2788+401231169+400154943+399528925+399307007+399031041+398451868+397741084
2778+397080224+396430352+395797900+395324024+394940607+394317759+393424516
2768+392823275+393030480+393748590+394110277+393682538+392849345+392159798
2758+391719132+391298781+390687752+389870410+389056116+388461831+388021442
2748+387534361+387035861+386686024+386427910+386099896+385722881+385405117
2738+385124349+384762570+384267087+383722756+383269686+382952876+382691899
2728+382394295+382061141+381813922+381789853+381927867+381975205+381800995
2718+381474305+380992333+380263358+379395262+378702206+378387427+378355448
2708+378327223+378099919+377670149+377104396+376464743+375949376+375832630
2698+376085881+376297950+376082434+375427976+374680811+374264060+374307490
2688+374482623+374306043+373668821+373000635+372878073+373465248+374295917
2678+374626024+374087388+372995187+371971348+371360719+371103621+371003650
2668+370855633+370436266+369706860+368971391+368609674+368711645+369038244
2658+369246834+369181182+368976716+368802229+368614722+368338047+368034411
2648+367647331+366929283+365923573+365171237+365130577+365624707+366097906
2638+366255126+366203048+366059740+365761305+365288382+364768583+364279717
2628+363805994+363386904+363067016+362769043+362412712+362025725+361643601
2618+361282622+361026201+360952977+361005948+361045653+360999300+360940789
2608+361026693+361262739+361375453+361120354+360670855+360440842+360574947
2598+360832446+360887664+360574147+359975491+359416695+359193822+359234574
2588+359247994+359210443+359348057+359618883+359640675+359225217+358636411
2578+358236558+358098329+358003006+357759573+357504013+357526544+357791029
2568+357958407+357933722+357962870+358150623+358318893+358342131+358264075
2558+358112518+357846986+357463662+357048573+356745214+356634101+356616618
2548+356530682+356397378+356403010+356622835+356913607+357094742+357084400
2538+356864052+356519386+356325939+356551520+357120597+357661418+357905436
2528+357873764+357696691+357458737+357253347+357196621+357307211+357510754
2518+357781180+358101038+358299040+358192421+357925442+357850956+358009900
2508+358042372+357706602+357206717+356890584+356861528+357017763+357249038
2498+357449349+357534300+357571020+357713189+357956991+358157733+358257765
2488+358282142+358192329+357940309+357576806+357202777+356900956+356719390
2478+356660632+356730101+356978828+357408136+357909283+358368786+358688336
2468+358702463+358336375+357849110+357628515+357725193+357843385+357774562
2458+357576283+357361105+357189604+357144420+357255256+357366246+357280248
2448+357026812+356865560+357036323+357500720+357897895+357864561+357484068
2438+357280926+357641227+358329604+358736874+358615604+358341515+358333359
2428+358534378+358669160+358682180+358660911+358630224+358642782+358796740
2418+359042019+359204410+359256674+359360215+359619345+359931908+360091621
2408+360004608+359846588+359984879+360615452+361463112+362009874+362084482
2398+362007781+362079096+362255430+362500925+363076773+364223606+365901996
2388+368177503+371627729+377070200+385011882+395528675+408576996+424304462
2378+443085841+465235234+490484925+517561207+544336962+568720741+589908654
2368+609011398+627511794+644103325+654220634+654764626+648173198+638692340
2358+626514855+608804008+584544638+555883596+527285282+504540342+492115361
2348+491810524+503242475+523170102+544798465+561469283+571264889+576031603
2338+578092147+578607391+577917075+576209014+573641967+570554997+567242539
2328+563140163+557142835+549070003+539917868+530671795+521579802+512413570
2318+502941916+493205468+483556218+474462194+466183388+458593974+451360830
2308+444235783+437101317+429937303+422973046+416708246+411555130+407544107
2298+404412231+401796583+399369089+396998382+394776800+392811056+391099824
2288+389626885+388412215+387455566+386725083+386180107+385776468+385497024
2278+385374923+385448608+385687639+385958312+386118086+386211347+386423755
2268+386733578+386856787+386698428+386555428+386684147+386973564+387193727
2258+387286404+387309642+387331895+387453135+387765051+388241421+388741552
2248+389109887+389262152+389263844+389339592+389677301+390160689+390391995
2238+390069336+389290838+388423449+387749908+387315798+386993663+386551765
2228+385775945+384684053+383532664+382544744+381785359+381299663+381107632
2218+381052876+380926466+380761858+380805195+381205110+381877051+382638036
2208+383376983+384104849+384861433+385594378+386222951+386850016+387740735
2198+388962301+390216215+391235591+392187469+393404140+394849255+396151338
2188+397068774+397674047+398198155+398896535+399912095+401115901+402219797
2178+403066041+403645305+403923580+403884983+403651430+403356781+403004113
2168+402576682+402160301+401865836+401702829+401525357+401094755+400318596
2158+399411779+398673940+398174147+397765738+397279550+396632509+395866846
2148+395064771+394234040+393499155+393322514+394129052+395760811+397687959
2138+399663892+401807356+404183203+406692139+409329578+412291030+415779915
2128+419795739+424124157+428502715+432789212+437008887+441301693+445822482
2118+450624376+455635446+460792256+466123922+471566763+476837117+481843694
2108+487199553+493974948+502925849+514129018+527172445+541416015+556052328
2098+570003003+582132965+592069846+600464444+607841850+613727327+617381680
2088+618636241+617630930+614487696+609428703+602803233+594821138+585218026
2078+573549444+560193116+546506527+533618781+521778820+510997696+501463406
2068+493218272+486054474+479752739+474151416+469167678+464865207+461287124
2058+458221669+455333472+452514312+450020088+448254347+447353131+446999109
2048+446783655+446707353+447162331+448480112+450668698+453648218+457693806
2038+463516000+471837312+482950637+496610756+512104978+528412170+544579625
2028+560085512+574762822+588434268+600754692+611447634+620644338+628786669
2018+636088727+642261805+646827777+649489440+650210596+649144528+646559382
2008+642799518+638185715+632847616+626661734+619498366+611510855+602983845
1998+594009183+584612291+575082495+565803673+556860959+548201599+540089555
1988+533004058+527176939+522487050+518669074+515422514+512453029+509685701
1978+507411180+506012634+505529093+505602871+505832699+506094753+506547731
1968+507340049+508296543+509048541+509528050+510052035+510917454+512220184
1958+513958625+515978941+517983314+519881713+521885686+524096433+526346455
1948+528534979+530833755+533502189+536536772+539468307+541735811+543394133
1938+545082496+547281978+549927635+552678804+555327662+557872179+560294072
1928+562507712+564639480+567008555+569642147+572275124+574905268+577596910
1918+579742590+580535708+580273347+580170298+581059694+582866864+584974439
1908+586854987+588432976+589854298+591025939+591645771+591755406+592017583
1898+593147796+595076852+596942072+598139690+598999107+599978256+600817481
1888+601076150+600958635+600944784+601145649+601409920+601615032+601689641
1878+601648581+601541531+601286064+600935058+601051342+602213872+603945080
1868+604612250+603145497+600291403+597502253+595536385+594262803+593236686
1858+592231807+591214369+590091728+588838830+587734657+587098389+586962099
1848+587360936+588447011+589566758+588893925+585667649+581592666+578454295
1838+576475069+575038973+573837415+573177570+573422326+574204364+574366571
1828+573283512+571620942+569979180+567998784+565430013+562984728+561425762
1818+560592692+559864148+559255951+559404245+560485518+561675135+561919152
1808+561088483+560023584+559666176+560382593+561759654+562868321+563077189
1798+562775307+563079590+564903750+568117592+571017424+571581237+570180599
1788+568942413+569017329+570082782+571590840+573577392+576029140+578345645
1778+580113726+581988179+585194880+589978276+594320299+595576029+594105829
1768+592281669+591480486+592014875+593840143+596170314+597728111+598508179
1758+599620109+601226599+602700861+604443087+607671518+612391632+616550888
1748+618217459+617808896+617093279+617486145+619452936+622403800+625013015
1738+626857551+629421582+633924149+638274543+638826599+636365987+634035754
1728+633233033+633952343+635613189+637390011+639169849+642041795+646955634
1718+652940158+657090303+657880774+656792606+655659131+655383165+656431628
1708+659175902+663304317+667261291+670084976+673223901+678418569+684282685
1698+687768183+688494203+687192551+684748497+683142377+683744172+686167049
1688+689635804+694663279+701561269+707066499+707397314+704635188+702682309
1678+703547205+707595101+713167122+717523611+720214637+722738224+725079290
1668+725761419+725316844+726025874+728822411+732361158+734708257+735845610
1658+737433325+741249946+748492724+757734489+762366574+760198918+757234757
1648+756002112+754390082+750224609+744947945+740888352+738852431+739028303
1638+741359643+744340671+744442304+740539809+736215946+734192705+734177808
1628+734810013+735800057+737794057+740250546+741375833+741049020+741425696
1618+743941095+747164786+748169420+746869983+745325975+744318633+743348288
1608+742146052+741153238+740815960+741165119+742005945+743098545+744287054
1598+745785939+748125098+751260514+754000909+755258486+755613986+756600152
1588+758859653+761914059+765144582+768053833+770158392+771457274+772603554
1578+774216815+775986311+776568777+775710468+775055548+775536258+775614745
1568+773086664+768697549+764858951+762918015+763691127+768495453+776971369
1558+782535018+780349756+775151579+770882873+767885963+765535232+763886205
1548+764036593+767153911+773125507+780463393+787594935+792729830+792500402
1538+787162857+782418365+781944673+785212378+788925335+791115030+793408204
1528+797582479+803076937+808222666+812637451+816981628+821349751+825318422
1518+828480924+830335802+831183769+832660740+836101116+841523243+848632685
1508+857252033+865184203+868718456+868874137+869039606+870373700+872874265
1498+876410611+880033816+882385532+884124926+887736004+894564248+902274316
1488+906104418+905102247+903288429+904151724+907883087+912880337+918172206
1478+923601904+928699741+933343954+938657737+944974000+949748532+951051908
1468+950500776+950270547+950232011+948765752+946315727+945729568+949383059
1458+957176724+964217959+963976404+957508216+950578216+946867229+946904287
1448+948426134+948217020+945404786+942195930+941236850+943345534+947919262
1438+953878239+958561726+958829198+956047742+954260271+954944246+956841046
1428+958670008+960350244+961481811+960750682+957958269+954986660+953619263
1418+953078226+951264223+948362606+946365097+946516284+948635617+951868296
1408+955206608+957347487+956933629+954124904+951413133+951229750+953165885
1398+954554212+954114747+953279399+953206145+953113068+952362117+951711568
1388+951892981+952592099+953419568+955154099+958707066+963436168+967587790
1378+970319629+972407260+974846204+977743512+980919618+984427586+987740229
1368+989714530+990316818+991109259+992957119+994702547+995224747+995224008
1358+995796501+997162051+999026225+1000908250+1002909575+1006330438+1011688975
1348+1016508567+1017647890+1015915144+1015153728+1017278047+1020904576
1340+1023878032+1025393847+1026209126+1027462579+1029605365+1032291344
1331+1034564080+1035833291+1036720225+1038023663+1039323038+1039567917
1322+1039124450+1039947733+1043291832+1048162456+1052572132+1055740912
1314+1057987794+1059321396+1059655658+1060038182+1062099650+1065850404
1305+1069456496+1071892239+1073466780+1073741823+1071392015+1066394334
1297+1061772652+1060376630+1060535081+1057677540+1050873243+1044612752
1288+1042354666+1042321425+1040897702+1037238424+1032746014+1028675833
1280+1025774770+1024099704+1022585552+1020131711+1017053482+1014270919
1271+1011858445+1009399863+1006801729+1003777734+999510505+993810811+987930690
1261+983418459+980395633+977663548+974223171+969968685+965140351+959763777
1251+953825114+947539508+941266029+935325827+929999732+925149052+919734866
1241+912450044+903180209+893397900+884821952+877882595+871832758+866269170
1231+861655737+858102770+854878402+851691461+849299917+847943724+846341851
1221+843316747+839424347+836156827+834588811+835299133+838396506+843034748
1211+847594318+850680303+851878106+852048623+853032757+856093811+860519184
1201+864773916+868613807+872492849+876038552+878967501+882011010+885698297
1191+889620122+893123904+895733180+897304028+898484164+900334795+903224408
1181+906682206+910229878+914023108+918780403+924805310+931400555+937947476
1171+944811178+952298774+959660298+966095799+971670344+976754884+981515134
1161+985727576+988905406+990617653+990250027+988096036+986505367+988135495
1151+993070510+998208667+1000673959+1000572695+999447284+997738115+995203940
1141+992940745+992886820+995514625+999735254+1003979584+1006839834+1008536938
1131+1011707873+1017965039+1023781694+1023545371+1017602706+1012584342
1123+1013716031+1020163229+1026522828+1028261730+1026581986+1026202971
1114+1028837794+1031633592+1031172950+1027212775+1022404755+1020175048
1105+1021777536+1024720090+1026484231+1028223256+1031093848+1032768175
1097+1030980088+1027235490+1024669243+1024624367+1027466088+1032965654
1088+1038663993+1041560440+1041449635+1039590571+1035518974+1028418273
1080+1020392411+1015548625+1015002048+1014993184+1011694699+1005946437
1071+1000972702+997003723+992359264+988352242+987946080+990677858+992113954
1061+989116059+983557211+980544173+983635822+990727166+995558886+995664766
1051+994670721+994531783+991991391+985326831+979500574+979662965+984274921
1041+987666174+986826086+983762016+981862816+982768340+986380588+991471530
1031+995450789+995077930+989974984+983560474+979530245+978937376+979934376
1021+980095597+979630585+981286999+985959036+989885786+988735505+983839949
1011+980259589+979499466+977628028+971260919+962688972+956103576+951576263
1001+946066046+939166887+933392708+929441274+925364691+920014649+913801497
991+906775590+898961734+891768880+886649190+883155627+880162226+877793459
981+876324429+874847273+872704302+870671397+869556451+868952501+867838417
971+865546474+861991907+857533539+852956856+849521958+848153330+848076136
961+847403733+845425431+843169623+841689266+841294676+842442925+845736116
951+850584949+855301000+859438649+864514755+871289074+877905618+882008917
941+883729659+885048795+887101521+889987257+894234664+900508389+908102728
931+915341935+921907755+929011473+936867126+943803467+947702761+946887297
921+941277417+934278226+930697496+931754885+934351480+935544113+935428629
911+934882299+933653223+931696959+929991236+929408525+930014936+931530135
901+933593081+935831160+937616723+938077857+937193017+936360070+937179782
891+939968870+943898574+948281595+952818388+956504444+958126816+958259475
881+958315739+958581179+959545430+962370222+965845379+966282505+962429626
871+957465433+954951510+955329171+956422387+956656001+957731919+962481704
861+969964068+975244856+976030649+976233977+979685741+984198650+984677328
851+980852581+978186055+980753841+987152900+993084730+995222715+992381425
841+986526358+981852782+980195076+979364591+977584753+977401493+982258821
831+991020799+999112960+1002890246+1002334004+1000478880+1001916023+1009857489
821+1021054594+1028143969+1028198571+1024929696+1023124003+1022980449
813+1021178635+1015761679+1008881542+1005318787+1007840589+1014443713
804+1020677980+1024728400+1027092120+1026286321+1020288685+1011622615
795+1006397352+1008651867+1015932627+1020814640+1019109964+1014530326
787+1012015603+1011081701+1007893960+1000676913+991153150+981665091+974145177
777+970794060+972620806+977514515+981161727+980595513+976326991+971201884
767+968582759+970340559+974719332+977344059+976079711+973505154+973071598
757+975986142+982618384+992244950+1000025625+1000107929+993996964+989106948
747+989899144+995562641+1002911422+1007624396+1006213231+1000429818+996246062
737+996714953+999215517+1000568878+1002493379+1007846560+1013386140+1012495205
727+1005996791+1001314474+1002751617+1008567163+1013507348+1014029364
718+1011874019+1010230163+1010102737+1010738820+1010192859+1007682138
710+1006122863+1009103152+1015388450+1019593013+1018576130+1013058280
701+1004920812+996974914+991663900+990539290+992134576+992795405+990828922
691+985942292+980108340+977860411+980443772+983623633+983097001+978434998
681+971130353+965444388+967319703+974953869+979929759+980385476+981750965
671+983935303+981731697+976699481+975907101+976763071+972505999+965657195
661+962336611+961327300+955381003+943142760+931353339+925394855+927403567
651+938606644+954021055+964060308+967563598+968986582+968742441+965104216
641+958823165+951290878+942700709+933555899+925849156+924290066+931774830
631+942489625+947569795+946581598+943882138+935150509+913599340+886725707
621+869169556+869217079+885489122+906815849+917818861+914146532+907351776
611+911306412+929248719+951322580+964124206+963063062+956636364+953825238
601+953926501+949218391
##END=
