##TITLE=<SNM>
##JCAMP-DX=4.24
##DATA TYPE=INFRARED SPECTRUM
##DATE=29/4/2025
##SAMPLING PROCEDURE=Instrument type and / or accessory
##ORIGIN=Admin
##XUNITS=1/CM
##YUNITS=ABSORBANCE
##RESOLUTION=4
##FIRSTX=4497.3318
##LASTX=599.83466
##DELTAX=-1.4281778
##MAXY=2.1992002
##MINY=0.51780391
##XFACTOR=1
##YFACTOR=2.0481648e-09
##NPOINTS=2730
##FIRSTY=0.53259641
##XYDATA=(X++(Y..Y))
4497+260035922+259637202+259311731+259177253+258997610+258525787+258142201
4487+258430713+259283794+259961509+259965322+259517683+259114482+258870058
4477+258555500+258146682+257923416+258054052+258543772+259493907+260841800
4467+262006704+262324958+261720956+260731709+260137835+260563939+261911688
4457+263022026+262407344+259800171+256802048+255540091+256699960+259067803
4447+260921626+261540905+261264063+260726995+260343787+260125700+259920418
4437+259880578+260299174+260924361+261004681+260177879+259087708+258841946
4427+259766762+261041349+261695405+261372612+260080942+258210735+256864645
4417+257135580+258931608+261027002+262086180+261603328+260319545+259542128
4407+259763939+260369309+260697282+260673972+260397857+259873186+259102725
4397+258070902+256898927+256077945+256072707+256651884+257129236+257339232
4387+257787366+258668006+259385911+259358818+258749956+258103263+257619072
4377+257003663+256057748+255347032+255723954+257029738+258140804+258555005
4367+258800215+259118876+259072110+258402601+257178098+255554205+254250662
4357+254420004+256179422+258071950+258778709+258592604+258362237+257919342
4347+256749985+255430931+254904864+254964027+254821925+254536846+254608349
4337+254938563+255240840+255594278+255935900+255926704+255610546+255466435
4327+255885991+256907221+258048989+258403998+257477668+255774562+254230931
4317+253611506+254426173+256439240+258307672+258715529+257711586+256203692
4307+254755981+253531303+252813602+252901779+253744296+255070189+256530909
4297+257523503+257447694+256530677+255892918+256271528+257061924+257152488
4287+256280899+255012888+253931419+253417283+253733733+254759822+255876679
4277+256479778+256449542+255999895+255351950+254729265+254418578+254597668
4267+255157057+255861633+256670015+257594365+258245540+258061502+257144223
4257+256299174+256132539+256604245+257390044+258240040+259042019+259798687
4247+260358628+260166151+258866217+257142041+256224063+256589258+257693659
4237+258734940+259161277+258838716+258220717+257958396+258211870+258787235
4227+259608770+260389505+260401087+259398774+258214023+257752706+257955689
4217+258240622+258473201+258962892+259785911+260453557+260312357+259198119
4207+257654052+256589433+256549738+257175246+257669098+257772932+257842863
4197+258168479+258693528+259147657+259134969+258531870+257968930+258263059
4187+259292263+260012437+259668719+258601917+257790567+257901095+258807053
4177+259877173+260694139+261325351+261785678+261681000+260807286+259707308
4167+259156097+259348312+259894372+260432750+261011317+261818068+262590276
4157+262724667+262245191+261994598+262463656+263042310+262819741+261773397
4147+260828297+260816133+261528887+261987410+261596257+260642834+259769789
4137+259527257+260192226+261355645+262010633+261654023+260940396+260752110
4127+260974969+260706566+259561422+258269956+257844900+258516912+259582230
4117+260115544+259924027+259708676+259993230+260334620+260180120+259832677
4107+259753143+259676053+259232634+258742157+258660789+258868341+259056540
4097+259288829+259727446+260195835+260460076+260721728+261333004+262107017
4087+262435282+262129512+261644740+261416177+261394030+261235136+260686224
4077+259825518+259067308+258838949+259197741+259810735+260226479+260108472
4067+259487941+258879312+258822594+259335391+260077130+260808974+261336147
4057+261323983+260650080+259732888+259185344+259223321+259452466+259287519
4047+258832837+259086311+260686980+262759210+263785154+263403226+262493135
4037+261833725+261553099+261506013+261407592+260895522+260074365+259680214
4027+260221211+261287868+262097471+262372917+262253746+261820454+261235311
4017+260859552+260784965+260709127+260548632+260647111+261130167+261589854
4007+261697035+261734023+262230262+263204754+263975914+263934998+263383757
3997+263177049+263635485+264193914+264090138+263156009+261942564+261267351
3987+261661182+263081684+264875412+266038482+266004870+265331695+265155951
3977+265855027+266694663+266844012+266282440+265547831+264916533+264199210
3967+263394787+263112328+263930894+265519748+266767096+266847766+266029316
3957+265311498+265338766+265883342+266535274+267525569+269170967+270719370
3947+270907627+269873884+269141662+269492713+270071571+269786783+268643619
3937+267416409+266960912+267909505+270158991+272518395+273614735+273359777
3927+272832429+272843167+273147394+273042600+272526194+272417645+273273986
3917+274496103+274797652+273679544+271970181+270771403+270369453+270407169
3907+270958846+272809875+276298504+280255870+282788718+282920955+280951104
3897+278019973+275628704+274988034+276350013+278258140+278356910+276585328
3887+275382796+276267423+278286368+280198132+282059871+283064076+281642847
3878+279001130+278085190+279611883+281830056+283440649+284544702+285022315
3868+284872704+285100453+286008390+286031177+283956444+281175593+279878656
3858+281049176+284985967+291607167+297455374+296473111+290027975+283668863
3848+280011708+279096495+279957230+281787044+284390988+287666564+290762991
3838+292197491+291540147+290054108+288888099+288091853+287492071+287438234
3828+287998350+288440023+288799398+290614778+294205930+296596298+295807153
3818+294116385+293141631+291433693+288251533+285401449+284778183+286804781
3808+290152791+292733104+294395701+296749051+299720197+301019520+300048229
3798+298563180+297252012+295654195+294127473+293799412+295206061+297942183
3788+301336377+304874915+307975271+310443077+313240342+317347057+321819810
3778+324761185+326411792+329033691+334381933+342474068+351478156+358859429
3768+364078170+368654350+373336867+377678751+381646448+385397310+388224694
3758+389314283+389286870+390178365+394388710+402994253+412847988+418388679
3748+419594063+420998617+425030774+428981185+429660879+429207914+431739744
3738+439004873+448300354+454547803+456510059+456936599+457688407+459324027
3728+462586624+467519938+472242207+474628326+474497398+472998672+471212597
3718+469664252+468711207+468997450+471021138+473696176+474075339+470377791
3708+464210546+459046486+457786537+460714700+464908050+466995529+466979523
3698+467079167+468340076+470352502+472859363+476437798+481297019+485516474
3688+486205771+483499304+480108660+477934662+477445088+478783000+482689817
3678+489628892+496556967+497420409+493135156+491260031+493847502+494430638
3668+488191977+479651388+474628850+474090850+475622229+477084695+478414575
3658+480319530+482391730+483530879+484044200+485563211+488798510+491189372
3648+488912414+482816583+476727125+472737777+470713943+470029301+470866202
3638+473368173+476192473+477473346+477576801+479242571+484003021+488535899
3628+487147496+480814197+474854590+472247300+473981662+479626303+486021064
3618+488889482+487980177+486417659+485893309+486025313+486699420+488385386
3608+490493498+491751148+492352384+493843195+496597069+498687138+498501413
3598+497475527+498072049+500250296+501896916+502308644+503011503+505268848
3588+508406163+510739404+511663201+511700218+511341455+510972681+511064991
3578+511882743+513331764+514801273+514925304+513246555+512122481+514508687
3568+519603019+522651342+521023288+517242772+514435293+513203369+512585428
3558+511761739+510940320+511146825+513009029+516033023+519385223+522658268
3548+525051342+525021076+522450018+519982852+520359774+523491269+526674739
3538+527046307+523888446+518798712+514030026+511018603+510121113+511065981
3528+513367501+516283994+518542211+518789632+516995351+514799352+513553110
3518+512727268+511291168+509918218+510078451+511366192+511792354+510879847
3508+510153125+510278145+510562117+511067086+512169626+512585660+510958829
3498+508472980+507211838+507277316+507638116+508392252+510114944+512176610
3488+513355104+513293409+512199775+510130426+507535563+505458647+504664933
3478+505047502+505980146+506777760+506648258+505096916+502932987+501922525
3468+502735970+504080576+504283005+503012260+501063682+499193271+497501776
3458+495736073+494114479+493241784+492923821+492157230+490984207+490864018
3448+492225444+493330136+492679485+490656058+488172828+485915746+484672239
3438+484490297+484199107+483220570+482633971+483264688+484461399+485551715
3428+486696364+487759791+487860278+486756983+485490602+484848944+484393971
3418+483566383+482799733+482846150+483436445+483339973+481962774+480370079
3408+480158307+481588180+483343494+484025837+483513622+482707278+482472254
3398+483046164+484042745+484717987+484489657+483461763+482280330+481575666
3388+481582156+481886645+481748413+481137136+480830814+481100497+481473636
3378+482182258+484201668+487142374+488999194+488953621+488530544+489234800
3368+490773105+492083545+492991104+494202133+496169277+498310856+499488302
3358+499300190+498367488+497395090+496645669+496247095+496339929+496923181
3348+497836967+498924665+499957360+500313504+499301063+497256276+495602613
3338+495299783+495889729+496338066+496215782+495715993+495115745+494660889
3328+494619390+494985196+495063304+493901922+491618736+489677841+489225429
3318+489624876+489256393+487696670+486408842+486948558+489068863+491017266
3308+491343552+490013556+488096495+486940438+487202352+488247212+488911250
3298+488841988+488622563+488796531+489227001+489313490+488703640+487835542
3288+487655084+488745080+490839863+493129976+494903013+495906782+496209030
3278+495919179+495250893+494703261+494824672+495715178+496920096+497752573
3268+497612828+496292493+494216218+492306113+491524738+492369612+494373017
3258+496035352+495945371+494191889+492186680+491253279+491776349+493226709
3248+494422431+494315280+492991569+491282323+489519587+487727546+486682890
3238+487357696+489264076+490523297+489884869+488029940+486631526+486567852
3228+487387670+488135258+488264789+487809496+486951730+485819304+484831366
3218+484642934+485284098+485723793+484864804+482825895+480812771+479926398
3208+480171316+480530457+480211738+479612771+479577965+479975928+479786448
3198+478535987+476856947+475560010+474854270+474583422+474495332+474085379
3188+472847169+471053761+469787060+469818548+470858199+472008988+472519923
3178+472123444+471076460+469807199+468363736+466521087+464483605+463004696
3168+462508603+462416642+461847185+460816468+460099087+460034627+460169542
3158+460045308+459663991+459163271+458683445+458480055+458593580+458562907
3148+457903816+456647651+455130473+453604682+452284610+451400128+450955981
3138+450655334+450210110+449580732+448948211+448611100+448746596+449131638
3128+449312271+449104661+448647622+448060820+447407811+446750292+445939350
3118+444702711+443175582+441963767+441454607+441468255+441693268+441984603
3108+442075109+441492322+440175305+438871268+438459220+438917132+439299147
3098+438860151+437925207+437413778+437639460+437864938+437228547+435912898
3088+434916870+434826655+435395328+436146088+436730620+436821533+436344153
3078+435738958+435365208+434904007+433946161+432779569+432021475+431827281
3068+431846896+431709275+431382872+431146306+431196739+431389769+431505913
3058+431565746+431619846+431466656+430860181+429848089+428759897+427961847
3048+427594062+427478937+427331596+427018959+426593553+426197947+425953349
3038+425808453+425470788+424656063+423549595+422808730+422837424+423296994
3028+423621301+423570519+422977082+421658144+419971422+418756405+418370258
3018+418336616+418136573+417816427+417566213+417207828+416518094+415773648
3008+415506904+415754732+416010156+415894216+415408134+414621811+413601106
2998+412658945+412212324+412227224+412114340+411431066+410543936+410188520
2988+410421506+410508781+409940866+409094042+408704606+409034616+409700517
2978+410134856+410092223+409656137+408879476+407785493+406737636+406317381
2968+406650331+407119215+406903049+405819135+404580488+404051714+404328062
2958+404844177+405164293+405178931+404861608+404357978+403954253+403655119
2948+403141856+402237643+401132136+400255250+400030790+400413271+400775701
2938+400694304+400499470+400522518+400335948+399409561+398047087+397069015
2928+396877382+397188011+397441805+397285443+396767262+396162358+395616589
2918+394978102+394047378+392991780+392367873+392639128+393679128+394793599
2908+395298684+395084061+394578277+394261245+394269423+394308535+393881442
2898+392803639+391528703+390749074+390665465+390813592+390635462+390093592
2888+389593948+389396437+389346615+389200496+388976706+388892399+389068346
2878+389351097+389424694+389115345+388507270+387741639+386929474+386316946
2868+386197048+386516466+386784869+386516873+385779325+385226310+385393439
2858+385971715+386083872+385322665+384157732+383303516+383085051+383368849
2848+383735033+383795797+383515433+383089504+382582090+381922679+381175790
2838+380558518+380256270+380351839+380765779+381135106+380987736+380244251
2828+379338525+378668755+378197252+377776270+377543022+377644557+377767656
2818+377378831+376469060+375672523+375454059+375490756+375171192+374490159
2808+373982222+373873324+373835434+373646973+373587867+373940665+374458759
2798+374605692+374138729+373257304+372344914+371734452+371554401+371588100
2788+371403830+370832015+370215499+369986238+370094030+370065510+369585249
2778+368824710+368181131+367851498+367703779+367479057+367052575+366506951
2768+366019967+365691731+365463255+365229192+364997020+364849592+364795172
2758+364751142+364620418+364325853+363855427+363307737+362817173+362439320
2748+362165271+361986733+361876031+361746762+361497450+361076701+360484107
2738+359766872+359079524+358673732+358680862+358897348+358930640+358625395
2728+358219458+357984958+357879116+357724616+357569011+357570553+357632772
2718+357456941+356898425+356047992+355050248+354063824+353360819+353226981
2708+353677007+354359175+354831317+354911114+354696024+354378149+354143329
2698+354030939+353801183+353200179+352376636+351747753+351487236+351411514
2688+351334249+351341670+351668364+352306763+352812285+352676876+351883307
2678+350891994+350111521+349585948+349200092+348975370+349017480+349271419
2668+349496374+349489681+349249826+348946996+348767760+348728793+348667884
2658+348476367+348220128+347957051+347630328+347257189+347026531+347076469
2648+347329011+347622442+347837356+347821059+347411019+346679903+345981001
2638+345583970+345401445+345216069+345029936+345004064+345146196+345291587
2628+345360267+345384334+345278084+344873835+344258601+343825745+343883832
2618+344315523+344654555+344482507+343808692+343072802+342726291+342808532
2608+342948015+342799859+342449507+342256040+342334701+342447528+342415516
2598+342335283+342324865+342321984+342231711+342095778+341987666+341825250
2588+341448357+340886233+340395989+340219605+340388976+340705221+340902704
2578+340949790+341087208+341409099+341624247+341455836+341039889+340712089
2568+340583053+340480121+340233865+339930656+339801067+339872511+339957371
2558+340020638+340218994+340491151+340516789+340208139+339860289+339709165
2548+339713937+339844196+340197517+340728590+341177917+341367164+341345949
2538+341228786+341070736+340906604+340781555+340705280+340624436+340471100
2528+340232322+339956557+339731777+339693508+339935807+340354287+340684443
2518+340760281+340675305+340660492+340845462+341152540+341408925+341512089
2508+341437648+341186182+340830503+340523890+340378877+340423112+340667128
2498+341081824+341511042+341743155+341726509+341650321+341735152+341971107
2488+342155465+342152962+341997415+341774672+341545876+341381482+341364399
2478+341510169+341717517+341878215+342026109+342245156+342461642+342535996
2468+342517895+342555698+342604967+342488823+342234185+342102384+342237328
2458+342465105+342541991+342472468+342442231+342536578+342681591+342799277
2448+342898193+343025658+343175385+343271391+343271303+343211122+343102428
2438+342930496+342794039+342855967+343129492+343491544+343865934+344233864
2428+344551856+344776956+344894526+344896360+344828088+344841620+345087004
2418+345530423+345926989+346031783+345868990+345741904+345950852+346523890
2408+347182806+347562318+347548466+347392540+347432496+347791696+348393078
2398+349081299+349634140+349870183+349897131+350048749+350431434+350732372
2388+350631885+350222660+349813668+349434504+348763395+347530481+345795421
2378+343776302+341565520+339088052+336263869+333224102+330404808+328258078
2368+326795874+325677736+324757402+324169551+323988860+324269224+325212753
2358+326920777+329351857+332721897+337384829+342967309+348062049+351198462
2348+351810757+350427767+348393195+346975021+346504421+346808502+347812242
2338+349248022+350562711+351371558+351701365+351891368+352357341+353253522
2328+354338134+355264464+355933507+356586137+357654715+359386632+361501670
2318+363377523+364649869+365483685+366225220+366987242+367691062+368335689
2308+369017624+369781567+370579268+371255790+371562346+371422833+371134874
2298+371014539+371012880+370964077+370948391+371137318+371506849+371882578
2288+372111927+372156394+372122607+372163582+372316220+372507475+372670530
2278+372780883+372847555+372893419+372896125+372814670+372714473+372739937
2268+372926012+373164906+373348158+373398504+373221509+372811149+372380505
2258+372217013+372365721+372561720+372519843+372203306+371765241+371361516
2248+371125241+371180359+371501145+371855718+372060039+372192858+372424797
2238+372769446+373131963+373478766+373823211+374092633+374128078+373871025
2228+373498584+373271389+373275317+373416780+373581785+373658584+373520992
2218+373144419+372630807+372043684+371363757+370649781+370085067+369803568
2208+369745423+369722200+369624506+369557544+369723131+370168850+370727540
2198+371203437+371531498+371756569+371956904+372203480+372527176+372902324
2188+373280818+373643015+374011498+374422323+374886638+375381800+375864419
2178+376273818+376570304+376804426+377066136+377334102+377524368+377706252
2168+378029191+378426863+378700126+378888616+379233294+379783167+380347445
2158+380805997+381197354+381517383+381641530+381476175+381104433+380772647
2148+380731788+381055484+381573782+381975237+382052821+381929169+381960191
2138+382337376+382907532+383447132+383905073+384286826+384544986+384696721
2128+384872203+385196044+385700286+386298438+386814756+387174683+387545669
2118+388108492+388755680+389225815+389478095+389733374+390200773+390933577
2108+391877601+392889256+393765327+394417317+394976444+395599012+396243581
2098+396771831+397158124+397451292+397682271+397968717+398508084+399278109
2088+399960743+400340634+400545654+400762373+400975395+401098204+401152594
2078+401266905+401596247+402182700+402857010+403398589+403769226+404075228
2068+404408556+404828607+405360175+405944446+406483638+406917192+407235562
2058+407509145+407868200+408352478+408855264+409274907+409631633+410020458
2048+410526679+411174071+411955533+412923187+414104853+415279127+416090709
2038+416536369+417058304+417971975+419051291+419907631+420573852+421397453
2028+422492426+423659250+424750788+425786947+426824037+427981985+429412731
2018+431043287+432608511+434042661+435528554+437151748+438818361+440449238
2008+442031980+443571449+445115749+446770139+448631238+450657225+452566632
1998+454054591+455268967+456796970+458922427+461157363+462782972+463646588
1988+464145329+464709723+465573136+466769323+468162935+469617311+471139145
1978+472752182+474345605+475797536+477189519+478839340+481097383+483969118
1968+486933512+489367794+491172086+492739434+494444316+496444403+498771998
1958+501335141+503938095+506428658+508741761+510850630+512819811+514799876
1948+516915380+519347624+522394783+525969552+529167922+531142051+532364429
1938+534119773+536970380+540314549+543241984+545507593+547586546+549864785
1928+552185279+554473762+557139750+560283002+563347679+566147825+569036671
1918+571668610+573188930+573882651+574925591+576730523+578770945+580564237
1908+582119886+583652894+585200046+586553905+587629147+588685822+589973796
1898+591421712+592797397+593935498+594918838+596153265+597848426+599388186
1888+599913934+599613664+599560118+600370827+601682257+602868666+603799273
1878+604623137+605195621+605325239+605543093+606964060+610043987+613472259
1868+614750688+612983704+610120175+608397716+608197847+608489502+608339397
1858+607552842+606196072+604379033+602698946+602119594+602919477+604382176
1848+606012733+608060896+609904475+609326461+605572369+601033351+598027517
1838+596740998+595993672+594915695+594075360+594635214+596353832+597268957
1828+596267692+594421901+592742512+590988332+588971192+587214567+586015528
1818+584901930+583317994+581569344+580620577+580837267+581334379+580954604
1808+579676816+578524921+578474110+579747533+581602054+582720192+582460315
1798+581653797+581742091+583540097+586553789+588684775+587925168+585245619
1788+583277660+583130755+584075797+585234560+586632596+588337652+589749016
1778+590566826+591692530+594475098+599186804+603960961+606165166+605666192
1768+604327931+603504825+603792405+605365690+607616399+609517134+610996887
1758+612598982+614114646+615282663+617036610+620497184+625064372+628363375
1748+628943484+627927726+627194717+627558253+628653691+629650534+630156376
1738+631168177+634616703+640978812+646714309+647241744+643941577+640465288
1728+638136412+637229609+637863440+639625884+642204567+646373414+652990452
1718+660483038+664473202+663197625+659797407+657152838+656224152+657392751
1708+660567141+664387469+666948865+668435660+671087854+675761378+679859275
1698+680776962+679131622+675993259+672752226+671626522+673305678+676365351
1688+679699043+684493920+691365248+695852755+693683123+688569584+685141487
1678+684748617+687033607+690436444+693010704+694739274+696765029+698416073
1668+698089030+696872239+697090733+698731184+699664294+698907190+698153752
1658+699616451+704823697+714447385+724920895+726306766+719245871+714597490
1648+715556326+718225224+717260335+713386519+710956719+711795483+715416115
1638+720775737+725901324+726870636+722470957+717275875+715167821+716395089
1628+718946417+720894936+722039323+722638581+722295766+721507639+722016915
1618+724471393+726871800+726751786+725075540+724331066+725248985+726810338
1608+727669239+727494514+726902939+726504365+726584743+727295867+728681331
1598+730781818+733663098+736741861+738644866+738950955+739282945+741354855
1588+744757052+747645840+749186939+750372068+752546531+756186487+761304100
1578+767705089+773416548+774919872+772798607+771299065+772007570+772914431
1568+772064318+770587476+770238956+771313325+774018367+779196744+785705466
1558+787818700+783639552+777977217+773394838+770376897+769186006+769571019
1548+771147272+774147170+778890596+785335296+793520846+801851788+804519696
1538+799719522+794052763+791569475+791322578+791229860+791492996+793985597
1528+799401151+806306876+812762576+818481194+823507021+826447668+827317977
1518+828789640+832157788+836243055+839774288+842668082+845848583+851095698
1508+859308953+866901707+868154002+865141416+863485948+865541852+871394569
1498+878717144+882754161+881640622+879739247+881914525+889042585+897443312
1488+901812261+901412290+899520111+898639791+899867466+903778183+910265545
1478+918267291+926365362+933845842+940468060+944734979+944799700+941983200
1468+939954710+941765521+947795350+954077954+956297117+955816535+956381337
1458+957873836+956155684+950740478+945843862+943081432+941818311+941496798
1448+941214979+939416158+935776493+932114187+930730527+932480924+936185601
1438+939465456+940098413+938240399+936694645+937484808+939650716+940359162
1428+938982022+938016318+939085448+941508555+944920646+950238885+956308757
1418+958324618+953715466+945672687+938358959+933930352+932491691+932670025
1408+933238552+934561214+937590097+941508671+943867522+943761476+943377569
1398+945487078+950007237+954019110+954873297+952899460+950920966+951339620
1388+953935938+955879452+955787375+956584465+961161722+968408517+974870793
1378+978148203+978255646+977268989+977087046+976869833+974979109+972709717
1368+972942121+976675551+982953325+990525765+997318402+1000703836+1000825131
1358+1000378249+1000735848+1001172021+1000994618+1000722927+1001415426
1350+1003361268+1005851540+1007938932+1009210784+1009894785+1010653403
1341+1012587837+1016826527+1023415570+1030529371+1035817926+1038705376
1332+1040331101+1041970214+1043759490+1044695859+1044465841+1044323593
1324+1044828446+1045011785+1044428475+1043568235+1042997962+1043506190
1315+1046140690+1051537270+1058983061+1066403941+1071555253+1073343831
1307+1073209033+1073422638+1073741823+1072633755+1070038949+1066987717
1298+1064347047+1062747513+1062702231+1063815538+1064382086+1063718688
1290+1063248292+1063593202+1062813515+1058738376+1052006852+1044835896
1281+1038317278+1032849923+1029828374+1030509465+1033113350+1033394121
1273+1030356973+1028430338+1030452543+1033192273+1031699600+1025341623
1264+1017988142+1013874821+1014109030+1015930434+1015934159+1013879594
1255+1011613635+1009922955+1008375338+1006728194+1004697026+1001170973
1247+995515506+988248282+979761822+970203962+960467768+952318187+947027128
1237+943588205+939345849+932910112+925520895+919055126+913696436+908405727
1227+902968696+898475135+895467379+892876241+889798642+886742229+884223088
1217+881936933+879960127+878797639+877948225+876391586+874529440+873839560
1207+874852990+876750931+879035223+882523270+887912342+894124753+898981850
1197+901251999+901269518+900325349+900225415+902636124+907501136+912507116
1187+915437753+916394144+917188789+919151336+921686017+923309764+924212434
1177+926583681+931973394+939050177+944729100+947868452+950596310+955479249
1167+962776680+971007745+978744784+985128952+989811032+992776241+994154837
1157+994488806+994795535+995950050+998416110+1001951592+1005058816+1006428681
1147+1007745465+1011854828+1017726229+1021405122+1021810681+1021196523
1138+1021563085+1021763420+1018647698+1012763726+1008692777+1009097055
1130+1012768964+1017624490+1022132078+1025335453+1028285529+1032471488
1121+1036377955+1037413852+1035857388+1033586424+1030240335+1025571292
1113+1022732616+1024706163+1031183106+1039825783+1047888409+1052230700
1104+1050350977+1043282691+1035336005+1030789771+1031272506+1035485238
1095+1040795561+1044990948+1048263469+1052685266+1057918645+1059375931
1087+1053868067+1044531494+1036507399+1032322255+1031587617+1032723274
1078+1034056355+1032927915+1029337723+1026732790+1026942205+1029023427
1070+1032215977+1036138624+1038394223+1036864299+1033395285+1031542568
1061+1032846082+1036639636+1039511836+1036507049+1027595475+1019283740
1053+1016404323+1017607029+1019949582+1023086257+1026588913+1027638661
1044+1024107370+1017869408+1012757673+1010492646+1010241908+1011298524
1035+1013388826+1013945130+1009557557+1001315782+994828827+994860141+1001255368
1025+1009225567+1013150194+1011468011+1007560147+1004982919+1004571075
1017+1005714531+1007301144+1008313526+1009107764+1011113672+1014428448
1008+1017105436+1016508389+1010985043+1001808645+992823153+987089345+984286755
998+982260011+980249214+978408254+975309062+968681488+958619299+947720559
988+937803411+928936944+921639629+917227029+915538560+914618022+913695330
978+914099084+915814908+915796283+911845581+906144483+902425429+901605233
968+902307277+903309940+903353476+900841260+895933061+890647649+886576118
958+883614808+880571433+876912968+874082383+874596199+879091098+885202120
948+890262694+894203094+898236619+902144833+904873621+907198364+911018401
938+915436880+917063944+915712936+915777716+920392980+928221630+936695401
928+945021919+952943403+958934876+961316891+960944043+961050496+963376520
918+966179517+967496476+968158768+968906094+967797443+963860012+959693668
908+957907011+957836178+956722755+953318579+949516121+948382094+951906924
898+959938528+969463795+975527847+975049011+969866792+964818324+963467200
888+966370481+971581277+975780913+976913136+977038156+980626951+988988042
878+997593236+1000473585+997446797+992828391+989183139+986497770+984876817
868+984669730+985425321+986329214+986141800+984060694+981729549+981982615
858+985794561+991439319+996064011+997107241+994081618+990418206+991110006
848+997428871+1004809358+1006877892+1002365764+995763218+991325241+990024870
838+991495426+995267096+999786092+1003355680+1006429030+1010960714+1016285356
828+1017858349+1014142322+1011535993+1017742409+1033793626+1053108518
820+1065149550+1062696993+1049824473+1037773663+1032985769+1033187501
811+1032698363+1028932514+1024319578+1023200801+1027553918+1035040101
803+1040442153+1040071051+1035933750+1035215525+1040270454+1044645805
794+1044346525+1043604903+1045999490+1049766154+1049977430+1043182931
785+1031432564+1020381332+1014160598+1011895571+1010846520+1010081966
777+1009399128+1007210464+1001135586+991840221+984500127+984765067+992241705
767+999333738+999572254+996119653+996755113+1003278154+1009082504+1007435127
757+1000519915+994929402+992386281+990601429+988726478+988578759+991720439
747+996978031+1001298903+1003494087+1005519434+1009336968+1015109888+1021497432
737+1025509597+1026853038+1029074995+1029938378+1024323653+1016405487
728+1014036276+1019032420+1028628811+1040123200+1050784007+1055297532
720+1051081192+1044709828+1042638850+1042757816+1040980414+1038292950
711+1036631837+1033949610+1027470222+1020792944+1020611001+1028542903
703+1039553742+1046602589+1045222480+1038228926+1030518196+1022762300
694+1015206040+1009998037+1007620911+1004805400+997605226+985899443+974608647
684+969794329+973929360+985179006+998076903+1005874938+1006612835+1004345829
674+1003006462+1002742454+1002067183+999053200+993297391+991926129+996985830
664+1000073964+997232843+992689752+991191956+989875172+983211513+973934948
654+969091878+967919844+963276294+954208037+947863505+949768547+958035523
644+964275116+960635683+948749704+940543724+947651879+970039771+989260781
634+982780345+957947870+938869224+933680603+936522073+940425223+944441927
624+954315480+971810830+984690451+979756817+961087979+942817016+932160109
614+925816333+922152456+925152063+937508439+955726378+972769957+979160818
604+968560252+954449580+943478435+929792353
##END=
