##TITLE=<SNM>
##JCAMP-DX=4.24
##DATA TYPE=INFRARED SPECTRUM
##DATE=29/4/2025
##SAMPLING PROCEDURE=Instrument type and / or accessory
##ORIGIN=Admin
##XUNITS=1/CM
##YUNITS=ABSORBANCE
##RESOLUTION=4
##FIRSTX=4497.3318
##LASTX=599.83466
##DELTAX=-1.4281778
##MAXY=2.1499038
##MINY=0.6157077
##XFACTOR=1
##YFACTOR=2.0022539e-09
##NPOINTS=2730
##FIRSTY=0.62841195
##XYDATA=(X++(Y..Y))
4497+313852275+313418038+312516521+311310647+310685920+311234320+312655511
4487+314024428+314322443+313234603+311778463+311548291+312940309+314512785
4477+314491203+312799503+310957470+310103523+310223908+311020878+312192101
4467+313140474+313515680+313730253+314194854+314720869+315063864+315215179
4457+315164632+314977535+314835240+314576698+313742667+312477732+311670016
4447+311810048+312340766+312434924+311980683+311445559+311136381+311111107
4437+311450769+312113005+312734130+312955104+312796020+312563049+312566056
4427+312914202+313440484+313855490+313950989+313652080+313114992+312657208
4417+312334098+312023014+311955409+312575403+313820006+314834853+314678002
4407+313164914+310908263+308814089+307620272+307507299+308013101+308650897
4397+309518686+310866378+312363063+313386186+313704265+313427951+312772562
4387+312189660+312232140+313053073+314165502+314683152+313918630+312120358
4377+310413476+309685808+309925863+310606348+311150194+311248282+311219614
4367+311635931+312448737+313089064+313303637+313476623+314027673+314762634
4357+314926154+313933455+312256163+311233963+311680405+313081145+314368883
4347+314898439+314533802+313464210+312103806+310879774+310192234+310476586
4337+311719700+313032265+313452481+312998001+312354043+312045311+312335378
4327+313309501+314641505+315770456+316523636+316955015+316636906+315008167
4317+312513335+310617898+310343102+311125932+311569368+311260814+311102712
4307+311812400+312922537+313457869+313187033+312916911+313425391+314282732
4297+314136716+312422660+310393680+309803663+310944670+312623182+313571526
4287+313397349+312568110+311842228+311589194+311561479+311376317+311118966
4277+311206427+311634710+311850772+311515099+310810978+309951881+309041046
4267+308316296+307985654+308066476+308576028+309442121+310312947+310967979
4257+311628607+312456566+313111926+313082693+312181205+310758079+309538899
4247+309069594+309314889+309930299+310499299+310546780+310084382+309726591
4237+309773894+309961705+310167973+310399901+310301843+309735522+309342366
4227+309627342+310351378+311223633+312145036+312672241+312288492+311205950
4217+310199409+309800328+309888682+310110400+310562230+311437938+312088059
4207+311617653+310505104+310232392+311297132+312746484+313564917+313690095
4197+313595758+313386870+312758630+311872354+311639920+312665632+314280648
4187+315109827+314513023+313124280+311984850+311566718+311889084+312902413
4177+314077506+314440447+313811046+313135354+313048548+313117374+312835166
4167+312486424+312745353+313822953+314972147+314958930+313556017+312083653
4157+311753666+312207134+312473892+312647414+313416074+314445240+314576341
4147+313590846+312632440+312750533+313902406+315324937+316204217+316026855
4137+314854322+313318164+312139529+311775695+312407240+313687237+314583188
4127+314268294+313148631+312251727+311897181+311737799+311578507+311349168
4117+310912639+310599620+311118639+312384228+313288872+313030806+311981814
4107+311145133+311249353+312255568+313307804+313376064+312266284+310766593
4097+309779163+309671489+310378319+311546714+312414622+312175490+310847266
4087+309400028+308778932+309119040+310009127+310994414+311524714+311106225
4077+310080542+309453671+309477099+309386126+308888124+308695014+309236984
4067+310168836+311323656+312797538+314046993+314192681+313298011+312451744
4057+312403876+312702992+312530691+312025842+312043019+312570700+312493331
4047+311422012+310537790+310852476+311767479+312140720+311957999+312075377
4037+312845347+313794375+314378468+314468787+314273623+314134662+314164967
4027+313979924+313090641+311647689+310381742+309727306+309521306+309669465
4017+310470662+311897717+313077156+313093053+312134796+311310290+311395250
4007+312185581+313092725+313982901+314948123+315449846+314651091+312834273
3997+311496851+311709430+313050721+314215812+314197028+313004163+311642956
3987+311197079+311788436+312642621+313033247+312887172+312675129+312966535
3977+313873471+314858400+315285046+315027398+314351379+313525206+312756665
3967+312224459+312013012+312169030+312831951+314093700+315666801+316861065
3957+317060516+316225740+314850541+313598973+313133211+313794107+315019003
3947+315687788+315613277+315761079+316542092+317082753+316709155+315921592
3937+315417309+315366702+315784894+316681529+317678158+318053513+317479392
3927+316408728+315683174+315778166+316367796+317021608+317915237+319247866
3917+320380508+320225800+318513053+316258843+314918236+315020194+315829339
3907+316629672+317777705+319970949+322816397+324696325+324186267+321397409
3897+317989569+315752059+315286654+315996312+316705285+316677362+316555191
3887+317352220+318692202+318950565+317922798+317566109+318699406+319501912
3878+318627246+317425213+317791696+320065673+323293174+325762494+325483084
3868+322712415+320411468+320782565+323030018+324642355+324382265+322928894
3858+321717870+322271808+325476624+329479125+330068517+327206667+324155873
3848+322616976+322578337+323473811+324731750+325895709+326865427+327747952
3838+328208594+327633759+326187503+324690044+323568982+322739862+322288180
3828+322473610+323185143+324379347+326668268+329892137+331582587+329949800
3818+326859711+324735888+323888371+323405283+322973458+323098576+324348567
3808+326320391+327352980+326839945+326566727+327990478+329720788+329753742
3798+328707965+328016705+327779209+327605687+327801268+328773457+330218760
3788+331629592+333023455+334606678+336372740+338524546+341493297+345046349
3778+348126167+350141393+351731344+354317119+359131712+365839242+372200234
3768+376461425+379083846+381004140+382394699+383553211+385208801+387423985
3758+389297185+390474391+392138138+396140461+403151632+410884577+416002931
3748+419017704+423157052+429550968+434915628+436306545+435953011+437443474
3738+442211985+449125306+455672591+460352302+463272142+464645822+464834586
3728+465063806+466619790+469377688+471820454+472676009+471703195+469295437
3718+466373275+464355845+464520526+467138659+470774231+472623437+471319059
3708+468441817+466383247+466776046+469890872+474100177+476940445+477661415
3698+477321098+476964052+477339912+479089542+481854198+484180122+485324344
3688+485801151+485522038+484349357+483540182+484239868+485803621+487137590
3678+488499749+490128250+490813289+490347200+490184305+490454576+489722591
3668+487623684+485194552+483040007+481111080+479569177+478947962+479518957
3658+480855962+482182786+483213887+484400500+486420014+489537697+492632102
3648+493189135+490522240+486850797+484433246+483685662+483775207+484360907
3638+485905133+488183516+489687940+489410376+488691401+490202791+494554986
3628+498336513+498768042+497459406+496764692+497307794+498574902+499625233
3618+499806287+499689117+500220668+501151419+501645283+501890756+502519592
3608+503218503+503493567+503852399+505298805+507985972+510740477+512379546
3598+513239566+514499618+516331946+517762812+518240005+518368309+518763876
3588+518966780+518381407+517643260+517717146+518772985+520596620+522736340
3578+524037950+523521402+521695505+520016308+520013212+522942519+528486239
3568+533576878+534787574+532274791+528565781+525446013+523822305+524112551
3558+525861883+527825848+528837153+528683129+528041076+527659500+528097577
3548+529899422+532816047+535096097+535200645+533859205+532677384+531521582
3538+528981293+525058483+521663950+520369782+521185328+523305222+525798118
3528+527807927+528995820+529592089+529566547+528332751+525742213+522970918
3518+521857566+523012535+524854448+525402908+524707390+524087128+523510567
3508+521837264+519555309+518945346+521124718+524265681+525525853+524281459
3498+522307849+521362511+521762425+522945615+524329803+525454408+526009893
3488+525688510+523972042+520936520+518109380+517422078+519146226+521584051
3478+522770217+521957827+519845018+517987804+517601941+518283408+518175943
3468+516160954+513590897+512680329+513615605+514706452+514947043+514628100
3458+513964733+512893236+511673014+510347708+508284077+505513914+503682360
3448+504439737+507250088+509744414+510354912+509447917+507858443+505847324
3438+503843707+502869434+503560249+505421869+507273784+507943522+506812487
3428+504453014+502472557+502083420+502924447+503583885+503099547+501766204
3418+500663866+500528418+501218280+501995423+502091755+501308777+500241864
3408+499624578+499454242+499241841+498993689+499148486+499489190+499036586
3398+497451488+495830310+495358624+495689861+495744606+495675423+496648773
3388+498910545+501244178+502276560+501763644+500717271+500390112+501029486
3378+501985361+503060431+504730697+506917452+508504604+508396662+506770989
3368+505102569+504807382+505984022+507827543+509841698+511933609+513701875
3358+514750986+515482524+516443995+517281629+517345215+516877131+516679347
3348+516961555+517285023+517281808+516927202+516669583+517390762+519266849
3338+520679556+519739875+517010555+514874109+514403941+514697164+514830468
3328+514729969+514382210+513565593+512230106+510555434+508923272+507883925
3318+507761992+508252224+508507104+507825519+506458596+505494743+505582322
3308+506127984+506249202+506033438+506201453+506978716+507969123+508906482
3298+509928682+511010420+511590078+511251904+510616877+510858421+512191883
3288+513499030+513813150+513456401+513145020+512973373+512964800+513486170
3278+514501940+515480380+516288245+517161661+517908143+518007273+517185417
3268+515499135+513349591+511583052+510964398+511346807+511768393+511520716
3258+511044059+511356988+512453729+512993378+512073225+510555553+509955593
3248+510755838+512291728+513699076+514564990+514868334+514655130+513911268
3238+512733318+511540304+510816685+510705588+511043344+511571442+511954328
3228+511715761+510628963+509238821+508537290+509046693+510318177+511271135
3218+511089546+509830981+507977280+505702410+503106632+500878677+499780805
3208+499649882+499717993+499612969+499407028+499115800+498748126+498607856
3198+498945434+499150600+498086277+495845611+494271290+494818261+496617218
3188+497480542+496467332+494533969+492919370+491888954+491044414+490201928
3178+489593097+489305203+488981795+488423244+488082659+488422738+489059015
3168+489146863+488500107+487646666+486789980+485553534+483908035+482382743
3158+481248344+480430834+480104151+480486382+481208781+481525819+480905318
3148+479145091+476617603+474531883+473984495+474653846+475162326+474657061
3138+473413471+472044732+470750148+469370305+467915267+466887977+466939209
3128+468055895+469216192+469267841+468172440+466871068+465880869+464708605
3118+462989339+461540493+461518642+462911047+464584677+465620005+465950498
3108+465842140+465380813+464551277+463523123+462619432+462004528+461449043
3098+460525913+459222577+458154533+457870985+458124734+458252412+458159564
3088+458291469+458647206+458598415+457817729+456776268+456197623+456343966
3078+456764658+456658741+455739362+454620533+454049925+453992173+453811328
3068+453235064+452723398+452794070+453348602+453843002+453962583+453824248
3058+453559306+453101045+452406391+451529819+450521462+449500244+448731138
3048+448394007+448315804+448131029+447682831+447116122+446657386+446518187
3038+446789738+447160865+446994964+445955974+444480961+443458969+443428069
3028+444117276+444727297+444710299+444243436+443787616+443441524+443034704
3018+442505445+441847347+441073567+440454049+440323871+440564581+440766532
3008+440875843+441161772+441571837+441532483+440482806+438526253+436464021
2998+435107161+434670751+434930453+435570095+436114834+436085095+435577716
2988+435196765+435164674+434971832+434138663+432970656+432193453+431961018
2978+431696136+430961680+429986574+429208895+428762155+428526743+428485990
2968+428954848+430232375+431823576+432470630+431492726+429696448+428494325
2958+428468397+429003401+429118874+428555560+427885018+427558425+427372042
2948+427078522+426895504+427016752+427075635+426525984+425378100+424221405
2938+423596439+423562771+423796396+423924253+423790591+423481026+423135380
2928+422869992+422778036+422736002+422384701+421571537+420610661+419891715
2918+419472422+419205545+419093465+419324858+419832326+420028532+419455900
2908+418551555+418124551+418209452+418127558+417568173+416948923+416722680
2898+416843155+416990808+417023732+417000840+416906056+416543919+415682827
2888+414358325+413171801+412952703+413784324+414748981+414987637+414578614
2878+414012799+413382118+412525164+411539520+410798932+410631810+411097989
2868+411919280+412582231+412729497+412523944+412394688+412418622+412243194
2858+411616323+410695873+409833471+409258607+409002536+408983543+408998815
2848+408730270+408107389+407599265+407709082+408282667+408694012+408533439
2838+407848043+406926908+406010923+405172813+404602741+404759205+405685788
2828+406453257+406040989+404575681+403049466+402177419+402011041+402265356
2818+402581084+402628237+402332693+402035273+402132617+402511306+402670211
2808+402368118+401728655+400891110+400052524+399570746+399541841+399560506
2798+399265438+398822687+398597754+398611805+398562716+398284140+397998746
2788+397997407+398165958+398101776+397702160+397287005+397080499+396921176
2778+396582318+396080863+395566459+395126328+394772466+394464508+394138659
2768+393806976+393530334+393265779+392923022+392555496+392277396+392051392
2758+391791004+391563154+391400200+391061253+390363383+389629047+389344904
2748+389410931+389203026+388467470+387687319+387387607+387464589+387430028
2738+387124362+386908360+387116295+387558808+387758080+387531123+387092569
2728+386670001+386288247+385925157+385653576+385509763+385332341+384905814
2718+384240572+383560117+383064497+382834592+382848346+382928989+382813308
2708+382452361+382133746+382154733+382437745+382596025+382370140+381877556
2698+381396433+381037898+380741461+380495094+380355836+380248460+380006886
2688+379690861+379558926+379637962+379649840+379433004+379091884+378729002
2678+378345967+377950519+377568318+377240831+377065315+377105532+377251935
2668+377259348+376955140+376441867+376059696+376042251+376289064+376568325
2658+376769026+376880599+376907332+376813143+376467111+375792908+374972629
2648+374277677+373802419+373561798+373587846+373764791+373870828+373876752
2638+373950727+374156251+374329237+374240288+373794084+373095470+372404567
2628+372041923+372203002+372706868+373019202+372741013+372037428+371436694
2618+371272520+371437558+371628227+371694045+371679905+371631114+371508169
2608+371273055+370960543+370663212+370454027+370339269+370360404+370638534
2598+371099087+371351764+371156927+370754275+370459594+370300539+370240496
2588+370344806+370575662+370755704+370764754+370582658+370269133+370013985
2578+370007109+370187388+370283095+370118503+369782890+369527593+369517174
2568+369665780+369782950+369819684+369795721+369619341+369274886+369027656
2558+369100560+369323320+369410245+369361543+369323111+369297302+369212580
2548+369085378+369000954+369037182+369166855+369194153+368949305+368548320
2538+368274506+368250721+368361372+368400458+368248191+368018525+367994204
2528+368305615+368754796+369031169+369028758+368911915+368901020+369028520
2518+369136818+369076328+368802337+368358246+367926480+367767127+367947139
2508+368288349+368647241+368979223+369137801+368981217+368677635+368534775
2498+368560525+368535817+368444516+368474433+368664209+368871251+369012891
2488+369081865+369064123+369057514+369239312+369514644+369489311+368985474
2478+368326334+367973604+368098245+368534120+368947578+369066475+368903015
2468+368761315+368960379+369507380+370055007+370234899+369983859+369493716
2458+368978389+368609792+368528196+368744406+369100709+369417925+369618299
2448+369693316+369642828+369476063+369240027+369018636+368885332+368883963
2438+369067160+369463918+369967070+370354272+370473258+370325426+369976804
2428+369537268+369228744+369279738+369669650+370096534+370307982+370397288
2418+370639457+371090007+371540290+371856553+372122567+372378549+372498189
2408+372477768+372556536+372826092+372993929+372801533+372466367+372460621
2398+372999585+373908515+374868260+375753643+376875003+378885020+382367104
2388+387595304+394749991+404208959+416467294+431821611+450202043+471190100
2378+494040939+517762633+541499301+565109928+589163276+613645890+636225207
2368+652721395+660817728+662773060+663142133+664274240+664574606+660559454
2358+649894195+632806680+611155077+586661687+561833458+541297052+529467536
2348+528281370+537053037+552238208+568171825+580761754+589261870+594385672
2338+597176375+598630520+599521500+600580911+601880258+602223552+600383722
2328+596648575+592331567+588208413+583916053+578738609+572476806+565242220
2318+557069144+548346595+539950670+532338854+525015616+517226557+508733168
2308+499770207+490744553+482056745+473859615+466020872+458486068+451454772
2298+445098067+439413422+434391281+430009794+426090080+422406700+418874010
2288+415511240+412394449+409713176+407670413+406240559+405141139+404095451
2278+403077329+402263094+401759763+401433527+401038019+400447794+399687618
2268+398843168+398090464+397687693+397722135+397912209+397829511+397295400
2258+396473662+395669221+395113259+394832599+394644282+394302566+393692961
2248+392949099+392405432+392325860+392641677+393084309+393531972+394001128
2238+394377613+394473320+394314474+394115261+393992108+393845824+393515123
2228+393005838+392558711+392433891+392601132+392750095+392654537+392358933
2218+391962056+391468192+390923185+390445783+390078109+389795038+389601690
2208+389474696+389342166+389203681+389132861+389202461+389513634+390096506
2198+390709654+391040802+391124333+391247010+391534130+391917045+392318120
2188+392652513+392894444+393241518+393906135+394710041+395234180+395403088
2178+395563125+395930680+396316454+396511499+396651590+397002296+397555668
2168+398045037+398282175+398302537+398239219+398236926+398418427+398761363
2158+399067058+399174851+399113825+399005110+398962689+399055865+399212985
2148+399254155+399133502+399009426+399064111+399408864+400066515+400890664
2138+401649321+402258479+402743770+403052472+403190778+403396540+403859087
2128+404450176+405001106+405637206+406594272+407872364+409250212+410494428
2118+411453488+412105067+412610303+413223361+414054267+414963941+415766150
2108+416462352+417132031+417654264+417786765+417550222+417277540+417200023
2098+417184126+416984645+416646204+416499801+416746793+417224373+417689511
2088+418097164+418401312+418405569+418090853+417768189+417678228+417750685
2078+417868838+418024677+418162983+418179445+418084810+417973237+417886729
2068+417860681+417985263+418265417+418546464+418757316+419099568+419806934
2058+420785850+421641613+422067932+422148397+422251188+422650030+423318726
2048+424095840+424877896+425598091+426202011+426721148+427259010+427911661
2038+428759029+429815434+430931882+431902016+432733637+433685880+434955548
2028+436387546+437619913+438542269+439433576+440591224+442078680+443866087
2018+445863750+447785146+449344166+450616007+451937354+453497893+455211294
2008+456898707+458453054+459883414+461303474+462838798+464438840+465817938
1998+466769586+467551612+468711463+470430491+472246148+473569102+474321894
1988+474875147+475579685+476581285+477864706+479281670+480686190+482117146
1978+483684233+485316455+486856007+488350191+490074309+492305955+495084870
1968+498077049+500774070+502998333+505035291+507124821+509109505+510779534
1958+512335845+514216339+516560749+519114135+521588695+523889761+526100331
1948+528477784+531301829+534514118+537617393+540052003+541715065+543101516
1938+544838048+547106428+549615162+552080969+554502956+556988411+559631997
1928+562541835+565739835+569044645+572043968+574299668+575879318+577430092
1918+579369587+581361118+582966370+584342044+585931876+587887148+589946969
1908+591740537+593143480+594355307+595657870+597126006+598516327+599494648
1898+600173793+601191409+602902816+604852134+606414459+607443863+608052754
1888+608401763+608756488+609249697+609719984+610020291+610189199+610209740
1878+609980282+609623295+609548873+610142284+611514386+613505322+615559010
1868+616582222+615827584+613967035+612283611+611225629+610419669+609667710
1858+609130026+608698081+608038584+607217740+606626770+606325808+606037527
1848+605803842+606004841+606416662+605905949+603993603+601775532+600351572
1838+599667843+598971849+597863022+596736869+596149710+595958594+595411861
1828+594246235+592921941+591546683+589684111+587341725+585218854+583866042
1818+583125395+582371709+581240019+580054984+579397392+579368337+579521587
1808+579459311+579169065+578911625+579096906+579928586+580888926+581155833
1798+580854930+581073612+582520434+584699925+586130791+585768385+584453022
1788+583775783+584254227+585352873+586638289+588254614+590148087+591759649
1778+592848591+593962181+595955379+599290256+603213363+605800389+606080335
1768+604999490+604073145+604416558+606333310+608917180+610588458+611057138
1758+611573864+612917150+614812826+617155509+620332314+624080857+627093636
1748+628462047+628547602+628158286+628039092+628802542+630472809+632284774
1738+633784763+635754623+639028950+642590129+644264384+644074281+643421213
1728+642958606+643029337+643948359+645458826+647090036+649218146+652809392
1718+657740232+661597372+662050988+660004564+657851388+657087462+657992433
1708+660148347+662845219+665313646+667561248+670676074+675191044+679298659
1698+681028284+681128426+680742147+680130160+679710063+679924994+680836811
1688+682772377+686713048+692611969+696885515+696120041+692801179+690615735
1678+691076615+694310337+699163124+703554494+706709032+709507237+711957981
1668+712649986+711752993+711448637+712967321+715117698+716104593+716456876
1658+718050458+721704814+726999488+732336731+734700074+733853153+732913710
1648+733303026+734266819+734274678+733086428+731847273+731697893+733301894
1638+736853428+741723004+745562105+746135689+744789129+744238585+745713806
1628+748835360+752652253+756552676+759791162+761557403+762697844+765432702
1618+770947486+777858545+783211447+786198744+788142585+789862565+791432809
1608+792786157+793861405+794727736+795578170+796379962+796875195+797081255
1598+797333635+797800945+798404656+799103329+799830758+800306523+800401604
1588+800501151+801040323+801960893+803176292+805089353+808031639+811687185
1578+815262355+817384273+816739541+814456634+813077387+813447413+814169901
1568+813572203+812368652+812440692+814308623+817307113+820995940+824966023
1558+827734221+828608649+828751777+828773985+828526666+828320011+829059170
1548+831549566+835872647+841129455+846097506+850047585+851744643+849455781
1538+845500345+844124372+845783922+847799744+847194009+844268632+842136354
1528+843105625+847206274+852682776+857693337+860877167+861346561+860598650
1518+861488737+864476033+867881164+871124472+875413259+881407321+888362497
1508+894778561+898328071+897963403+896728833+897325935+899429932+901116572
1498+901155747+900901462+902749270+907145880+912975737+918907105+923451011
1488+925874844+927234265+928858926+930747933+931760667+930823486+928626313
1478+927667937+930120467+936296773+944749200+952645010+956909446+957093477
1468+955645643+955285738+956954873+958848822+958905264+958117523+958738023
1458+960852439+961900777+960932934+960166865+960646201+961209129+960157279
1448+957188022+953970435+952053504+951084114+949823704+948188505+947329497
1438+947618255+947716730+946732276+946288126+947641057+949774586+951272848
1428+952002123+952547725+953480917+955405409+958094124+960339285+961373274
1418+961270095+959954792+957215946+953182217+948149687+943052796+939598249
1408+938766569+939931004+941665869+942944319+943596791+943850897+943851314
1398+944054218+945809325+950000233+954859152+957035844+955774184+953718353
1388+953517175+955214353+957004468+958314116+960317256+963761146+967963485
1378+971738582+974771842+977742289+980896172+983180925+983963070+984113343
1368+984299100+984366020+984918767+987713519+993430731+999667349+1002600049
1358+1000769151+996311753+992970446+993155548+996816989+1002435249+1008356973
1348+1013673557+1018227822+1021797455+1023905204+1025014031+1026495802
1340+1028291216+1028522460+1027052359+1026700611+1029291208+1033356909
1331+1036986079+1040503677+1044612839+1048715810+1052378679+1055899611
1322+1058369466+1057509030+1053076935+1048410263+1047095436+1049812730
1314+1054733389+1059480556+1062462673+1063447662+1063676048+1064971347
1305+1067731269+1069755546+1068570153+1065622092+1065201995+1068809018
1297+1073006177+1073741823+1071669083+1070176000+1070267331+1070409030
1288+1069038357+1065341908+1059352550+1052531690+1046982672+1043422327
1280+1040699674+1037571214+1034545040+1033330950+1034572308+1037399270
1271+1040393056+1041286357+1037393912+1029141650+1020828303+1015524341
1263+1012228938+1008696694+1004778766+1001619704+999298692+997293825+996248345
1253+997097470+999132702+1000204973+998383957+993088569+985480742+977461332
1243+969680072+961431085+952645486+944345356+936749377+929047422+921390952
1233+914837893+909248448+903157578+896051236+889374040+884690162+882093134
1223+880521641+878928773+877139729+875655815+874765491+874206016+873686849
1213+873121480+872284680+870758078+868589542+866768288+866257873+866970537
1203+868380744+870717235+874751083+880264676+885535893+889067660+891249771
1193+893433727+896019324+898509184+901020835+904292602+908168496+911649300
1183+914443099+917221538+920420669+923914928+927732475+931738876+935387813
1173+939039549+944384711+952521946+962561286+972422371+980510428+986740556
1163+991675921+994990972+996226257+996629564+997846631+998819653+997446003
1153+995164941+995628202+998724869+1000736048+1000342147+999976230+1001338449
1143+1004394035+1010003424+1017882623+1023703610+1024168836+1021214226
1134+1018351779+1016808923+1017219971+1020971193+1026738834+1030569718
1125+1031189266+1031216891+1033829637+1038463801+1041173831+1039812803
1117+1034947157+1029251437+1027202036+1030894197+1037913198+1044782759
1108+1049760813+1051082547+1047460401+1042544386+1042392565+1047975163
1100+1054982018+1058355177+1056036547+1050899885+1046428854+1042229908
1091+1036220307+1030242499+1029887656+1037366524+1046513754+1048023150
1083+1041221819+1033913942+1031315366+1032046963+1033701988+1037114919
1074+1042843145+1047453733+1046169270+1037949516+1026567485+1016333814
1065+1009964249+1008689788+1010538191+1011091294+1009351012+1009179187
1057+1012649154+1016277967+1015845368+1012141180+1008300531+1004474291
1048+999007077+993552783+992889951+998530539+1005783165+1009109170+1008633942
1038+1008868043+1011708699+1014190819+1012679161+1006498211+997971481+991114661
1028+988584732+989626222+991397881+992258556+992744382+993913581+996340986
1018+999568755+1001962045+1002264496+1001176506+999789758+997939748+995827117
1008+995149580+995608495+993350236+986863501+979052651+971873971+965001254
998+958825960+954451498+951937466+950149315+947948093+944503071+939395941
988+933246545+927054283+920735087+914188814+908944033+906397254+905518778
978+904168228+902101620+900727791+900021200+897828551+892933195+887181273
968+883256795+881556641+880501100+879136619+877856799+876770299+875389682
958+873670417+872072905+871139535+871496701+873384458+875804957+877474985
948+878695505+880666972+883490183+886139604+888126312+890370163+894038510
938+899471192+906647729+915156180+923221732+928352916+930386421+932700169
928+938311107+946506331+954483291+960463897+964297639+966275834+966490586
918+965014233+962077186+958417592+955865813+955647548+956172312+954865165
908+952005755+950199565+950984627+953513603+955709765+956819009+958061379
898+960661026+964181779+967146035+968588153+968313387+966593169+964397603
888+963371235+965485413+971558124+979028241+983113052+982104367+978921847
878+976919957+977350830+979338848+980077054+977699839+975004991+976305410
868+980638493+982797801+981629139+981057578+982405330+982561497+980164694
858+978323971+979669043+982884369+984687999+984143052+984447646+988838243
848+995563664+1000316665+1002509909+1004973930+1008130849+1009017244+1006083234
838+1001534803+999489570+1002212341+1007175272+1009327197+1008406032+1007788985
828+1006223624+1000417046+993310525+992063689+1000273560+1015001602+1029756911
818+1037546685+1035998590+1029842526+1025419720+1026750146+1033504443
810+1041444489+1044836581+1040946636+1033602799+1028984471+1028343728
801+1027794911+1024718248+1021825795+1023532261+1029623428+1034156736
793+1031761540+1024460808+1018359519+1015315126+1012829195+1010876483
784+1011401366+1012201193+1008947347+1002462875+998715165+999821194+1000437526
774+995590753+986878028+977902981+970439592+966167595+967076257+973216007
764+982137887+990786252+997358602+1001262479+1002701144+1003823665+1006001072
754+1006946528+1003677679+998474335+998245890+1005282335+1013621283+1015173665
744+1008636680+1001287365+999781304+1003871295+1008993191+1012064733+1013019597
734+1012571041+1011297056+1009574992+1008153355+1007881982+1008343756
726+1008772188+1009595116+1010631069+1011530443+1012445655+1014188795
717+1017319279+1020623732+1021481073+1019376063+1017650189+1019217932
708+1021496076+1019198046+1012861941+1008014513+1005698383+1002602550+999477900
698+999298811+999070902+993712165+986951260+985908043+990112882+995450840
688+1003635764+1017172579+1028311101+1027485792+1019070398+1015581854
680+1021695289+1031206055+1035320695+1030152836+1019541816+1009120840+999344060
670+987126419+972787634+963563363+959514928+953104342+944856724+940637477
660+943964138+952779029+962309383+969318500+971554195+967239985+958866803
650+954012409+958831437+971003294+979259842+974037387+961317249+950985758
640+943538742+939418029+941225708+946235197+948271620+946184590+943675142
630+940986308+935307318+927577082+920681265+915699103+913417684+913207338
620+910891863+907183329+909253211+919072798+927551064+925639135+917066562
610+911465210+914811934+923133081+925708377+917092282+902817202+898263294
600+910036249
##END=
