##TITLE=<SNM>
##JCAMP-DX=4.24
##DATA TYPE=INFRARED SPECTRUM
##DATE=29/4/2025
##SAMPLING PROCEDURE=Instrument type and / or accessory
##ORIGIN=Admin
##XUNITS=1/CM
##YUNITS=ABSORBANCE
##RESOLUTION=4
##FIRSTX=4497.3318
##LASTX=599.83466
##DELTAX=-1.4281778
##MAXY=2.2367744
##MINY=0.66425824
##XFACTOR=1
##YFACTOR=2.0831585e-09
##NPOINTS=2730
##FIRSTY=0.6721248
##XYDATA=(X++(Y..Y))
4497+322646976+323431907+323555256+322954934+322713644+323518803+324873869
4487+325801519+325709730+324734954+323581923+323019942+323479346+324701249
4477+325835768+326357262+326628252+327284168+328094621+328017710+326975581
4467+326354286+327311007+329300014+330527667+329916244+327972702+325874252
4457+324586112+324499015+325076017+325346149+325347265+326050849+327380421
4447+327747693+326341954+324593980+324459043+326144155+328214365+329460588
4437+329850378+329820477+329618615+329478156+329635325+329921623+329942253
4427+329499358+328409245+326798411+325755681+326280151+327568492+327751870
4417+326419838+325008148+324677672+325248837+326173140+327108429+327454757
4407+326626307+324945086+323530592+323283951+324316752+325882521+326735263
4397+326308735+325275418+324355322+323532137+322780655+322520280+322992617
4387+323944559+325078392+326183955+326795979+326324300+324690147+322527004
4377+320770417+320265404+321351253+323243950+324490917+324724797+324968605
4367+325625723+325662318+324606198+323499089+323185495+323319459+323342349
4357+323227756+323269072+323793799+324592549+324699131+323852627+323472937
4347+324735698+326742045+327780082+327317387+325825496+323917921+322414384
4337+322071462+322679366+323130902+322661912+321555977+320498425+319808403
4327+319466826+319344392+319210828+318959295+318870710+319193518+319651635
4317+319828747+319915243+320624063+322391952+324783052+326514403+326423786
4307+324715898+322921829+322398619+323156710+324295665+325245718+326001206
4297+326329479+325815911+324835385+324481332+325286806+326668195+327692098
4287+328024262+328194479+328810480+329436296+328958865+327206971+325240053
4277+324006105+323642410+323859379+324301816+324771979+325387208+326221466
4267+326914522+327057871+326793748+326671314+326883076+326891059+326057230
4257+324586655+323454368+323281118+323736030+324281959+325068721+326501927
4247+328146009+328891855+328305725+327012520+325826641+325186433+325131640
4237+325294904+325254302+325019650+324806944+324650461+324592607+324821679
4227+325344718+325807785+325794881+325342629+325052040+325328838+325735796
4217+325700717+325415706+325259367+324960994+324068023+322737621+321651743
4207+321529596+322644888+324406768+325630072+325626896+324976388+324963913
4197+326183984+327756133+328141145+326830944+324884684+323601293+323293679
4187+323627188+324253547+324628830+324158295+323162662+322838681+323745415
4177+325034300+325602690+325526609+325794480+326879242+328090386+328318572
4167+327244540+325764923+325281542+326303527+327780626+328292763+327730640
4157+326966253+326384816+325863608+325501115+325413617+325452044+325705752
4147+326602072+328084435+329217495+329049310+327688980+326077831+324809548
4137+323835574+323175509+323116424+323680436+324570947+325584664+326487879
4127+326763075+326065241+324658959+323143577+322170834+322306515+323550420
4117+325168407+326490168+327470837+328081001+327948553+327139131+326484302
4107+326638753+327245799+327286858+326254228+324833210+324210113+324903254
4097+326473200+327966493+328366012+327283453+325546437+324485653+324679990
4087+325920462+327840855+329813067+330787413+330066804+328094449+326059691
4077+324853582+324495724+324442362+324378184+324444679+324731836+324967432
4067+324861308+324615668+324905772+326106701+327541424+327929154+326844564
4057+325338338+324691578+324963112+325230096+324957017+324447684+324018923
4047+323697432+323820810+324790635+325950018+325912507+324449458+322873789
4037+322227229+322273152+322548978+323248271+324603565+326141008+327035925
4027+326887082+326005470+325103371+324657758+324606970+324717100+324955043
4017+325353359+325775052+326000892+325914997+325556909+325160109+325064515
4007+325383603+325761433+325656024+324994242+324359900+324310200+324804426
3997+325582918+326527221+327222479+326957841+325752019+324644853+324571748
3987+325476737+326647508+327444599+327646490+327440765+327057957+326533344
3977+326026385+325912135+326172768+326304329+326139348+325960262+325736883
3967+325297765+325237736+326520440+328989767+331157918+331769770+330891591
3957+329266308+327495387+326090793+325500829+325832020+326881302+328266754
3947+329391145+329803710+329618758+329125047+328339287+327375872+326585791
3937+326181323+326487306+328097425+330860003+333240431+333820895+332947237
3927+331913491+331397777+331068332+330237678+328923958+327974763+327986236
3917+328567616+328951312+328854801+328441807+328012817+327894762+328415025
3907+329888862+332234496+334639989+336298005+337450236+338460920+338330103
3897+336199835+333450247+332403025+333850481+336194256+336883219+335545808
3887+334289084+334736356+336224957+337101734+336890086+335786125+334043416
3878+332739881+333129643+335220081+338025407+340894710+343077768+343128755
3868+341184270+339330858+338576629+337875219+336294285+334603050+334037922
3858+335233901+338788649+345241598+352039930+353183091+348060428+341097201
3848+335491472+332709352+333115022+335813450+339189197+342448347+345805152
3838+348734485+349617041+347993189+345055272+341937268+339195148+337324226
3828+336679383+337116984+338568932+341551255+345480056+347370492+346000977
3818+343922212+342496674+340455334+337386429+334886286+334406710+336293427
3808+339560703+342358532+344449715+347207858+349808574+349080440+345409955
3798+342578821+341837610+341506620+340538540+339807888+340130323+341157174
3788+342364684+343913857+346020291+348366727+350721775+353187955+355438796
3778+356921273+358123233+360305232+364251972+369859962+376071449+381106299
3768+383894600+384869604+385018905+385272699+386436804+388796545+391718552
3758+394220097+396289563+398981783+403474681+409950663+416369220+420679312
3748+424469370+430021336+436110333+438734826+437760509+437040300+438736457
3738+443143346+450321854+458783896+464173028+463941638+461188473+460084083
3728+461590109+464307536+466685074+467914444+467456385+465100163+461721727
3718+458838690+457482909+458130098+460977484+465195615+468354764+468412304
3708+465671815+462108770+460076472+460889500+463518400+465471755+465988814
3698+466613657+468847931+472821653+477873471+483286780+487523624+488002141
3688+484519984+480414358+477969867+477444739+478709732+481166412+483848274
3678+486449506+488616912+488794139+487253635+486818494+488103030+488133760
3668+485089090+481026497+478076163+476359691+475164112+474534291+475303313
3658+477595270+479795696+480225343+479721189+480613674+484056460+488054560
3648+488499715+484698241+479907600+476661697+475142138+474345963+473478571
3638+472553782+472325339+473770334+477199443+481791713+485889728+487592351
3628+486254024+483257881+480090806+477853356+477909809+480876338+485256989
3618+489004385+492102560+495050062+496728879+496225583+495216988+495930472
3608+497938392+499232484+499340240+499350597+499932006+500571899+500467062
3598+499660472+499150252+499915926+501734316+503519458+504996957+506870283
3588+508827100+509063040+507054662+504573890+503787615+505254356+507403737
3578+508300056+507602308+506033192+504209823+503152644+504312314+507918592
3568+511857350+513347667+511962587+509273229+506686933+505183854+505752845
3558+508638887+512457013+515297732+516300033+515562170+513891822+512617702
3548+512585369+513164947+512988350+511595315+509658183+508296508+508568499
3538+510527206+512493923+512425081+510319821+508228124+507754127+508361172
3528+508644838+508685983+509345561+509597410+507330317+503098108+500199992
3518+500716908+503313275+504724049+503239512+500568008+499547395+500864663
3508+502799735+503550645+502763569+501143236+499770860+499605879+500851501
3498+502630063+503442776+502448945+500602572+500025340+501727105+504132226
3488+504455949+501947422+498792994+497226110+497175122+497315724+497092946
3478+496437374+494718670+491797893+489219666+488777029+490471984+492759907
3468+494297263+494671917+493727643+491329046+488169812+485889099+485781286
3458+487612895+489519584+489505964+487639562+485991074+486077542+487208027
3448+487643110+486854088+485816194+485267117+484954381+484698699+484901391
3438+485628838+486364583+486865190+487277555+487374724+486559950+484613319
3428+481908796+479233658+477533438+477469003+478843553+480243483+479762763
3418+476949226+473617514+472033204+472795301+474675780+476120547+476619036
3408+476760497+477187397+477851954+478488156+478907674+478536454+476955806
3398+475006342+474001924+474104100+474544706+474850632+475055584+475347061
3388+475903691+476607419+476900870+476249733+474938158+474171225+474904367
3378+476762700+478659574+480063968+480977626+481451337+481869940+482885173
3368+484509970+485871759+486119430+485368692+484756096+485458078+487389602
3358+489168278+489809315+489540929+488888790+488201686+487846718+487965975
3348+488152129+487932041+487312234+486487045+485629067+485151808+485431297
3338+486310734+487446484+488802208+490078503+490424258+489592775+488472247
3328+487828177+487531979+487295810+487185251+487240817+487302334+487219987
3318+486831885+485937340+484676839+483768731+483925013+484953294+485840228
3308+485973678+485739283+485634332+485559596+485278734+484831118+484442501
3298+484545907+485552729+487141302+488200141+487936676+486827936+486040517
3288+486126240+486720353+487374209+488312188+490126343+492801281+495243140
3278+496090131+495133439+493428527+491922987+490808869+490155185+489993409
3268+489896298+489638212+489737841+490354844+490734991+490464888+490049318
3258+489764050+489068763+487543367+485675877+484486737+484627453+485874735
3248+487485340+488794196+489249023+488395737+486458147+484578354+483887130
3238+484617038+486279947+488101885+489363073+489694750+489126675+487985603
3228+486772600+485779055+484746596+483403062+482217698+481769452+481615287
3218+481006640+480426490+480808240+481700381+481861699+481121433+480088231
3208+478863410+477543825+476914089+477327055+477758763+476979412+475160507
3198+473568472+473066663+473482205+474190653+474812062+475256674+475481226
3188+475349236+474585107+473103230+471460293+470397906+469948030+469685480
3178+469557095+469642618+469495979+468544151+466891371+465146888+463658373
3168+462361362+461196113+460203541+459248337+458103717+456856550+455878084
3158+455489410+455908127+457031459+457991756+457693584+456271536+455222625
3148+455537822+456467647+456631025+455819771+455036557+454902879+454971149
3138+454561731+453442061+451814003+450198190+449091139+448449043+447836504
3128+447111717+446567791+446392682+446335170+446026869+445486634+445048976
3118+444804137+444549885+444351915+444518927+444920963+444951206+444175174
3108+442678791+441002120+439862164+439551831+439602275+439403618+438919664
3098+438524066+438466583+438610418+438518000+437907292+437159443+437015693
3088+437612181+438315022+438661149+438793768+438789276+438322175+437251433
3078+435943607+434837242+434050853+433439773+432831125+432289431+432134007
3068+432441593+432749951+432697905+432595700+432803113+433002400+432678162
3058+431952946+431403727+431242580+431048644+430253871+428867246+427717333
3048+427622568+428305065+428640233+428031785+427006566+426426674+426610911
3038+427224366+427616559+427278672+426261551+425174471+424673607+424953467
3028+425727439+426491024+426638608+425680485+423906502+422480134+422254237
3018+422781196+422949410+422346971+421585532+421388705+421694116+421817237
3008+421359806+420577823+419802450+419060324+418429902+418155421+418202431
2998+418178626+417887864+417643999+417837878+418293248+418281774+417361706
2988+415955682+414840304+414361958+414316149+414227765+413647043+412587489
2978+411690054+411531854+411907166+412152491+411915292+411329763+410812275
2968+410803234+411233139+411359406+410733362+409958417+409799302+410090522
2958+410167833+409832665+409352087+408959808+408737144+408689562+408673596
2948+408325151+407360390+406165899+405717825+406463785+407628691+408098253
2938+407618820+406666363+405685121+404971264+404774152+405038390+405350496
2928+405408122+405318994+405261740+405067632+404411916+403395138+402633069
2918+402575157+402892929+402862599+402356471+402020358+402310891+402825060
2908+402888351+402439104+401881902+401365472+400758713+400136531+399715525
2898+399389570+398815887+397961542+397220332+396970172+397227857+397718535
2888+398138311+398369673+398499660+398604697+398587787+398328270+397932786
2878+397629636+397348717+396688452+395537909+394437353+393967877+394073715
2868+394345020+394637928+394972695+395094614+394703908+394071025+393839320
2858+394101555+394204389+393699490+392979568+392654843+392812270+393188583
2848+393596056+393887046+393861352+393466269+392889438+392339675+391898755
2838+391570110+391260149+390821375+390347979+390206947+390442629+390468495
2828+389817129+388878806+388449330+388834914+389653150+390234787+390137533
2818+389472117+388705041+388136938+387761426+387505428+387302307+387070259
2808+386858211+386807910+386806250+386513371+385941433+385613819+385883808
2798+386428735+386726020+386712658+386571598+386252481+385692875+385148663
2788+384866657+384739445+384569944+384400672+384364248+384357381+384023357
2778+383135593+381960100+381046613+380665093+380631330+380623747+380482859
2768+380265718+380143999+380202798+380339309+380402228+380298021+379965056
2758+379449027+378962040+378685900+378590791+378539460+378464467+378380546
2748+378258141+377950441+377351807+376616863+376047472+375791704+375833306
2738+376107873+376372998+376198203+375424060+374481760+373999437+374184189
2728+374679702+374906400+374520416+373678747+372877679+372451351+372316299
2718+372300619+372461480+372819023+373073962+372954847+372619593+372409977
2708+372395442+372334726+371961102+371252253+370462487+369852752+369475151
2698+369307853+369403963+369760648+370215760+370593218+370821118+370869158
2688+370700487+370357622+370015443+369818130+369692321+369457411+369080297
2678+368703125+368476828+368423293+368383178+368137396+367671239+367206799
2668+366897811+366660183+366374228+366095599+365987815+366120205+366377862
2658+366558007+366515632+366205528+365721031+365376792+365510499+366002207
2648+366239463+365808414+364980479+364305421+364041784+364175348+364614351
2638+365108062+365282714+365022625+364573922+364159067+363834972+363742696
2628+363999208+364309226+364198896+363670049+363138998+362797335+362542196
2618+362392209+362468633+362673156+362774788+362703915+362550580+362455385
2608+362572697+362924575+363303607+363464066+363323693+362937251+362449091
2598+362068171+361917926+361958212+362139931+362483826+362951156+363405697
2588+363707732+363699319+363228212+362446916+361933233+362131176+362745432
2578+363085807+362952473+362733557+362710868+362787006+362856105+362956564
2568+363013532+362812042+362329747+361834978+361577950+361592915+361810314
2558+362096554+362170461+361808940+361205557+360838972+360928301+361215858
2548+361321181+361188046+361072194+361088274+361026356+360806840+360774651
2538+361197402+361788253+362063678+361900758+361505961+361104526+360842177
2528+360827441+361125899+361651199+362062706+361958842+361301552+360510327
2518+360058191+360094614+360460942+360901090+361192596+361220207+361080577
2508+361048273+361262353+361477291+361345358+360937457+360727726+361022465
2498+361613773+362046425+362091118+361905365+361795778+361884020+362023306
2488+362002018+361747166+361349564+361016084+360971964+361254084+361614031
2478+361783532+361788654+361837696+361983477+362082763+362053922+362014121
2468+362108171+362274410+362292723+362089344+361866852+361842961+361990602
2458+362141734+362216041+362229288+362194009+362122477+362045481+361954235
2448+361793489+361583158+361495203+361691256+362062992+362267086+362097127
2438+361691228+361314743+361106042+361080520+361201465+361389222+361577950
2428+361764734+361927339+361969285+361843705+361692630+361772202+362193952
2418+362742885+363045721+363007523+362968953+363293592+363898950+364336981
2408+364294920+363916003+363622094+363698118+364113630+364705368+365384918
2398+366103038+366754834+367301507+367954561+369100783+371067644+374116091
2388+378668589+385343172+394640331+406679410+421300636+438331016+457646001
2378+478962525+501554285+524168506+545458935+564723476+582061928+597768946
2368+612010540+624774062+634888111+639439866+636492536+628249981+618679972
2358+608811934+596525098+580002849+559795637+538830133+521483955+511358345
2348+510059904+517344966+530498135+544075171+553310298+557642365+559325989
2338+560696076+562881509+565675990+568417080+570874447+573078478+574663561
2328+574981962+573692791+570708494+565940943+559739098+552969751+546094479
2318+538948703+531549592+524316491+517588059+511293910+504899559+497714355
2308+489594549+481122578+472916819+465204113+458077079+451622384+445702545
2298+440004369+434373346+428901896+423781723+419212486+415290095+411881873
2288+408780865+405996741+403679948+401817180+400276418+399038922+398067666
2278+397107198+395954223+394784768+393908964+393314050+392699021+391911602
2268+391150448+390714821+390683805+390850760+390854422+390430869+389704967
2258+389111627+388844786+388609161+388106666+387455700+386915293+386550196
2248+386334313+386256315+386257317+386304385+386471940+386777180+387049486
2238+387097527+386911630+386629653+386348763+386033165+385648039+385312442
2228+385186689+385230467+385219479+385011151+384678014+384364305+384093801
2218+383764928+383313564+382829610+382468432+382268573+382125224+381958698
2208+381843418+381900901+382117470+382376042+382629693+382898995+383125292
2198+383193505+383113590+383062059+383221946+383634597+384186220+384703908
2188+385089693+385386377+385690930+385998372+386182638+386155627+386008015
2178+385968901+386227645+386755291+387299961+387627061+387745774+387839195
2168+388079970+388580491+389323046+390040450+390384918+390281168+389955041
2158+389678672+389620131+389789975+390026058+390161281+390218449+390326977
2148+390527151+390773134+391036742+391302038+391509165+391590511+391578780
2138+391639381+391953262+392567718+393343435+394023328+394406423+394510659
2128+394511402+394511517+394514207+394618271+395027059+395803406+396765191
2118+397665144+398365409+398845730+399178580+399492089+399861421+400264401
2108+400678740+401117859+401533686+401821815+401967596+402091775+402340018
2098+402757477+403245150+403668818+404027734+404409455+404797500+405088204
2088+405250238+405327606+405377678+405495162+405744435+406028587+406204612
2078+406303755+406442926+406598293+406690054+406790971+407019900+407337243
2068+407674786+408119512+408734541+409361157+409794496+409991951+410048976
2058+410163913+410575964+411318805+412105910+412631753+412913101+413212589
2048+413705785+414360785+415133498+416088731+417203679+418234134+418970423
2038+419472174+419902250+420332928+420833334+421534544+422467688+423482921
2028+424467653+425540055+426850999+428259170+429453604+430409896+431453169
2018+432804258+434290054+435592730+436660554+437772870+439214717+440962119
2008+442775130+444529942+446262351+447942027+449474033+450906496+452364853
1998+453801207+455123568+456508992+458155992+459780875+460890730+461549908
1988+462297155+463407697+464725538+466045467+467343536+468758803+470411096
1978+472132947+473601863+474855039+476288360+478112930+480228891+482564883
1968+485105857+487665314+489988774+492003217+493805012+495591127+497610320
1958+499911920+502210888+504247992+506115939+508039853+510133610+512505540
1948+515226029+518152872+521114108+524031165+526598119+528456738+529920331
1938+531724186+534064528+536535171+538850791+541070444+543243631+545319649
1928+547439044+550044224+553395678+556957092+559764277+561621409+563203630
1918+564933149+566581580+567966031+569328106+570975450+572891981+574674834
1908+575924977+576761439+577689060+579005298+580609322+582247281+583801004
1898+585440107+587399157+589474316+591066609+591936777+592433263+592797330
1888+592808947+592328827+591642810+591124006+590945921+591169100+591867133
1878+593017933+594378922+595691955+597073659+598943266+601272048+602974728
1868+602655983+600427231+597985315+596708505+596630278+596903700+596749936
1858+595997710+594939272+593881634+592929292+592208082+592047221+592665884
1848+593891649+595326286+596275882+595578764+592765284+589078260+586166353
1838+584661787+584036257+583449012+582892496+583067319+583954997+584286446
1828+583246549+581579405+580001934+578236935+576047611+573887186+572257868
1818+571188213+570396387+569761130+569500125+569711802+569891546+569393915
1808+568308409+567354750+567199727+568112470+569659898+570616247+570025511
1798+568529528+567881795+569399352+572947490+576415512+577180671+575507347
1788+573925755+573765296+574509854+575560624+577180900+579284100+580846350
1778+581484640+582437612+585202336+589750772+593904925+595241135+594039462
1768+592191887+590929898+590936422+592578615+595181506+597243904+598325405
1758+599213598+600197186+601195709+602846715+605831985+609527879+612226279
1748+613060165+612758302+612527799+613231097+615107571+617543936+619456404
1738+620950098+623825152+629095313+634054282+634692916+632111771+629480210
1728+627912753+627567455+628369754+629677236+631228613+634245472+640114552
1718+647693866+652635324+652392975+649311223+646176710+644105098+643641344
1708+645136755+647964198+650500135+652277208+654905050+659457434+663987042
1698+666025520+665822656+663996083+661293392+659655376+660167427+662078179
1688+664736407+669337432+676679490+682896385+683048604+679201407+675634500
1678+674258347+675385856+678198363+681315766+684328848+687325849+689087872
1668+688377592+686669990+686298370+687708400+689500524+690316098+690583626
1658+691836115+695517416+702585079+711386954+715003819+711844985+709105268
1648+710075866+712241785+711216136+707559328+705279588+706156222+709448620
1638+713827096+718024111+720063276+719250048+718271267+719770168+723948814
1628+729159975+734030245+738893820+744246442+749247587+753293870+757415005
1618+762621016+768067601+771995429+774495371+776631991+778581770+780153119
1608+781439886+782329910+782508224+782552173+783718996+786089724+788132723
1598+788828354+788955794+789432423+789974919+790601764+792682017+796855970
1588+801387410+803966953+803996996+802256375+799995634+799038771+801079481
1578+806268381+812556808+816777514+818289978+819194938+821269983+825017837
1568+829294338+832233771+832872920+831831363+831706612+836380828+847926482
1558+859405412+861644293+858917051+857533173+858373926+859234537+857909028
1548+854562838+851938087+852824106+857493916+863668178+868216499+867946854
1538+862660957+856239195+851717255+849497773+848223939+846969733+846684408
1528+848594072+852499009+857045499+861337909+865091256+867424788+867677781
1518+867039776+867289507+869165981+872495060+876957944+882132195+887232911
1508+890993526+891887213+890492805+889480548+889837576+891170753+893503712
1498+896838228+899277512+898552525+896105573+895731492+899450962+905303389
1488+908655989+908147027+907469022+910062700+915337782+919748705+921138592
1478+921061109+922231537+925829461+931194043+935817043+936897513+935313460
1468+934445868+935337209+935235462+931695222+926989531+924362720+924187897
1458+924955002+924792882+923243566+921108091+918730438+916224029+914045807
1448+912904106+913004822+913665888+913771984+912864105+912091564+912714118
1438+913963116+913787721+911978258+910412918+910173259+911565721+914650678
1428+917964707+918839224+916469640+913296270+912847396+916921834+923681339
1418+927527907+925407482+921031294+918320934+917162295+916018705+915253145
1408+916061109+917810657+918548348+917574145+916409554+917046070+919744756
1398+922561841+923649922+923335183+922804133+922664503+922884363+923136268
1388+923146455+923048485+923165625+923363567+923722770+924990081+927421525
1378+930485938+934048553+938304968+942561040+945777614+948116582+950510658
1368+953188629+956140022+959385037+962184497+963818622+964857718+966298993
1358+967800927+967819697+965512031+962670912+962404471+965112485+967736148
1348+968354410+969107838+972430222+977460666+982173166+986460597+991062652
1338+995052741+996286746+994717630+993561908+996111065+1002520409+1009892624
1328+1015177606+1017663471+1018647402+1019815370+1022280520+1026353013
1320+1031355416+1035604163+1038123333+1040231397+1043509604+1047468790
1311+1050766339+1053316296+1055589856+1058617301+1063896675+1070198092
1302+1073741823+1072853916+1069455422+1065785337+1062411450+1059751277
1294+1058605513+1059198595+1060143728+1058920366+1054847873+1049822008
1285+1045782476+1042680867+1039661205+1036451898+1033034749+1029227437
1277+1024569187+1019517226+1016348893+1016647837+1018439103+1017994004
1268+1014220914+1008967292+1003715386+998820567+995080209+993608032+993985490
1258+993981484+992023007+989339600+988532037+990182528+991213269+987454485
1248+979112416+970944425+965348482+960005416+952305185+942250879+931621916
1238+922412312+915415894+909546127+903432696+897297232+891870103+886625751
1228+880604051+874007181+867896896+862957269+859131875+856039708+853433212
1218+851509814+850495210+849864358+848605803+846421172+844479347+844384696
1208+846445779+849650679+853219876+856900032+859828592+861046403+861334532
1198+862620670+865706714+870029281+874913514+879847476+883837107+885550088
1188+884535198+882213798+881514048+884665157+890668601+895803367+897980616
1178+899105436+901547409+904964444+908351951+913053349+921172297+931800745
1168+941105057+946630156+949983900+954501376+961453616+968729465+972703873
1158+971735164+968183192+966306089+968078356+972359492+976954108+979981782
1148+980091197+977544901+975360155+976817339+982551768+990562275+997321265
1138+999563579+996814936+992014194+988084078+985069794+982433541+981696937
1128+984957061+992218145+1000882049+1007379062+1009181085+1007208302+1006371783
1118+1009249985+1012080003+1010598670+1006464488+1003908693+1004472477
1110+1008947492+1018331519+1029650447+1036316846+1036342254+1034448670
1101+1033653582+1031628152+1026232267+1018979881+1012514228+1009459429
1093+1010869574+1014031270+1014417883+1010880790+1007378948+1008682539
1084+1014519859+1019150069+1017960013+1012007899+1005156776+1000243415
1075+999215306+1003420791+1011385517+1018096895+1020131253+1019322546
1067+1018031315+1014206379+1004595396+992287159+985337036+987512168+994923526
1057+1000705223+1001523544+999065376+996644748+995748943+994970337+992119489
1047+987261178+983331520+982510795+982817522+981041708+978053062+976698654
1037+976725321+976153183+975268481+976174471+981406348+991191409+1000086962
1027+1001448808+995543390+988191432+983580106+982082063+982316801+983270518
1017+985048850+987446474+987487104+982399778+974585669+968837849+967789711
1007+970440042+972721384+971242798+966351412+959622293+951245889+942026613
997+934363235+929565984+926509984+923022390+917897754+912277718+908611811
987+907394515+905768860+900663737+892785249+885872838+882579639+881797542
977+880461561+877539868+874538861+872995610+873456731+875244105+876144601
967+874034534+869326040+864410333+860892296+858408319+855871866+853306401
957+851821748+852071308+853408777+854861325+855945630+856813107+858466574
947+861739859+866226319+871033985+875816300+880262474+883972903+887413743
937+891308437+895000325+897854778+901456765+907634918+915458069+922010705
927+925823796+928628463+932614431+937459980+941470670+943374039+942642013
917+939577887+935566110+932790628+931904838+930739045+927028616+922019689
907+919485354+920713236+922200120+920373032+917564760+919502751+928060044
897+938714815+944850107+944515969+941506607+939767875+940331143+942196343
887+943817077+944954143+946395876+948191319+950104130+952278804+954179141
877+954383092+953019299+953114064+957286530+964089183+968841626+967974320
867+963178042+958444884+955537783+955172686+957925164+962278118+964747616
857+964412620+964552021+967358118+970915927+972086756+969327354+963618562
847+957869999+955779674+960014115+969622636+979591506+985496924+988068169
837+989644153+990697326+991142997+991065857+988978051+982931401+975223730
827+970039351+968355211+969654797+974577199+983372493+993778792+1002435830
817+1007374942+1009392476+1010440842+1010960104+1010961936+1011680113
808+1014389271+1017876693+1019865843+1020970748+1023734499+1028413351
800+1031054526+1026277018+1014707329+1004967590+1003080529+1007359033
791+1013637903+1019335136+1022562640+1019607413+1009677228+999732737+994889649
781+991607437+984261545+973219244+964689476+962386960+963666631+965165018
771+966882119+969740406+971747296+969781952+963830296+957162408+953744401
761+954883927+959037394+964319915+969916889+975040495+978997965+982131964
751+985000781+987235313+987692542+986124799+984150184+983023533+982007556
741+979897661+977400808+976883721+980192142+986054641+989500288+987672399
731+982749310+978378330+977419349+980806169+987013622+993445054+996480397
721+991910273+982451395+979106121+988262620+1003377872+1011050978+1007048300
711+1000127019+996753018+995244331+996149520+1000813036+1001134871+990355806
701+976701172+967865134+962045325+958163106+959203233+966160165+975982995
691+984396024+990081468+995831577+1001221052+997769796+984456454+970668142
681+966277820+972949255+979052901+974141372+963463024+955256006+952251909
671+950955413+943947093+929707216+921539626+928481852+942723788+952399435
661+951266432+942937124+933690438+925176807+918130317+917087673+926746896
651+943355784+955714094+959004146+961493330+971000277+982640353+985953123
641+980038778+973367457+970036146+964149040+952561154+942210649+934859779
631+926233357+919425954+915818874+912694547+910939391+911235360+909607645
621+906416650+906187577+914731881+933833272+953378388+957776664+941819286
611+915331315+891312157+877473486+875192659+878639852+877375288+869244608
601+862662673+866480171
##END=
