##TITLE=<SNM>
##JCAMP-DX=4.24
##DATA TYPE=INFRARED SPECTRUM
##DATE=29/4/2025
##SAMPLING PROCEDURE=Instrument type and / or accessory
##ORIGIN=Admin
##XUNITS=1/CM
##YUNITS=ABSORBANCE
##RESOLUTION=4
##FIRSTX=4497.3318
##LASTX=599.83466
##DELTAX=-1.4281778
##MAXY=2.1521826
##MINY=0.56528348
##XFACTOR=1
##YFACTOR=2.0043762e-09
##NPOINTS=2730
##FIRSTY=0.57468581
##XYDATA=(X++(Y..Y))
4497+286715541+288457251+289690099+288956629+286230972+283652484+283368642
4487+284957028+286276797+286696419+287640815+289826949+291826661+291986915
4477+290640471+289406851+289123217+289488510+290031125+290369833+290047808
4467+289034422+288173261+288251856+288854690+289084678+288832327+288295957
4457+287179709+285502498+284293382+284485157+285810101+287224018+287986035
4447+288284181+288749717+289288913+289146502+288282961+287481661+287079524
4437+286941692+287240760+287996056+288600109+288627259+288245492+287648844
4427+287021656+286709117+286733918+286740252+286640930+286616515+286512554
4417+285988554+285137176+284464311+284428448+285144789+286389472+287825900
4407+289155839+290034605+290120010+289340597+287888408+286073305+284402369
4397+283528837+283950214+285743430+288371876+290630837+291222192+289971889
4387+288099512+286929887+286832378+287316768+287589875+286938838+285162096
4377+283065263+282235028+283763404+286923017+289440781+289713056+288495226
4367+287560376+287477766+287609056+287323311+286371718+284757104+282984437
4357+282024637+282630296+284684397+287120473+288765092+289384905+289353830
4347+288603232+286992781+285254163+284289248+284137856+284497974+285401808
4337+286610300+287138940+286226065+284382980+282896623+282481610+282842531
4327+283503263+284462914+285648954+286404667+286316496+286058080+286571107
4317+287813321+288964272+289340151+288643436+286921739+284814557+283373965
4307+283188256+283956994+284948315+285499733+285344267+284843432+284619451
4297+284792492+284930205+284705897+284244672+283915689+284052688+284827493
4287+286087282+287228597+287585415+287154343+286563048+286165907+285685353
4277+284881020+284061550+283800844+284403826+285610593+286768235+287340261
4267+287086542+285973864+284479567+283630836+284031069+285130604+285854825
4257+285668403+284863831+284150940+284039009+284475641+285144938+285924649
4247+286797883+287530995+287669839+286890752+285526972+284583142+284755142
4237+285595725+286156867+286272753+286509699+287019426+287278288+286999323
4227+286625288+286625199+286757946+286462268+285803053+285516832+285936008
4217+286389977+286208996+285743459+285612080+285569675+285134292+284681602
4207+284825470+285410848+285870437+285840046+285159836+284140175+283725341
4197+284585967+286301836+287915349+288865484+289054286+288484223+287199247
4187+285438950+283710769+282604484+282367121+282727686+283236787+283638092
4177+283894278+284093845+284436834+285109996+286103607+287228657+288167997
4167+288522525+288260361+288038045+288426801+289044324+289136064+288605224
4157+287789472+286772101+285666262+285148476+285860000+287375291+288319746
4147+287804102+286494206+285725201+285862914+286164123+285993133+285517070
4137+285244855+285388694+285693620+285690973+285256363+284899219+285182139
4127+285877277+286130787+285538599+284562028+283903616+283941352+284598902
4117+285381944+285798800+285989892+286399701+286838058+286796961+286523884
4107+286677685+287131208+287176587+286693000+286176672+285863598+285582938
4097+285316135+285296568+285550019+285755919+285618474+285168430+284615050
4087+284018104+283323680+282826383+283170979+284390623+285404455+285194093
4077+284150048+283523752+283925621+284971153+286025963+286763745+287089546
4067+286958464+286491173+286009935+285740218+285733022+286083713+286723213
4057+287116666+286842638+286274686+286031048+286086092+286055017+285995512
4047+286207152+286450522+286098909+285083054+284045284+283483577+283355231
4037+283535706+283991221+284458899+284644906+284713064+285013321+285503688
4027+285883552+286060637+286167275+286241410+286206379+286185533+286440411
4017+286904432+287212242+287176408+286805436+286085824+285149725+284356514
4007+283967194+283997883+284408138+285196383+286305434+287491445+288350524
3997+288625802+288393049+287820309+287122852+286795355+287248521+288223546
3987+289143201+289801286+290177254+290025505+289230361+288222089+287674745
3977+287934857+288751531+289497312+289747878+289610938+289343600+288850943
3967+287978214+287110481+286862651+287297320+287933965+288313531+288209183
3957+287706921+287413325+288031860+289609065+291588227+293206499+293528345
3947+292110622+290042009+289129254+289826979+290804056+290733906+289754658
3937+288897779+288953180+289985181+291351222+292183508+292165100+291705154
3927+291316578+291198313+291264686+291263110+291104283+291173036+291928392
3917+292933333+292802013+290944743+288605135+287377105+287581727+288587352
3907+290236848+293106879+297222188+301237312+303570348+303728670+301917968
3897+298651182+295198984+293263030+293707631+295476641+296378988+295991452
3887+295938609+297056046+298440494+299450876+300395569+300638255+299121269
3878+297049296+296713086+298389792+300387749+301568823+302008994+301635672
3868+300662551+300181313+300728210+301308057+300648455+298877780+297124472
3858+296734111+299443739+306640066+314949071+316212696+310168153+302898465
3848+298098932+296565411+297570173+299757735+302070609+304541062+307586127
3838+310357639+311251541+310072518+307731720+304860172+301962069+299890542
3828+299197545+299615085+300915525+303480215+306750242+308362061+307824025
3818+307771152+309050508+309101567+306356729+302679093+300530249+301048421
3808+303457585+305413285+306065572+307177775+309586344+311299507+311065594
3798+310328139+309682752+308040928+305357052+303317820+303293316+305251604
3788+308483359+312188175+315185482+316571743+317162444+318746221+321759140
3778+324964221+327671114+330719004+335235498+341492841+348472115+354356077
3768+358184540+360310397+361306892+362123626+364286060+368429797+373234416
3758+376850942+379281338+382240432+387648271+396185093+405270686+410782219
3748+413233134+416791642+423063943+428163911+429184226+429141078+431372264
3738+436760178+444285934+451619170+456448025+458630501+460048701+462185322
3728+465135853+468137799+470177358+470559393+468865202+464931171+459688434
3718+455072112+452556251+452718170+455836389+461195429+465919043+467098868
3708+464750458+461115287+458745228+459070077+461358240+463507738+464512560
3698+464801725+464810973+464929863+466019257+468996105+473922081+478866227
3688+480442212+478018953+474721835+473464901+474858478+478101028+482625789
3678+488077282+492505813+492632256+488934369+485533081+484133914+483075327
3668+480977512+478771068+477529775+476822385+475661413+474337868+474313096
3658+476046213+477892689+478446664+479151377+482722554+489701977+495994052
3648+496296867+491092491+484489958+479476911+477053087+476654102+477039170
3638+477485110+477997988+478651554+479763340+482552397+488140711+494748418
3628+497758185+496202094+493481492+492267796+493518872+496735521+499572188
3618+499752574+498159133+497382723+498436760+500668422+503300942+505481456
3608+506199848+505900929+506412708+508353361+510391255+511517999+512549585
3598+514507188+516949390+518681109+519508637+520299232+521599761+523015730
3588+523876564+524145211+524256368+524549161+525133023+525722950+525887635
3578+525589489+524817094+523211758+521058781+520314576+523315660+529978946
3568+536498363+538062245+534038616+527857966+523030420+521455773+522859966
3558+525039648+526166392+526835005+528581592+531356138+534028327+536321010
3548+538490581+539909821+539519787+537396369+534796679+532725003+531161240
3538+529718150+528501361+527717131+527016521+526326914+526617566+528467580
3528+530463782+530612409+528987565+527287308+526334527+525666093+525179353
3518+525377522+525932360+525493617+523471007+521155427+520381366+521698191
3508+524262554+526795811+528036509+527003139+523961256+520602433+518719173
3498+519109266+521003053+522424791+522092210+520730244+519950533+520587208
3488+522378818+524518116+526190955+526747518+525756613+523530006+521485332
3478+520747789+520786626+520539628+519910388+519146200+517970983+516503866
3468+515674554+515659328+515007488+512519669+509469281+508540111+510600129
3458+513568918+514719572+513455976+511394530+510302816+510314889+509940854
3448+507986760+505252122+503614135+503808081+504892658+505609088+505740348
3438+505958203+506642755+507423179+507838966+507859187+507643473+507133658
3428+505929061+503688418+500838995+498529956+497499085+497355662+497386321
3418+497575658+498284624+499360637+500041025+499664314+498332977+496889174
3408+496263383+496658650+497452576+498072924+498756287+499905245+500825256
3398+500194529+498138019+496573364+496886824+498428463+499749957+500075163
3388+499233004+497761070+497108962+498100818+499611322+500207613+500051433
3378+500002961+500304795+500960263+502070950+503226777+503769601+504079285
3368+505462186+508380065+511522936+513056426+512467212+510674770+508919974
3358+508211574+509199267+511686550+514407925+516028843+516400321+516183834
3348+515497022+513941348+511897030+510713369+511381803+513550124+515718684
3338+516378613+515387411+513931951+512933195+512265415+511649795+510983859
3328+509697782+507611000+506053541+506191224+507130327+507400520+507326950
3318+508246842+510207657+511770528+511829110+510832199+509898746+509433299
3308+509190583+509031311+508905106+508338789+506920144+505420435+505310229
3298+507070436+509745540+512135820+513692447+514176034+513495467+512222118
3288+511304843+511095790+511461261+512571055+514588549+516799633+518072685
3278+518221133+518023262+517930838+517744921+517565070+517957661+519099512
3268+520501802+521589829+521996991+521510430+520397781+519342941+518691696
3258+518186579+517670994+517482043+517729993+517783996+517082196+515958426
3248+514932490+513852552+512429030+510867110+509679166+509530956+510963518
3238+513531866+515705897+516330795+515560541+513972453+511949903+510182023
3228+509496044+509853784+510324168+510152108+509277476+508143178+507304349
3218+506854246+506397839+505920437+505960463+506304464+505574295+503015464
3208+499877054+498208853+498777549+500544715+501978942+502693291+503554541
3198+505233625+507087922+507631875+506000133+502813013+499502424+496995157
3188+495478349+495056467+495697572+496542407+496292555+494802154+493277971
3178+492603113+492392603+491831818+490821317+489991082+489904577+490436576
3168+490782807+490141107+488429728+486199196+484135044+482886049+482801982
3158+483473509+484013151+483905204+483183541+482119750+481211128+480892256
3148+480864719+480291801+478822424+476907196+475150914+473860763+473087832
3138+472633358+472029840+470955017+469762375+469134532+469161682+469314561
3128+469285984+469253570+469400591+469688121+469959562+469980616+469652644
3118+469238196+469012847+468814708+468232333+467094824+465636123+464238472
3108+463061263+462062002+461369719+461255260+461592034+461804091+461576066
3098+461190641+461035442+461146570+461351252+461561940+461705363+461497857
3088+460601457+459138265+457841423+457537776+458504623+460150432+461203934
3078+460712674+459198810+458196724+458410743+459025055+458925881+457879279
3068+456407195+455244469+454883786+454992446+454582696+453307473+452021783
3058+451586251+451775380+451812701+451446873+451026626+450835564+450796906
3048+450753757+450790126+451129903+451650573+451698688+450810525+449521445
3038+448777687+448584960+448057004+446766437+445172877+443803090+442848316
3028+442419475+442552906+442963399+443155889+442905531+442465062+442138161
3018+441847568+441425716+441044573+440886103+440696856+440171815+439441765
3008+438815974+438395846+438144210+438078342+438230150+438482501+438537455
2998+438181024+437542506+436930038+436509404+436243434+435993403+435696179
2988+435486680+435421437+435147230+434262576+433006623+432147960+432166843
2978+432793021+433243748+432883541+431837949+430850553+430405416+430266216
2968+429952815+429299428+428521442+428048620+428155555+428474963+428201291
2958+427098991+425876284+425292036+425396235+425804944+426252044+426618704
2948+426803938+426846046+426878073+426756358+426056373+424679300+423131654
2938+421950282+421215624+420838109+420838020+421053258+421109432+421040441
2928+421334067+422043003+422536315+422398958+421879775+421248900+420400942
2918+419222722+417836282+416469944+415344865+414598936+414238729+414220708
2908+414434251+414601731+414467349+414124210+413943111+414148535+414584365
2898+414894048+414870943+414554836+413983196+413156411+412404505+412317345
2888+412969602+413612135+413435971+412372508+410997903+409947345+409519456
2878+409645304+410104477+410680577+411107366+411114890+410691907+410151135
2868+409794585+409577057+409226455+408678338+408155735+407730641+407205452
2858+406652874+406540646+406993722+407441298+407348993+406885419+406546147
2848+406475283+406475462+406439033+406368497+406085487+405430286+404725632
2838+404466829+404523330+404236217+403320279+402141138+401207001+400754847
2828+400678124+400644521+400399754+400029882+399863175+400107883+400550581
2818+400642678+400090814+399310924+398975637+399185106+399394367+399048047
2808+398042898+396742161+395754498+395485762+395719110+395831220+395491828
2798+394868595+394194154+393575887+393164026+393064019+393204558+393576571
2788+394250536+394916294+394958134+394268884+393420064+392836678+392364748
2778+391751328+391039924+390392068+389879457+389534624+389401669+389500813
2768+389791821+390083246+390026062+389447256+388645658+388061857+387719789
2758+387295379+386665930+386086738+385839710+385898025+385935524+385614956
2748+384926509+384225572+383846452+383720217+383464804+382863814+382143459
2738+381677149+381550022+381590138+381664689+381727762+381721131+381580830
2728+381259817+380766981+380266919+379994199+379951883+379889524+379679757
2718+379477306+379404123+379306703+378950124+378322103+377658724+377253376
2708+377264527+377571237+377801552+377656524+377203090+376744066+376491507
2698+376488504+376707965+377028592+377144002+376694672+375659489+374537710
2688+373914180+373877246+374063758+374155349+374080411+373890806+373720768
2678+373747026+373969283+374112735+373892828+373325620+372690581+372236731
2668+372007427+371925084+371929069+371984113+372022236+371945484+371687424
2658+371252398+370693724+370094072+369591662+369346121+369412138+369682895
2648+369961950+370071323+369959392+369729523+369470899+369110899+368575837
2638+367978743+367486591+367124986+366829517+366579545+366397524+366268345
2628+366121740+365920746+365729952+365643387+365668901+365744404+365829096
2618+365916880+366004040+366068867+366075707+366015340+365932879+365866595
2608+365739379+365391036+364810327+364247788+363930491+363746775+363462932
2598+363209571+363396975+364056637+364599312+364421691+363621432+362896765
2588+362741863+362981694+363198568+363332267+363593717+363960139+364105971
2578+363855762+363430221+363123036+362946277+362780106+362669305+362708022
2568+362772195+362602277+362105248+361508184+361237248+361541668+362177153
2558+362605488+362551961+362227112+362009524+362054873+362230829+362367918
2548+362479670+362629754+362684233+362426321+361873179+361287087+360929854
2538+360922152+361245128+361762735+362276059+362624996+362745759+362631865
2528+362325245+361995310+361891556+362104743+362476072+362806780+363013840
2518+363058684+362900809+362568466+362178729+361876123+361782510+361961350
2508+362361405+362789027+363017201+362989545+362848442+362715724+362569982
2498+362414278+362384124+362544616+362719769+362664398+362332292+361902321
2488+361620263+361656394+361994061+362381061+362511905+362332352+362072032
2478+361992247+362203173+362625502+363024992+363205556+363195595+363126039
2468+363045570+362991865+363028531+363111289+363150126+363190628+363290546
2458+363322245+363141175+362828458+362592107+362531710+362583334+362604180
2448+362491089+362287121+362162493+362228033+362399261+362508248+362497869
2438+362422545+362338478+362305202+362391767+362571053+362706922+362721256
2428+362693213+362755037+362947972+363222983+363563087+364004269+364469033
2418+364750823+364806372+364858888+365083226+365424134+365778483+366081892
2408+366223263+366159150+366060244+366099943+366195846+366175654+366101608
2398+366237716+366745658+367560696+368550917+369737880+371428353+374185948
2388+378641541+385340481+394791189+407489264+423694729+443256936+465822516
2378+491111939+518773354+547985983+577340400+605105063+629812736+651049656
2368+669159762+683287872+691411614+693899611+693855719+692469844+687247625
2358+675513662+657283357+633672632+605522633+575956190+551247565+536865499
2348+534975756+544952962+563500503+584689665+602164524+611901750+614177959
2338+613538013+614157499+616168987+617764866+618414090+618507346+617668696
2328+614982589+610044242+603124443+594996359+586624192+578326071+569499638
2318+559712334+549528276+539875326+531063939+522581031+513614416+503748666
2308+493208475+482573451+472461566+463341061+455346587+448282859+441853694
2298+435830116+430155267+425013101+420560155+416577653+412720642+409021773
2288+405772265+403060049+400762043+398833077+397336728+396271242+395517254
2278+394955309+394542734+394213483+393798262+393181898+392473467+391875749
2268+391430106+391020684+390591753+390202612+389866789+389511488+389118986
2258+388730915+388325239+387870646+387418134+386993694+386568749+386207025
2248+386009391+385935137+385913132+385999965+386244732+386550461+386747678
2238+386688560+386344381+385928893+385773010+385960533+386202386+386147223
2228+385740329+385211957+384786001+384508790+384297328+383989340+383382848
2218+382428223+381404637+380759130+380726003+381134950+381581960+381766301
2208+381676852+381516360+381478207+381570184+381682799+381837582+382212063
2198+382846596+383518420+383981727+384168388+384190958+384332745+384885888
2188+385793112+386618559+387028992+387134441+387280302+387689516+388350903
2178+389107032+389785636+390276776+390523090+390505426+390284924+389998852
2168+389759765+389639507+389750249+390159166+390706123+391106951+391276305
2158+391368966+391495766+391592055+391612039+391666428+391849699+392080400
2148+392274258+392528392+392923808+393325707+393637086+394058522+394832583
2138+395903481+397055235+398226347+399457113+400622902+401508240+402211972
2128+403206534+404814904+406836918+408891822+410949699+413301262+416122762
2118+419235450+422231983+424785938+426898680+428871896+430977056+433118465
2108+434895177+436046068+436691693+437076464+437278796+437273235+437097845
2098+436848557+436592520+436345582+436146966+436143814+436508215+437214207
2088+437947557+438252334+437792507+436557995+434769031+432533950+429806954
2078+426739259+423753996+421184518+419117482+417567963+416511250+415809272
2068+415340434+415095994+415040504+415067982+415136556+415241439+415316645
2058+415355957+415481954+415734037+416000007+416259464+416647327+417225717
2048+417912885+418619680+419299623+419952058+420681751+421653653+422941574
2038+424462783+426014086+427407871+428702096+430216674+432179779+434469547
2028+436848022+439330726+442144168+445361530+448779352+452212786+455675481
2018+459066152+461950576+464026058+465560798+466979414+468284433+469215388
2008+469707182+469878826+469767281+469367553+468863655+468571903+468589983
1998+468691804+468747769+469042138+469819262+470695589+471039322+470876749
1988+470857895+471421951+472463439+473659977+474790796+475839331+476974372
1978+478377644+480071686+481957325+483920311+485892724+487961693+490342696
1968+493057499+495753032+498007383+499666633+500863320+501996844+503654934
1958+506212635+509468508+512807407+515649337+517729814+519238861+520815173
1948+523103812+526175670+529538894+532631747+535102853+536904158+538452874
1938+540438133+543156356+546128476+548643177+550600185+552469469+554559106
1928+556796240+559198712+562007515+565255775+568630358+571822950+574603561
1918+576597920+577660432+578381323+579470420+580887162+582094614+582925651
1908+583764420+584901870+586186817+587393257+588590955+590028335+591843259
1898+593977858+596161584+597952421+599194248+600371011+601899565+603243630
1888+603538385+602916104+602236429+601946729+601941495+602049798+602264560
1878+602748267+603628549+604670423+605509549+606281588+607419751+608647959
1868+608797776+607269757+604952451+603066871+601986636+601303452+600511430
1858+599427210+598170216+596971389+595965853+595192328+594768393+594869976
1848+595579507+596750025+597607350+596712793+593578844+589665540+586590530
1838+584768469+583809204+583393240+583595631+584413465+585187348+584924887
1828+583496368+581676686+579872587+577880428+575708360+573798752+572451417
1818+571500182+570649280+570007134+569955510+570378433+570474544+569700245
1808+568501239+567735148+567890555+568938971+570382061+571435711+571641374
1798+571360179+571464319+572676825+574957673+577013171+577266949+576047067
1788+575051107+575147634+576066218+577457981+579375855+581599905+583434574
1778+584703463+586285544+589275744+593780165+598176104+600335624+600217388
1768+599215302+598159689+597553882+598026704+599560552+601239160+602562944
1758+603868053+605168879+606346296+608230032+611851316+616679278+620626542
1748+622546557+623253293+623710057+624166643+624770428+625744026+626978954
1738+628480210+631065983+635310738+639489595+640803090+639726542+638374270
1728+637539367+637240983+637427019+637991968+639213277+642024875+647131297
1718+653450225+657637647+657610407+655189081+653040327+652532533+654032302
1708+657254869+661049342+663846607+665671523+668479255+673399165+678483878
1698+681272638+681917341+680646312+677575643+674514371+673410286+674881923
1688+678639820+684452859+691576537+696594223+696402655+693405854+691406142
1678+692198343+695759438+700336180+703776662+706062445+708408417+710506916
1668+711126581+711080547+712380660+715272192+717769170+718245739+717740979
1658+718316335+721278582+727308048+735393132+740529112+740565927+739868886
1648+740470173+740487302+738124915+734944456+732905075+732466391+734007257
1638+738167855+744120005+748003036+746963778+743747813+742034471+742816561
1628+744873011+746718981+748359823+750193779+751628959+752573116+754367046
1618+757826143+761609614+763631509+764301132+765385591+767301443+769066468
1608+769839458+770253995+771726287+774596586+777498883+778782045+778383804
1598+777627526+777467361+777908662+778753795+779850683+781002704+782566111
1588+785262447+788580232+790799762+791366673+791574417+792559018+794242503
1578+795902853+796258094+794362820+791808687+790950767+791991869+792937513
1568+791869767+789673017+788592068+789734335+793279789+799623994+807896363
1558+812601689+810935510+807895174+806395108+805599874+804425907+803349180
1548+803609619+805907119+810106733+815800466+822949302+830414423+833332421
1538+829330322+823716880+820977960+821038029+821269266+820534042+820504186
1528+822713902+827165093+833092501+839685666+845464566+848602976+849872757
1518+851972624+855251334+857857864+859232082+860749871+863544935+868183293
1508+875464876+884133285+889153053+889370729+888421992+888585963+890402374
1498+893801342+897792201+900885886+903266948+906587410+911490013+916347534
1488+918723659+918113926+916025836+914550333+915211392+918023585+921762747
1478+925347514+928468498+931363241+934943071+939998702+945109049+948223848
1468+949691916+950566846+950548528+949134938+947474409+947341068+949638925
1458+954231903+958903447+959915584+956496335+950524679+943727040+937580647
1448+933507892+932244534+933331490+935607520+938159393+940764079+943629026
1438+946631061+948596812+948574450+948062969+949090332+951241287+952038007
1428+950385211+947881512+946152529+945670786+946705404+948743714+948755252
1418+944159776+938128883+935034959+935273095+937008086+938731597+940087378
1408+941288942+942592623+943684932+943900884+943895650+945430390+949222782
1398+953641321+955717517+953830391+949700005+947107273+947667761+949192925
1388+948472213+945769811+945047612+948383596+953515889+957386609+959828454
1378+962730810+966955344+971274502+973763569+974077595+973682149+973947286
1368+975296346+977683534+980697643+983652693+986751672+990844291+995524875
1358+999388221+1001321261+1000946691+998847597+996471353+995249627+995532072
1348+996710738+998605179+1001941699+1007119550+1013147053+1017937368+1019895864
1338+1019354764+1017929636+1017005878+1017666997+1020866131+1026486947
1330+1033017129+1038712765+1042774041+1045621562+1048612535+1052869839
1321+1057254181+1058456399+1054859737+1049242370+1045728259+1046513085
1312+1051886726+1060327942+1067915819+1070903699+1069674718+1067270521
1304+1065462971+1063989193+1061911392+1059044364+1056808360+1057043403
1295+1059993220+1064888448+1070499392+1073741823+1071410422+1064284781
1287+1056046611+1048707099+1042802351+1038962439+1036373038+1032954205
1278+1028945743+1026540950+1025375131+1022938698+1019007671+1015525677
1270+1013176315+1011561820+1011314049+1012650917+1012949479+1009220427
1261+1002627797+996854547+992887597+988714569+983375661+978306054+974823702
1251+972765587+971302455+969317077+965378556+958863659+950761922+942290611
1241+933551784+924429881+915722873+908347439+902124146+896117280+889928362
1231+884007259+878845109+874422942+870424590+866874675+864197133+862307330
1221+860024639+856172892+851231571+847012271+844835326+844691160+845883207
1211+847856274+850224192+852397034+853981375+855583737+858262885+862100538
1201+866278384+870369933+874337953+877665552+879725748+880926598+882487150
1191+885056924+888183559+891035183+893319480+895541388+898564775+902778663
1181+907667289+912430721+916485098+919263866+920874614+923187935+929057652
1171+938925068+949243776+956389519+960813709+965405795+971139792+976886814
1161+982170529+986923018+989729085+989039894+985733885+982891895+983054677
1151+986051895+989413394+991082368+991613237+993770199+999289612+1006148807
1141+1010286924+1010141806+1008351743+1007976696+1007929474+1004960030
1133+1000515500+1000233591+1006045321+1013412191+1017641661+1020084160
1124+1023824036+1027787893+1028925878+1026881858+1023798343+1020561978
1115+1016762033+1014351888+1017031928+1024828560+1032809326+1036807083
1107+1037842177+1038830644+1040088767+1039741198+1035900810+1029508847
1098+1025912662+1030030320+1040652348+1050785971+1053801924+1048961412
1090+1041067956+1035906401+1035372320+1036028086+1034505657+1033646489
1081+1037532315+1042841129+1040731925+1028607927+1015047383+1009351509
1073+1012705277+1018430293+1018425535+1010251002+998314825+989424337+988124344
1063+994287033+1002945034+1008014403+1007698356+1005228974+1004956819
1054+1008051158+1010340570+1006364699+997221564+990187871+991001780+998732811
1044+1006418107+1007694549+1004160217+1002129282+1004028065+1007806361
1035+1010413962+1010360316+1008224467+1004847267+1001118334+998109162+995901290
1025+993822953+992115440+991581775+991822231+991972285+992204235+993534323
1015+995281327+994908006+991690316+987510210+984653887+983442867+981638113
1005+977855297+974543637+974112328+973840173+968606297+957447749+944025364
995+932444666+924528906+919419332+914827960+909695191+905016212+901841939
985+899779125+898148869+897150292+897002617+897106995+896039249+892320011
975+886354361+880730273+877081631+874371259+871492038+869255083+868063868
965+865902505+861162089+855622158+852111199+850998193+850934318+851484278
955+852832268+854434868+856127037+859053421+863663766+868103359+870035032
945+869383488+868466986+869943025+874483249+880475008+886618487+893342318
935+900621403+906830185+911508093+916950486+925479190+936489408+946547440
925+952034439+952507856+951264185+951400262+952169862+950496190+946056478
915+942307145+941330395+940895399+938843290+936985604+937501605+938889205
905+938392355+935943254+933200468+931673401+933057551+938009815+943781756
895+946222055+945223002+944846112+947618873+951702393+953901760+953573282
885+952606822+952731896+953875651+954902419+955498710+956720495+959259878
875+961960615+962897517+961983513+961815022+964901808+970762783+976725400
865+980634065+982024281+982025709+982442684+983808100+984751842+984491105
855+984849142+987802408+993091119+998086443+998783008+993587731+985525070
845+979421558+978485072+982940962+989489759+993663085+994293932+993499293
835+993625260+995991750+999323274+999669773+996129612+993556805+995814754
825+1001596747+1008000367+1013070331+1014659133+1012021320+1008091839
817+1006709770+1008384097+1010695633+1012654247+1015702078+1019629061
808+1020985318+1016999455+1009420975+1003287845+1002686915+1008190924
800+1017227599+1026717828+1035380052+1042075216+1042746802+1034544078
791+1021614677+1011118259+1006006782+1004393595+1003705594+1003538471
783+1004199946+1004321512+1001936703+996840095+990872839+985621061+980867442
773+977175146+977060658+980556093+982924368+980757296+977635836+978652017
763+983449409+988361230+991617698+994317305+998511923+1004345778+1008484609
753+1007193179+1001330658+996283057+997880661+1007497451+1019253182+1024844737
743+1023336107+1020490847+1019144938+1017492380+1014887158+1013383524
734+1013567895+1013068190+1010393978+1007185566+1004874268+1003150340
726+1001060525+1000437470+1003504570+1007988353+1010356271+1010229829
717+1008501143+1005454620+1003155812+1004589861+1010365074+1018139343
708+1024617069+1026602566+1021947258+1012265284+1003179601+999407371+1000962868
698+1005006777+1008282395+1008818974+1008865840+1010585605+1011041418
690+1006279056+997549864+991029614+991226950+995563712+996571508+989554349
680+976495115+963474955+955884938+956799001+965600336+975911908+983198843
670+988262205+987196660+975853028+961993981+954349484+956395407+966596772
660+978121207+985954951+989530321+991176992+994398309+997108622+994252656
650+986384238+979527363+977765728+980210487+985110651+991431305+994679624
640+990524021+981275319+974191310+968046999+955119025+941500255+938929291
630+949098539+963299922+968448214+962509089+957577879+959158771+955150368
620+935577426+911988944+898338534+898222439+910989475+934274816+961864623
610+981689202+985637357+978531105+969520480+971201943+992624304+1023312555
600+1036062700
##END=
