##TITLE=<SNM>
##JCAMP-DX=4.24
##DATA TYPE=INFRARED SPECTRUM
##DATE=29/4/2025
##SAMPLING PROCEDURE=Instrument type and / or accessory
##ORIGIN=Admin
##XUNITS=1/CM
##YUNITS=ABSORBANCE
##RESOLUTION=4
##FIRSTX=4497.3318
##LASTX=599.83466
##DELTAX=-1.4281778
##MAXY=2.1231995
##MINY=0.37872922
##XFACTOR=1
##YFACTOR=1.9773836e-09
##NPOINTS=2730
##FIRSTY=0.3893736
##XYDATA=(X++(Y..Y))
4497+196913539+198235996+200274157+201275801+200970631+200292665+199726079
4487+199068324+198346154+197979342+198122416+198564134+199227300+200054293
4477+200461769+199800382+198489515+197835634+198539734+199921377+200650917
4467+199981316+198311354+196711609+196009047+196357412+197426214+198702266
4457+199728234+200263155+200184286+199358679+197981075+196856478+196718015
4447+197300020+197672424+197451821+197061647+196955272+197263365+197969635
4437+198842477+199368370+199139568+198258226+197323185+197057563+197719507
4427+198745672+199216343+198781768+197980306+197583139+197688264+197625822
4417+196942928+196197427+196219266+196894910+197428038+197514684+197455649
4407+197347375+196959552+196272770+195600607+195313614+195549906+195994714
4397+196108037+195721150+195067208+194324209+193734216+193806695+194611217
4387+195329017+195225098+194509981+193771699+193309559+193252242+193488911
4377+193470840+192837095+192048669+191826921+192313779+193131518+193881224
4367+194351202+194453222+194121903+193307374+192213869+191530478+191984600
4357+193533598+195346289+196638738+197117593+196687314+195441571+194015784
4347+193278376+193479416+194051760+194287359+193991971+193568625+193610644
4337+194335678+195429469+196458346+197119959+197086877+196222144+195123802
4327+194825882+195606952+196575257+196833192+196598226+196595031+196772137
4317+196526184+196061466+196352468+197542341+198528053+198509816+197955393
4307+197642416+197692800+197920954+198293087+198707902+198838196+198366636
4297+197305099+196211971+195955181+196808249+197857216+197901030+197012574
4287+196461813+196991474+197976146+198443200+198197277+197672831+197300939
4277+197254368+197413599+197488460+197391369+197478075+198165220+199264662
4267+199987601+199860096+199331505+199060231+199027134+198914534+198808852
4257+198955408+199330525+199760231+200061105+200059357+199836493+199778408
4247+200061090+200365160+200401543+200414836+200747978+201069109+200685883
4237+199664316+198919538+199061874+199764285+200429259+200934670+201444015
4227+201953193+202381453+202760157+202999403+202839403+202354309+202000925
4217+201901498+201719614+201430405+201457956+201923005+202534866+203164090
4207+203844633+204381498+204503081+204272214+203994113+203879042+203976193
4197+204255123+204554128+204557836+204054837+203267677+202712741+202705959
4187+203177459+203873420+204589622+205127587+205188326+204675545+204036856
4177+203885929+204347271+205105176+205918108+206711476+207341062+207528794
4167+207051597+206071582+205111235+204435214+203787858+203044151+202627934
4157+202908763+203622357+204237248+204534641+204549712+204312651+203970647
4147+203838152+204013254+204274204+204608205+205281031+206091175+206343473
4137+205904393+205450361+205430753+205641137+205855937+206116450+206467482
4127+206899389+207373707+207649065+207472019+207157445+207367045+208071326
4117+208419600+207919917+207094566+206695968+206809366+206926895+206647543
4107+206226940+206328040+207166608+208199615+208794340+208846925+208640279
4097+208460987+208387558+208251884+207871477+207270060+206597641+206092576
4087+206125312+206855983+207891462+208722359+209298922+209772653+210080113
4077+210216466+210457777+210932623+211388132+211594808+211562404+211314341
4067+210930558+210705660+210708508+210436044+209503353+208410060+208058364
4057+208707619+209778274+210502525+210543881+210082645+209476164+208953798
4047+208611658+208483308+208435305+208217008+207907965+208020701+208792155
4037+209700550+210099495+209989910+209752638+209567589+209506895+209700972
4027+210071025+210358908+210621018+211229217+212216316+213022812+213067831
4017+212408494+211647333+211233542+211102932+210993422+210821575+210663821
4007+210591960+210615939+210740370+211101395+211917974+213097883+214028313
3997+214079165+213270272+212177582+211313618+210919089+211106609+211781093
3987+212579903+213207122+213650604+213892006+213720250+213080913+212444183
3977+212546730+213602872+214853453+215256708+214688826+213971795+213707680
3967+213681335+213424681+212906640+212574809+212853045+213645314+214467319
3957+214960145+214968977+214407032+213556904+213161139+213654899+214531644
3947+214866550+214406806+213847469+213943340+214529007+214789429+214449700
3937+213985691+213806806+213942209+214304636+214711026+214913423+214961124
3927+215215216+215858517+216530529+216638834+216217357+216135458+217097146
3917+218630575+219525029+219280613+218502271+217950650+217698261+217291163
3907+216715232+216756754+218017010+219970606+221643824+222597102+222506703
3897+221075037+218906144+217371630+217403114+218484923+219035262+218595036
3887+218512775+219815956+221573952+222439755+222809129+223361940+223396710
3878+222332686+221021472+220567787+221315911+223155716+225477600+226661986
3868+225757887+224112280+223477494+223903674+224099815+223301036+221776650
3858+220317855+220317644+223467261+228960751+231865771+230182485+226676425
3848+223738399+222183914+222054314+222978760+224286417+225629100+227344096
3838+229427744+230672628+230122454+228494119+227220027+226880102+226996410
3828+226921670+226481127+226241489+227300781+229953954+232381656+232946962
3818+232934211+233639471+233814091+232024896+229156290+227024428+226876470
3808+228713170+230761400+231464203+231846795+233448574+235271408+235464762
3798+234606465+234077557+233953397+233795402+233754241+234162983+235113850
3788+236600602+238431092+240110596+241378237+242646271+244315510+246054199
3778+247396958+248570417+250075557+252214246+255273162+259262733+263427436
3768+267129080+270811613+275052398+279684893+284562935+290118656+296444476
3758+302566858+307611472+312302807+318767496+328561108+339572716+347167442
3748+351071046+355210368+361915449+368611336+371668941+372145776+373020863
3738+376156809+381707195+388114491+393334116+396269580+397133122+397134900
3728+397633047+398978940+400333123+400998895+401282935+401777675+402734510
3718+404196666+406100750+408483449+411770955+416121009+420433806+423561825
3708+425743951+427700515+429932437+432964148+437013313+441144889+443872938
3698+444795440+444903232+445516435+447223534+449936029+453429594+456933891
3688+458731238+457894464+455580492+453912609+454325962+456515925+458929882
3678+460366084+460353967+458864230+456757885+455471554+456033544+458262904
3668+460691962+461864201+461715203+461341186+461694314+462720207+464055550
3658+465870954+468180947+470447956+472948846+476741462+481185411+483155872
3648+481412902+478697996+477368771+477804732+479668908+482283980+484475721
3638+485312044+485055435+484848351+485754847+488421856+492991413+498351987
3628+502278650+504204136+505094144+505230421+504754038+504729050+506131552
3618+508244469+509707800+510451854+511453874+513723717+517477387+521462980
3608+523662890+523644804+523162573+523811255+525564624+527509764+529019395
3598+530289508+532242907+535361763+538277694+538775238+536801100+535065576
3588+536004898+539014755+541986994+544424312+546704584+548067056+547533944
3578+546083152+545814094+547260424+549142143+550443424+551370267+552102264
3568+552317065+552135603+552025580+551738496+550547177+548734125+547808849
3558+548996913+552152001+556012197+558952485+560168883+560558996+561565055
3548+562994204+563164995+561608642+559752485+558807616+559173675+560988175
3538+563484211+565152697+565551974+565333918+564489426+562762282+560980398
3528+559982538+559459493+559057443+559371957+560881166+562569727+562647195
3518+560712063+558432454+557549138+558098588+559289907+560694459+561855334
3508+562167497+561816871+561800955+562618017+563573616+563674234+563053827
3498+563178801+565246020+568351492+569906519+568258651+564308206+560664798
3488+559855695+562618559+566902449+569140219+568049397+566324182+566841379
3478+568879541+569880777+569411869+568762042+568121620+567170000+566698681
3468+567195441+567357732+565798666+563258318+561876615+562915108+565690572
3458+568377958+569546670+568664017+565753270+561805176+558938980+558799417
3448+561016750+563826095+565966684+567395109+568201741+567963670+566656722
3438+564930481+563253917+561281769+558325808+554931022+552890689+553419582
3428+556214036+560051143+563350315+564542478+563117911+560290480+558250872
3418+558453615+560384226+562067542+562055846+560647195+558744316+556502748
3408+553914111+551789077+551133824+552020214+553651383+555365686+557043094
3398+558554956+559607496+560211264+560526622+560408159+560015092+560319418
3388+561926170+564037701+565721499+567375154+569430679+570700732+569774612
3378+567207438+565052742+564875259+566646292+569019405+570653949+571655306
3368+573399934+576573288+579775037+580740523+579052866+576618081+575051298
3358+574103114+573229745+573061968+574136934+575797282+577551796+580047411
3348+583496816+586316832+586689522+584904503+582699107+580835776+578981427
3338+577437794+577127500+577807290+577895549+576652203+575356226+575513272
3328+576643280+576642979+574530062+571963008+571280687+572914025+575219678
3318+576334493+575991886+575554870+576366023+578486476+580949355+582618142
3308+582756500+581476258+579858714+578723462+577293529+574394840+570902209
3298+569271884+570635803+573902360+577471193+580107999+580627968+578953334
3288+576996378+576767470+578287531+580120900+580997886+580617780+579830500
3278+579976273+581345256+582683975+582842528+582379167+582736545+584391345
3268+586629839+588641836+589730548+589071859+586812205+584536817+583327592
3258+582621036+581816454+581400237+581415128+580512641+577909113+574993966
3248+573955955+575306792+577549445+579605150+582056334+584894375+586283072
3238+585220585+583196289+581656394+580140191+577893620+575460582+573999240
3228+574142059+575694915+577659287+578682165+578094976+576501004+575290092
3218+575303054+575681773+574642134+571690152+568254190+566015998+565762192
3208+567527257+570245690+571776241+571043520+569417657+568621455+568541093
3198+568133677+567345373+567105312+567828749+568622600+568366202+567114355
3188+565448703+563459313+561786547+561911280+563920624+565606834+565136179
3178+563182840+561276404+559873299+558775182+557756704+556446802+554809605
3168+553652528+553654819+554203305+554108715+553247585+552634593+553094397
3158+554344737+555181150+554534397+552544706+550360470+548627900+546866031
3148+544870130+543645292+543884809+544435344+543519896+541140212+539102231
3138+538770897+539649691+540313927+540299639+540278237+540476519+540181779
3128+539068772+537735478+536590821+535394739+534060722+532972071+532433774
3118+532351363+532385063+532351604+532485922+533029223+533747113+534170504
3108+533988138+532908348+530675823+527640103+524727909+522829130+522494359
3098+523671390+525355973+525971075+524798866+522884472+521990365+522763659
3088+524119017+524422378+523254932+521718534+520931495+520822498+520742799
3078+520576469+520544336+520514193+520205527+519620447+518879046+518142226
3068+517716182+517644320+517530801+516995639+515787862+513813784+511731252
3058+510829729+511615261+513061531+513683807+513004379+511793166+511033377
3048+510807303+510508403+510012728+509758380+509681937+509151538+508007242
3038+506794461+505925614+505233074+504372908+503318348+502332304+501534505
3028+500760367+500030540+499759825+500119161+500497820+500030782+498548732
3018+496670901+495130826+494334232+494289409+494662431+494981617+494884013
3008+494199672+493042264+491958255+491599461+492033251+492697818+493027705
2998+492777336+491989694+491001269+490210011+489702309+489327719+489022158
2988+488665112+487848382+486350416+484666588+483592948+483409195+483769918
2978+484218660+484429783+484026980+482756685+481028576+479681718+479028244
2968+478672766+478265411+477822607+477369284+476870836+476438342+476181793
2958+476123767+476436201+477252208+478203466+478671741+478432163+477637407
2948+476430263+475046028+473891755+473023932+471958763+470486690+469270804
2938+469029026+469480329+469764610+469619591+469478189+469578807+469613381
2928+469184173+468233758+467051904+466054707+465548964+465486809+465488799
2918+465158429+464370336+463325844+462397132+461825648+461446868+460874660
2908+460047200+459337689+458948300+458656966+458415700+458577146+459201080
2898+459722919+459720327+459485722+459351103+459038217+458254614+457366717
2888+456806234+456296392+455391584+454372172+453817085+453639270+453252051
2878+452508388+451940732+451948840+452008825+451172774+449469473+448085840
2868+447902630+448582509+449276255+449510739+449208915+448508478+447711854
2858+447027633+446455335+446078485+446047196+446118816+445792094+445083337
2848+444529004+444258469+443743684+442703412+441659885+441320232+441783623
2838+442428054+442373344+441251445+439675499+438655001+438551520+438934519
2828+439273479+439279900+438741211+437602341+436231911+435241617+434909077
2818+434940637+434872604+434506304+433945972+433454427+433217833+433017773
2808+432384374+431382264+430762068+430922550+431329333+431344193+430972889
2798+430474773+429917365+429368428+428970266+428657561+428186845+427522157
2788+426889362+426423348+426005021+425510642+425027176+424681825+424440137
2778+424223679+423993053+423595013+422831576+421791395+420782171+419888636
2768+418952329+418062592+417610022+417570505+417276789+416376865+415494724
2758+415392750+415928515+416291951+415914890+414805711+413312056+411912056
2748+411070699+410976049+411364505+411712779+411636366+411123329+410487639
2738+410071332+409877511+409573638+408967699+408272899+407730412+407259937
2728+406657314+405849688+404886462+403936500+403212882+402723628+402299333
2718+401911963+401665331+401464186+401045286+400345903+399578156+399002844
2708+398743552+398675609+398471208+397918292+397179904+396607334+396359798
2698+396271268+395991871+395280280+394231720+393146384+392225690+391550453
2688+391220717+391266655+391472864+391500234+391192201+390682570+390205072
2678+389872382+389679646+389611794+389590241+389417250+388958289+388270542
2668+387511447+386946533+386905629+387330316+387562117+387046066+385993104
2658+384945357+384101016+383428100+382981528+382749637+382534294+382213600
2648+381835786+381429245+381051520+380924708+381152078+381438046+381413811
2638+381066290+380614414+380193193+379815981+379457398+379126546+378925672
2628+378919885+378961120+378832982+378487480+377958679+377248475+376503546
2618+376066138+376122295+376440125+376616342+376507796+376328354+376359432
2608+376608806+376757714+376477503+375791112+375041029+374533177+374333900
2598+374338361+374373478+374280366+374014895+373639612+373236326+372924766
2588+372878768+373147464+373524133+373732604+373682717+373443500+373036567
2578+372402324+371629423+371103454+371188368+371711804+372021526+371705987
2568+371035632+370542309+370413989+370451638+370430930+370368533+370466770
2558+370791895+371082445+371064751+370853899+370733326+370693989+370564494
2548+370401118+370353613+370358224+370337064+370464057+370866197+371273342
2538+371330433+371123168+371047268+371223274+371377215+371287961+371048051
2528+370851518+370770493+370776552+370819837+370864871+370933387+371094653
2518+371353100+371555180+371477109+371094743+370737185+370811277+371334050
2508+371903907+372172272+372144630+371983183+371735467+371362867+370892784
2498+370423123+370023002+369709453+369506740+369440485+369474667+369562203
2488+369742851+370060681+370444434+370797200+371071503+371167840+370990659
2478+370690613+370587283+370806484+371211096+371632498+371957863+372067343
2468+371892241+371534894+371237381+371182189+371313191+371403138+371300048
2458+371051910+370830056+370794969+370956084+371152859+371286002+371469694
2448+371795301+372078225+372040486+371659777+371198617+370950930+371034155
2438+371361902+371733507+371963741+371986168+371856672+371667645+371508639
2428+371508549+371788157+372298330+372799220+373047931+372967539+372675753
2418+372416462+372396567+372599340+372801993+372853086+372860501+373004314
2408+373247027+373392950+373417758+373557411+374012815+374715543+375444646
2398+376038648+376403019+376501738+376495709+376657367+376989786+377191203
2388+377095227+376781135+376132303+374672981+371999400+368100530+363203407
2378+357577031+351537270+345412898+339420402+333681832+328336209+323481016
2368+319129666+315458527+312833930+311320018+310586665+310575059+311747057
2358+314521858+319002944+325351190+333793633+343564849+352147187+356604943
2348+355634935+350371784+343857871+339060161+336798306+336194177+336283973
2338+336575880+336982029+337553876+338318699+339416212+340975067+342739257
2328+344319846+345729160+347185679+348728016+350462575+352776065+355812418
2318+359052871+361808471+363908577+365664207+367374019+369109362+370852362
2308+372586982+374248926+375763260+377184511+378661015+380198589+381593585
2298+382668552+383454204+384107648+384758077+385426804+386029125+386497098
2288+386907317+387403504+388020324+388636812+389011824+388869879+388150151
2278+387193285+386490738+386222886+386161514+386015139+385750783+385519916
2268+385389969+385313556+385280971+385312561+385362418+385397143+385495711
2258+385785207+386352833+387179872+388054476+388679495+388977943+389149156
2248+389372216+389607182+389708131+389626082+389460897+389299420+389034853
2238+388470271+387618003+386756541+386150331+385831145+385709276+385770798
2228+386024091+386347859+386603142+386837535+387168628+387560972+387957988
2218+388535471+389567513+391074914+392776798+394390695+395893905+397472625
2208+399255444+401133846+402883176+404470788+406154224+408209146+410654361
2198+413282455+415835734+418174665+420421628+422826844+425355736+427643514
2188+429479445+431053161+432666545+434467992+436409515+438249184+439716041
2178+440782146+441617715+442276524+442668657+442802101+442738469+442378288
2168+441614610+440623954+439687466+438831610+437924330+436953358+435996402
2158+435069590+434096990+432970629+431667569+430242972+428687644+426992240
2148+425255269+423576836+422322397+422553897+425257771+430026182+435473418
2138+440899463+446517370+452366957+458056694+463258504+467942394+472429448
2128+477165486+482124161+486745594+490615708+493848866+496844406+499845883
2118+502623578+504741137+506206608+507458093+508838712+510628192+513319376
2108+517404441+523176922+530892553+540597152+551508082+561909230+569932382
2098+574328585+574723641+571840747+567315411+562509381+557583501+551926951
2088+544883513+536033715+525663614+514866686+504613481+495064842+485971878
2078+477349661+469655039+463361986+458353544+454027123+450063866+446598394
2068+443721890+441403548+439666818+438404662+437347631+436388565+435620728
2058+435112242+434830283+434654006+434504827+434512091+434853101+435570690
2048+436731203+438421090+440588566+443378710+447431371+453374854+461346281
2038+471288860+483256972+497146079+512281064+527328362+540811048+551936477
2028+560671249+567099706+571197130+572947243+572458441+570371568+567798666
2018+565342117+562692832+559463653+555741692+551672181+547190673+542227356
2008+536872841+531337346+525701715+519846341+513852307+508201485+503243563
1998+498745898+494352107+490246936+486966724+484739685+483363558+482555208
1988+482048290+481567567+481104869+480970671+481309029+481925939+482725005
1978+483853023+485347161+487036837+488782067+490573718+492483048+494565912
1968+496681210+498497729+499885944+501128808+502543066+504142644+505858334
1958+507801062+510065539+512514432+514979301+517447244+519893726+522208180
1948+524411526+526699635+529186991+531776050+534300481+536696865+539071424
1938+541593867+544273234+546885865+549205685+551265128+553247223+555209364
1928+557142145+559184044+561390646+563424468+564974973+566316104+567840806
1918+569347785+570431553+571247228+572207770+573392518+574776995+576471585
1908+578265345+579573620+580318941+581146190+582411601+583697811+584566960
1898+585106161+585554029+585963554+586382966+586972085+587744293+588430352
1888+588843253+589123886+589321806+589193216+588676320+588045484+587425016
1878+586727081+586088226+585794993+585885965+586189145+586479726+586350773
1868+585343388+583513757+581427728+579537991+577966024+576721592+575809399
1858+575097899+574288133+573144922+571668871+570023414+568409307+567044001
1848+566188960+565998455+566107452+565593993+564001951+561936178+560082733
1838+558588717+557380095+556390555+555522190+554684571+553748685+552509619
1828+550977742+549385640+547746272+545972225+544327251+543123754+542232480
1818+541384673+540693128+540514620+540921613+541518207+541772134+541563181
1808+541254274+541135811+541209240+541575118+542516128+543995013+545439715
1798+546358721+546988894+548068322+549983379+552026303+552917336+552606680
1788+552364209+553227509+555294790+558003637+560748898+563145703+564954475
1778+566250874+567593090+569676406+572682345+575738442+577499226+577786672
1768+577465466+577133650+577034057+577463657+578486235+579667486+580821367
1758+582384533+584471888+586609462+588809372+591764429+595504174+598690972
1748+600169737+600397197+600544477+601309149+602718283+604464900+606196626
1738+607843951+609937576+613183576+617145838+619914610+620655107+620226411
1728+619593706+619423457+619940895+620837534+621916962+623754731+627204860
1718+632007153+636036754+637602090+637581713+637426415+637660869+638498789
1708+640385934+643394164+646613938+649294452+651948378+654961491+657182502
1698+658036097+659025818+660879805+662456957+663147537+663849632+665610597
1688+668970478+674276643+681106185+686498741+687780731+687077973+687374401
1678+689617657+693591011+698360086+702387758+704919002+706607382+708165423
1668+709457782+710506886+712345982+715763255+719410581+720526662+718848832
1658+717171002+718367446+723997470+733221164+739819629+739398890+736415438
1648+734888143+735280848+735774172+735065626+733941948+733511504+734003440
1638+735125852+736698422+738261105+738662854+737462492+735489500+733901677
1628+733503184+734416462+736233192+738153374+739236720+739673977+740985145
1618+744044197+747332637+748325313+747329683+746287754+745630572+744413390
1608+741966185+738982733+736902552+736458241+737248174+738650133+740584663
1598+743194460+746345870+749538998+751856527+752450107+751696226+751103369
1588+751519707+752302526+752611373+752544214+752561757+752797417+753439587
1578+754856015+756559045+756798623+755148284+753456829+753118622+753780265
1568+754072293+753458517+752701622+752867168+754781622+759008360+764907925
1558+768864338+768775295+767111090+765580962+764183945+762796274+761847065
1548+762020087+763847547+767506448+772600587+778238388+783163965+785803001
1538+786479837+787611351+790112874+792725867+794197216+795394262+797745371
1528+801319629+805572652+810255155+815290394+820519875+825700163+830554241
1518+834819803+838081236+840239307+842070988+844451095+847592618+851696914
1508+857591113+864815470+869834010+871362812+872084741+873913649+876784004
1498+879407968+880560403+880696951+881632053+884468105+888853155+893578462
1488+897758900+901475676+904843574+907443183+909166710+911020757+914515619
1478+919953570+925804303+930175185+932412533+932929429+932521531+932064138
1468+932023144+931919511+930770996+928404936+925750768+923694159+922355741
1458+921260277+920311792+920168793+920575183+920558182+920098800+920190074
1448+921494430+923709110+926396797+929172804+931118788+931799783+932571810
1438+935074900+938722347+941524457+943400509+945027337+945478460+944221670
1428+943239002+944518701+947219530+948805906+948441957+948476140+951782184
1418+957693746+962302880+963917409+963912828+963364644+962186949+960554575
1408+959367416+959128260+959144055+958183150+955940678+953466525+951850187
1398+951202229+951437768+952871378+954985923+956020196+955132238+953427701
1388+952490549+953173051+955475870+958645426+961558705+963695314+965600364
1378+967816069+969786047+970633553+970734955+971772182+974892002+979416132
1368+983635817+986601364+989017461+992119135+996056860+999330229+1000107622
1358+998806522+998308616+1001019876+1006557420+1012444927+1016252856+1017306662
1348+1017595192+1020327371+1026442459+1033070705+1036463743+1036148083
1340+1034737985+1034547239+1036339071+1039633721+1042317188+1042172019
1331+1040148687+1039813133+1043224016+1048883098+1053897960+1057179588
1322+1059377268+1061351647+1062894134+1063003373+1062048678+1061752310
1314+1062690486+1063484458+1063227035+1063443222+1065295099+1067499531
1305+1068961837+1070271136+1072194633+1073741823+1072574679+1068366449
1297+1063528588+1059125632+1054143205+1049333196+1047417054+1049029111
1288+1050166836+1045781123+1035462507+1022998419+1012717060+1007523268
1280+1007172402+1008025635+1006509432+1002417253+997393831+991958291+985855621
1270+979755725+974733388+970588519+965817636+959464959+952402109+945684157
1260+938668873+930451237+922314264+916452680+912573493+907974969+901393023
1250+894470821+888705695+883280162+876475820+867698184+857519915+846833250
1240+836604461+827777451+820945738+816034026+812423777+809685690+807948418
1230+807254883+806984680+806240625+804482132+801836766+799126170+797275981
1220+796482612+796397367+797107480+799201889+802717670+806644966+809948599
1210+812919753+816720326+821484578+825868241+828861761+831017301+833334347
1200+836180226+839638011+843579655+847208593+849686906+851356899+853509303
1190+856824933+860811430+864836450+868800400+872580175+875712112+878263130
1180+881459333+886898008+895075734+904535209+912940938+919716946+926060821
1170+932879753+940395595+948465951+955950444+960163377+958974952+953141823
1160+946280450+942961745+945687473+953005455+960930521+966508819+969677230
1150+971593553+972301737+971318708+969752709+969557441+970720848+971431684
1140+970931247+970134141+969705444+969700259+970864631+974003802+977912590
1130+979859478+978625597+975684948+972871805+971089740+971939054+977792801
1120+987484499+994727425+995648842+993257764+992391689+994868435+999003658
1110+1002903523+1006758174+1010903284+1013770384+1013371770+1009723118
1101+1004532341+999345421+994702768+991315337+990623068+992699994+995392564
1091+996677749+996133122+993266505+988030935+982601001+979153585+978265326
1081+979134173+979849109+978671113+976027978+974047932+973019145+970856914
1071+966523710+961538268+957584024+954834001+952843767+951261430+949716471
1061+948136667+947099922+947259802+948685152+950672071+952038944+951985048
1051+950213171+946706554+942511466+939472309+937954720+936005360+932390348
1041+929235261+929982390+935823778+944603524+951889675+953949901+951497391
1031+948910322+948966690+950296366+950145228+947925002+945170638+943130728
1021+941995595+942155656+944416214+948706373+953285545+955805275+955089856
1011+950822124+943000328+932371358+921275590+913320019+910079024+908599777
1001+904391306+896723120+888688513+883018158+879818217+877132821+872867078
991+866836812+860450616+854549424+849051005+844049768+839756836+836063933
981+833116291+831354060+830341732+828812990+826450065+824265709+822757103
971+821004156+818047832+814130062+810116919+806574250+803740851+801617444
961+799810842+798226094+798045657+800828717+806400505+812445902+816520176
951+818135007+818874961+820952912+825633004+832290489+838646119+842710084
941+844871411+847155240+850586740+854578603+858761030+864353375+873138547
931+885155732+897655750+906717817+910613764+910873055+909438843+906771954
921+903306693+900332405+898459789+896763692+894547686+893004777+893554287
911+895353353+896131590+895083752+893303918+891941325+891580511+892608876
901+894643843+896187294+896324928+895941386+896362185+898116217+901460845
891+906660786+912870946+917945552+920442915+920922011+920781001+920871792
881+921643216+923300187+925184981+926129789+926052683+926325177+927781877
871+929124876+928401319+925787061+923605417+924206895+928545524+935182210
861+940288948+941041443+939122829+938153846+938900613+939282950+938380221
851+938137810+940147517+943603071+947285845+951112583+955255704+958596655
841+958577483+954720180+950679426+950309328+953402682+956989782+959104025
831+959797258+960476625+962638916+965223755+965568292+964231381+964496641
821+967548337+972443832+978951445+986069397+990598954+990628132+987808177
811+985249804+985510603+988944394+994416649+1001097585+1006740269+1007830066
801+1004375355+999921940+997005767+995507892+993953408+991175231+987579510
791+984401936+980831114+974635543+966507614+959330219+953768922+948927504
781+945118550+942578323+939964547+936653861+933965872+933078638+933312730
771+932938351+931714598+930681651+930079511+930016693+931237431+934050936
761+937500040+940625527+943316289+945433426+947199093+950383600+956471078
751+962859926+964121358+959042231+952725666+950407715+952398793+956064024
741+959446572+960909903+960885065+963434817+970220410+974973026+971200908
731+963342519+960313189+963995842+969718767+972863244+972940652+973130675
721+977083291+985575169+994532459+996013152+986066684+969832347+956756413
711+954623180+963981192+975810404+978326396+969627313+958610279+953552252
701+955087144+957984205+957480573+953909449+952255251+956276654+961756324
691+960396987+951833850+943739740+940427366+939621638+939103718+940525994
681+946462454+955737453+961549059+957805275+947216395+936612625+928082043
671+918985190+908034472+902421991+912299672+931715261+944896093+944701188
661+935821487+927170935+922315168+920032787+919191068+917755047+913540908
651+907582444+903937048+905934456+912222747+917937895+919673661+917099131
641+911350704+903973762+896332283+890390337+889284384+894519713+902655962
631+907075074+902870401+892866962+886644926+890057376+898776413+902988442
621+901978585+903520228+910332046+916193147+914707992+906715044+896355071
611+889350036+888845198+891061084+891702892+893972072+903062775+914263441
601+915107390+905323031
##END=
