##TITLE=<SNM>
##JCAMP-DX=4.24
##DATA TYPE=INFRARED SPECTRUM
##DATE=29/4/2025
##SAMPLING PROCEDURE=Instrument type and / or accessory
##ORIGIN=Admin
##XUNITS=1/CM
##YUNITS=ABSORBANCE
##RESOLUTION=4
##FIRSTX=4497.3318
##LASTX=599.83466
##DELTAX=-1.4281778
##MAXY=2.1178467
##MINY=0.37710613
##XFACTOR=1
##YFACTOR=1.9723985e-09
##NPOINTS=2730
##FIRSTY=0.38778448
##XYDATA=(X++(Y..Y))
4497+196605548+196301072+196768898+197846008+199102272+199896845+199743134
4487+198677131+197255158+196294711+196385279+197344275+198289537+198542020
4477+198337344+198408451+198939269+199264324+198764722+197738170+197056088
4467+197176724+197826743+198551177+199232306+199961787+200677215+201244327
4457+201832623+202703621+203474018+203273785+201963714+200385372+199142827
4447+198097176+197219892+196861899+197009339+197155978+197040979+196988064
4437+197430929+198231592+198593212+197982675+196955171+196395704+196297522
4427+196069290+195623690+195435182+195839743+196701056+197538767+197831850
4417+197341268+196285706+195283828+194948755+195323687+195899955+196323631
4407+196699651+197018510+196882161+196229634+195814344+196327937+197307423
4397+197555478+196631219+195260121+194263909+193911959+194289233+195351157
4387+196517096+196935996+196253824+194774208+193091050+191794820+191191656
4377+191192034+191636727+192484879+193498195+194283823+194859744+195578618
4367+196417160+196931690+196842800+196177536+195155350+194332900+194232556
4357+194481126+194147459+193190683+192565127+192758198+193270205+193626733
4347+193964571+194451450+194904650+195150273+195197703+195031133+194669906
4337+194360052+194309102+194331948+194139405+193830548+193705153+193776138
4327+193853741+193893057+193892422+193738711+193536952+193703370+194281995
4317+194631029+194277160+193611881+193374084+193924968+195134589+196520646
4307+197494224+197722531+197263726+196441668+195777869+195766884+196402609
4297+197193949+197799606+198222949+198303348+197672125+196496395+195661993
4287+195803813+196544504+197041492+197061785+197033922+197141654+197018677
4277+196428961+195660180+195130464+195146148+195980747+197571465+199163482
4267+199845805+199524784+198949423+198757152+198858644+198862602+198786933
4257+198975653+199441787+199740158+199521536+198928239+198538666+198982603
4247+200286010+201614907+202069059+201680136+201242877+201287254+201602729
4237+201669060+201309843+200861553+200675886+200569710+200060423+199195439
4227+198724575+199210563+200220812+200703355+200137981+198967267+197911840
4217+197357768+197515634+198557598+200203013+201585413+202021856+201732536
4207+201492609+201822409+202632696+203376319+203518305+203022435+202367475
4197+201920999+201492398+200823976+200214194+200229289+200992434+202063741
4187+202902298+203271639+203304533+203309640+203526947+204053188+204882286
4177+205869372+206732679+207221946+207216990+206710981+205931971+205349161
4167+205229220+205334066+205333824+205255964+205228389+205113525+204797763
4157+204550946+204710550+205173933+205440030+205084152+204138270+203094810
4147+202548505+202727796+203344347+203971399+204455967+204852354+205230202
4137+205753466+206613025+207588053+208077486+207934201+207753202+207945322
4127+208111680+207700213+206755736+205754553+205110412+204938902+205058133
4117+205257641+205571318+206022796+206327180+206295858+206221639+206456247
4107+206958690+207489584+207900552+208203924+208674138+209583665+210539157
4097+210650862+209702427+208503413+207808836+207595790+207610733+207949054
4087+208711066+209530434+209935630+209963674+209906287+209648682+208965135
4077+208381403+208810246+210173275+211216070+210965461+209771962+208666235
4067+208234159+208295277+208277675+207842939+207299443+207263875+207849723
4057+208459323+208479978+208002709+207747098+208281769+209396154+210395237
4047+211005895+211597379+212351246+212739051+212182138+210875982+209648969
4037+209128924+209182518+209221879+209031618+209014604+209520960+210359986
4027+211156402+211784225+212265786+212587531+212788143+213002882+213233637
4017+213208252+212706460+211922932+211254343+210886135+210836757+211145962
4007+211717032+212238075+212542353+212854610+213444160+214111011+214229214
3997+213470798+212347363+211611415+211267897+210807777+210242508+210150822
3987+210822644+211981980+213144338+213793813+213606015+212937789+212683795
3977+213263675+214078948+214262561+213737424+213232987+213359425+213991176
3967+214662439+215306127+216185510+217139083+217524621+217103726+216380954
3957+215856452+215554787+215477697+215972026+217306785+219005371+219851876
3947+218973882+216964384+215372881+215089620+215577935+215731026+215237060
3937+214833919+215569504+217900868+221071741+223293515+223180253+221311607
3927+219768591+220050417+221608286+222633418+222485645+222315691+223080559
3917+224058790+223748936+221844662+219578783+218344760+218631134+220127023
3907+222567736+226045986+230175373+233504248+234697687+233757456+231312875
3897+227952058+224717769+223106321+223965594+226124209+226945511+225962913
3887+225554090+227155596+229361066+230624145+231538674+232098005+230657462
3878+227659580+226008982+227210459+230113680+233046334+234961668+234872475
3868+233326906+232619198+233536235+234028826+232269258+229430964+227690479
3858+228251592+232106904+240134832+248847334+249838983+242758281+234271291
3848+228779993+227555126+229760264+233407455+236928058+240167967+243141962
3838+244515477+243212509+240467607+237961046+235894072+233887898+232291922
3828+231639803+231804015+232957761+236383535+242056965+246135659+245795630
3818+243803494+242664994+240865597+237170281+233574976+232406257+234310788
3808+238061269+241296888+243399476+246105636+249490266+250479074+248122960
3798+245068975+242499211+239829631+237392318+236187713+236247895+237081300
3788+238712421+241040597+243020646+243941929+244815707+246916255+249565633
3778+250888214+250712005+250802965+252855420+257260181+262736898+267298603
3768+270586048+273817677+277433395+281180748+285728673+291864808+298676375
3758+304527541+309695688+316036528+325051058+336584584+347657748+355047835
3748+359856281+364760432+369328967+370497973+368873289+368667404+372580239
3738+380695772+390541153+398159366+401314873+401233281+400484173+400788482
3728+402832913+406363110+410056280+412305387+412465308+411203982+409936914
3718+409755960+411040888+414508984+421295439+430111337+436041889+436656521
3708+435115544+434896423+437318113+442214589+447488322+449938177+449035887
3698+447449400+447568525+449937270+454497736+461467774+469605670+474243467
3688+471681348+465396867+461344751+461855791+465555216+469606153+472832464
3678+476690209+481568250+484119340+483289939+483065439+484786674+484113991
3668+478487959+471818574+468114253+467681240+468621636+469588354+470963245
3658+473660203+477622446+482072763+487018768+493192253+500649216+507241179
3648+509128621+505489543+499715618+495098159+492709075+492304045+493442077
3638+495500197+497557562+499188834+501105438+504868414+511748761+519923525
3628+523768275+521404636+517301994+515641500+517412718+521248463+525050120
3618+527921928+530550227+532844724+533559593+532958893+532994189+534156426
3608+535000695+535274724+536582135+539573611+542738426+544188170+543831219
3598+543224776+543612612+544697850+545589986+546885189+550525716+556936756
3588+563093410+565330127+564042963+561984177+560128889+557783322+554620562
3578+551830166+551287607+553457540+556573761+558627893+560143455+563051586
3568+566802777+567994085+565368445+561668324+559610687+559199220+558823956
3558+558072944+558535724+561310467+564898050+566718586+566448969+566055271
3548+566618741+567334276+567548894+568057486+569814138+572395054+574384395
3538+574899393+574486113+574639144+576234606+578405687+579285191+578130811
3528+576409879+575642125+574987090+572934409+570019206+567908625+567044834
3518+566788453+567051422+567905361+568478381+568257719+568313081+569843330
3508+572424245+574692995+576023796+576396582+575823502+574810548+574440784
3498+575145621+575852271+575534061+575412518+577675587+582029292+585950799
3488+588147808+589091438+588886611+587463762+585723791+584457600+583367224
3478+582252190+581637226+581475854+580773616+578857950+576497998+575501061
3468+576933701+579627819+580976751+579683966+577075914+575315272+575221653
3458+576105086+576861235+576877372+576027906+574551689+573165829+572719126
3448+573592406+575208538+576307193+576095718+574708528+572566518+570242467
3438+568996825+570061695+572810026+574694748+573845765+571113571+568762504
3428+567788231+567418527+566978473+567027489+568180055+569942812+571477775
3418+572834745+574501223+575779563+575239724+573280058+572368944+574187606
3408+577636241+580054456+579976188+578097087+575920566+574288479+573179851
3398+572369609+572030789+572593716+573986466+575311948+575772189+575714108
3388+576039570+576882026+577693718+577956506+577148138+575038282+572726620
3378+572215611+574377626+578054235+581256703+583047020+583861795+584396557
3368+584997862+585671210+586010332+585638996+585300418+586351508+588621164
3358+590456266+591236953+591795468+592284599+591726265+590134672+589232442
3348+589919389+590569468+589208871+586405903+584533511+584832139+586360453
3338+587554300+588219791+589533125+592070585+594463415+594922145+593587477
3328+591751589+589880829+588013574+586774459+586848798+588241247+590414624
3318+592453283+593301118+592626380+591397358+591208064+592695945+594425822
3308+593914632+590457535+586154538+583930936+585286336+589450565+593925813
3298+596351824+596431301+595705311+595517709+595886143+595691772+593529999
3288+589472807+585892657+585392043+588213142+592328840+595679987+597538962
3278+598055592+597858925+597920451+598821472+600062944+600489340+599626033
3268+598354583+598175926+599629115+601324966+601285499+599500380+598099531
3258+598678474+600361753+600941301+599602462+597875545+597499072+598223431
3248+598589569+598277584+598609997+600453983+602510472+602591943+600371847
3238+597974060+597754245+599926836+602103659+601315416+597374689+593488418
3228+592733779+594692116+596008109+594412284+591562053+590587237+591572388
3218+591592575+589241810+586524665+585584601+586283817+587562459+589096394
3208+590913727+592629643+593427435+592399009+589298743+585362549+582790639
3198+582863044+585037328+587577992+588828832+588116199+585858086+583358461
3188+582079093+582400446+583114046+582479802+579865282+576122915+572560777
3178+570048157+568900606+568995253+569849313+570817844+571348194+571214443
3168+570553001+569407204+567594464+565455477+563915195+563110937+562024853
3158+560401226+559781064+561510640+564537412+566187088+565180783+562987098
3148+561776329+561951117+562128747+561174600+559535079+558406204+558399616
3138+559182116+559598479+558392726+555929363+554460702+555236494+556387368
3128+555383360+552627172+550570622+550351472+550982271+550919173+549441748
3118+547044263+544902193+543814235+543697891+544206725+545365456+547047346
3108+548278906+547849247+545694243+543147173+541542403+541158980+541551409
3098+542085808+541995271+540771749+538771710+536802857+535258043+534268661
3088+534266122+535427151+536807270+537156485+536437928+535456464+534482856
3078+533427051+532817527+533332162+534439703+534722979+533556269+531519786
3068+529413012+527627289+526372399+525828148+526057151+527025742+528505766
3058+529864308+530308110+529569125+528113942+526555891+525146037+523962706
3048+523312083+523485905+524014019+523664804+521724841+518976872+516883274
3038+516064632+515828558+515085524+513668840+512571030+512757786+513996297
3028+515081172+515067936+514085686+512985217+512377808+512133816+511666323
3018+510577579+509146692+508231407+508396889+509072836+509099066+508192545
3008+507154389+506563872+506036091+504975451+503574300+502732932+503016994
2998+503924724+504504180+504448849+504030522+503367116+502440983+501374390
2988+500175769+498712214+497130683+495867242+495250857+495351669+495990899
2978+496708549+497008990+496734749+496055931+495274338+494725644+494560526
2968+494539644+494319828+493929485+493687216+493650228+493451928+492905834
2958+492420904+492284070+491789319+489914811+487015323+484866423+484707167
2948+485965925+487076094+487063281+486082662+484730647+483356784+482203703
2938+481836357+482791379+484647212+486074140+486218800+485426025+484296727
2928+482917424+481288993+479674886+478309393+477302423+476806402+476856748
2918+477124552+477119233+476620976+475703970+474381419+472631022+470904378
2908+470062436+470467466+471482051+472023703+471468664+470178539+469220887
2898+469254914+469801642+469978970+469546198+468723717+467596474+466333486
2888+465472264+465377859+465639438+465401611+464370043+463146218+462389525
2878+462232143+462731035+463971419+465339692+465682621+464576562+462664491
2868+460800742+459546789+459093408+459123204+459077663+458664383+457893155
2858+457002590+456548030+456959134+457767019+457850001+456697344+454998048
2848+453836113+453657124+454082190+454413061+454144472+453186850+451882401
2838+450726902+449939869+449439587+449174594+449151174+449135248+448724506
2828+447847933+446933736+446424570+446281512+446107539+445706014+445334406
2818+445264237+445232597+444682816+443667536+443012954+443179765+443473769
2808+442970133+441791820+440802619+440434516+440380091+440103584+439292526
2798+438096353+437085726+436689429+436629595+436249556+435477330+435020897
2788+435343368+435863836+435645411+434587793+433346774+432320554+431358400
2778+430340037+429464008+428913834+428604085+428342960+428023088+427598294
2768+427081724+426604197+426210922+425657787+424788738+423931112+423452649
2758+423230295+423019243+422902536+422879448+422514156+421552546+420474953
2748+419876519+419588286+418996108+418098713+417540531+417545789+417576069
2738+417206818+416628903+416092358+415506465+414757599+413970535+413340975
2728+412868132+412312580+411514244+410779823+410659066+411162642+411533826
2718+411067058+409907692+408739592+407913938+407274708+406692199+406302188
2708+406205244+406262238+406211349+405812604+405000489+404039694+403342352
2698+402991082+402632982+401982933+401231951+400720670+400380853+399905986
2688+399407275+399344631+399739779+400002869+399633588+398650794+397363630
2678+396163377+395444488+395345641+395605044+395829151+395794368+395440409
2668+394783711+393979272+393311091+392918239+392583409+391994917+391174279
2658+390409820+389838069+389362507+388960076+388808979+389034415+389483868
2648+389836437+389840366+389422825+388707291+387934279+387257607+386702688
2638+386365833+386384902+386643579+386810421+386695134+386331685+385859538
2628+385489290+385318279+385143883+384773393+384380753+384225758+384255010
2618+384233856+384008964+383523852+382846455+382204807+381783881+381520550
2608+381227301+380866542+380594114+380515725+380531893+380532406+380578763
2598+380710096+380758659+380582359+380293643+380067814+379935483+379886830
2588+379918016+379896712+379680492+379399724+379319854+379452517+379577565
2578+379555112+379374067+379025034+378516683+377941730+377465895+377250401
2568+377320601+377548908+377819492+378044264+378008484+377536699+376826212
2558+376270598+376013371+375975929+376148210+376509966+376760666+376470651
2548+375617044+374759509+374461606+374661930+374864854+374836689+374784561
2538+374893350+375020695+374943938+374728594+374650749+374771264+374843942
2528+374734487+374649631+374836115+375314850+375956438+376538705+376750089
2518+376448651+375900230+375494263+375301795+375188926+375218118+375561229
2508+376111947+376554842+376747672+376729631+376474035+375965685+375426360
2498+375151212+375137734+375127188+375046714+375142781+375545273+375973330
2488+376083571+375902557+375733751+375801473+376057008+376228835+376134702
2478+375945075+375926188+376017360+375976987+375802500+375669263+375631700
2468+375665032+375793978+375973421+376058065+376027544+376056887+376267123
2458+376563001+376805179+377013360+377265450+377466681+377406665+377074917
2448+376741628+376620992+376613135+376531210+376442607+376554812+376837030
2438+377006772+376879609+376562306+376335812+376451461+376950262+377569971
2428+377916376+377815685+377439151+377082321+376926026+376984259+377145026
2418+377260132+377298510+377410050+377756545+378257613+378573949+378454311
2408+378094549+377967265+378276470+378846286+379549612+380436369+381373351
2398+381995930+382139684+382039356+382068971+382408244+382890031+383162489
2388+383054636+382653413+382011614+381003526+379467838+377324982+374645642
2378+371695839+368754496+365876071+363027019+360364873+358107003+356169850
2368+354212753+352141940+350329745+349148590+348635707+348919376+350520550
2358+353802857+358427509+363639112+368867335+373738215+377586833+379407037
2348+378492719+375244651+371471158+369168048+368602040+368604185+368375455
2338+368061747+368106623+368566139+369031064+369194581+369315035+369870860
2328+370885234+371886553+372532553+373023406+373772876+374839530+375934226
2318+376859876+377605056+378145952+378547507+379145972+380237223+381681407
2308+383165450+384649645+386162336+387428074+388155908+388492884+388835511
2298+389378372+390053715+390720838+391308604+391866605+392436422+392888050
2288+393066979+393059938+393107473+393306860+393542964+393621505+393394225
2278+392853570+392166170+391584114+391292709+391280742+391316371+391121305
2268+390628125+390050904+389699997+389714291+389953719+390185773+390388364
2258+390765562+391437671+392257795+392990252+393578805+394156962+394774585
2248+395165835+394956989+394191381+393414200+393069608+393052655+393005120
2238+392764392+392340324+391747601+391075311+390514077+390156642+389892797
2228+389564947+389138974+388746848+388620833+388886491+389365438+389708066
2218+389776875+389749043+389827674+390099981+390705577+391773348+393060603
2208+394023936+394430145+394588706+394891292+395463678+396271351+397167808
2198+397857324+398185990+398418044+398916845+399710436+400633275+401606823
2188+402491646+403015680+403184123+403424427+404026488+404762964+405300506
2178+405663290+406058529+406514026+406901922+407146608+407277428+407380325
2168+407533960+407735584+407952317+408273791+408863129+409689085+410497936
2158+411131878+411691058+412316236+413001642+413742742+414723572+416158962
2148+417971036+419821187+421517340+423201707+425087578+427229829+429588088
2138+432098412+434693349+437434186+440513117+443963142+447545981+451057442
2128+454497192+457844018+460994901+464011308+467045908+469945064+472311422
2118+474031327+475377600+476594746+477804095+479316031+481645793+485185872
2108+490093740+496517593+504762103+514998855+526596264+537817926+546607896
2098+551866369+553765777+553038518+550385378+546368619+541397713+535615417
2088+528851536+520906923+511966038+502555665+493119606+483908559+475240253
2078+467540992+461059601+455702855+451204489+447404010+444362430+442191894
2068+440730032+439482787+438064774+436627570+435606700+435118808+434896635
2058+434728827+434662737+434803831+435135580+435549373+436029287+436850589
2048+438433964+440905878+444023762+447599258+451798300+457090256+464107285
2038+473389498+485019454+498517209+513019607+527384325+540374123+551234240
2028+560029588+567063147+572099992+574535190+574335077+572419713+569894703
2018+567208744+564202582+560641349+556426109+551481495+545837423+539883179
2008+534228953+529120609+524171824+518868929+513214461+507706497+502794459
1998+498542684+494842140+491782187+489597568+488242048+487273789+486309519
1988+485373383+484677401+484310477+484266568+484590218+485329354+486400993
1978+487637932+488948637+490308992+491660675+492991294+494438651+496143960
1968+498069539+500065891+502031782+503951287+505831838+507653976+509422897
1958+511245306+513224131+515321054+517498601+519883333+522575758+525422121
1948+528217534+531123670+534615277+538701118+542314448+544214400+544616318
1938+545008747+546519957+549125955+552069806+554632227+556728726+558906213
1928+561633270+564778019+567815852+570245429+571988482+573586845+575505957
1918+577286482+578165261+578379456+578840060+579974133+581566271+583121662
1908+584107901+584327354+584115758+583997661+584362892+585290929+586372118
1898+587058762+587359203+587766198+588598258+589795127+590960567+591341935
1888+590530545+589229662+588504941+588651384+589121658+589172245+588579280
1878+587872993+587718210+588184192+588985489+590148996+591801814+593282986
1868+593136120+590711015+587040873+583459212+580423072+577859744+575767596
1858+574144937+572818306+571553807+570162446+568729504+567726281+567493229
1848+567959212+569098603+570601715+570905843+568658186+564985807+561909717
1838+560063313+558807940+557663472+557233873+558324732+560091055+560115472
1828+557637302+554583936+552247012+550047767+547668052+545871873+545004335
1818+544411854+543532410+542804062+543170019+544816249+546552232+546866090
1808+545705787+544466309+544462139+546048958+548598506+550755202+551366661
1798+550852267+551128653+553836732+558571624+562267031+561892371+558698667
1788+556341012+556539855+558604987+561315423+564259394+567227420+569688848
1778+571769513+574674078+579513589+585875190+591042824+592073667+589574827
1768+586343712+584279366+584299915+586489369+589288348+590456508+590166100
1758+590397097+591587377+593048121+595451166+600170707+606519555+611288353
1748+612361141+611119125+610117292+610708746+612756108+615261174+617232746
1738+619003662+622376023+628253207+633698376+634278829+630999483+627475844
1728+625342961+625021427+626416534+628818370+631878565+636562930+643812437
1718+651799175+655603976+653168113+648033298+643917842+642387352+643829541
1708+648111445+654312521+660566843+666026638+672174285+679838100+685987923
1698+687710428+686304199+683074655+679135681+677125367+678422866+681788518
1688+686023522+692602582+702691561+711068613+711114123+706333358+703050507
1678+703692850+707845656+713131448+717212937+720698439+725118506+728819231
1668+728661848+726160591+725703734+728670612+732218487+733046740+732063703
1658+732681508+737469526+747593137+760398536+766387351+763889659+762326894
1648+764819388+766914981+763585169+756929412+751583907+749339817+750700656
1638+755976958+763240426+766110541+760761954+752599641+747263444+745764744
1628+746707407+748853829+751718867+753674846+752507955+749680147+749444376
1618+753345213+757411169+756035100+750411093+745633894+743900390+743944813
1608+743322656+741452500+739993086+740170836+741264717+742024915+742610446
1598+744205727+747019694+749609736+750572223+750229052+749790629+749719976
1588+749804228+750050637+750685244+751578105+752340359+753051844+754490890
1578+757188815+759802187+759611502+757130008+755953870+757704358+760282010
1568+760409475+758214038+756215631+756320250+760257170+770097746+784265615
1558+791453474+785887005+776722920+770038032+767036584+767247273+768790033
1548+770058521+771915018+776471797+784287554+793733405+801214150+801898498
1538+797002476+793666620+794947982+798281542+799342604+798379634+799756549
1528+805692541+814440505+823126580+831274388+839112991+844612917+846982479
1518+848954595+851889863+854363258+855879243+858363215+864104533+874307803
1508+887784555+897199884+894592194+886183533+881032459+881354175+885945102
1498+891744320+894984744+895150406+895801634+899833925+906515610+912080085
1488+912931606+909494394+905525744+904616202+907872520+913501302+919179461
1478+924624267+930902584+938521975+946244717+950673548+949871284+946772348
1468+944852088+944047346+942067796+938361329+935598009+936560194+941713020
1458+948069303+949742670+945415377+939719146+935288805+932740224+932443107
1448+933376221+933414116+932113172+930908869+930882760+932633972+937072956
1438+944202371+950808145+952684587+950955132+949480064+949303885+949495536
1428+950405683+953634200+958831509+963076183+964574036+965130315+967287132
1418+970254976+971117981+969511821+967226270+965446590+964237151+963546275
1408+963726081+964598635+964555905+962221821+958898536+957279805+958508222
1398+961501210+964698601+967504651+969742577+971252639+972198928+972622785
1388+971912569+969903767+968062017+967618880+967533178+966442137+965422475
1378+966566339+969898629+973594640+976248082+977958197+979839050+982868301
1368+986808242+991156145+996998033+1004922943+1011298082+1011515541+1007629269
1358+1006272661+1010938230+1019717562+1027874134+1031804586+1030867302
1350+1026690985+1022777334+1022976782+1028077691+1034995147+1040328625
1341+1043761667+1046945580+1050745243+1054823770+1057351077+1056317333
1332+1053504755+1053471635+1057080795+1059708913+1057989068+1055146271
1324+1056038952+1060185775+1062553523+1060889040+1059481059+1063172537
1315+1070287990+1073741823+1069746701+1063456478+1061753919+1064454926
1307+1066696478+1066758247+1066618150+1067020793+1066388362+1063407160
1298+1058475358+1052928895+1048391033+1046360412+1046931558+1048103224
1290+1047170895+1043270783+1037855592+1032180878+1026327748+1020618583
1281+1015936756+1012086506+1007373855+1000835833+993780274+988217734+984537921
1271+981579626+978371779+974606808+969790565+963452354+956242676+949718193
1261+944662492+940057845+933903246+925168095+914983985+905552700+898196035
1251+892740955+888145253+883305258+877462222+870204314+861622012+852456658
1241+843481746+835013854+827413924+821135184+815907716+811198692+807606575
1231+806131568+806163963+805906252+804680796+803317661+802506452+802102237
1221+801930350+802323201+803483807+804751147+805290502+805447824+806371207
1211+808481487+811330871+814555218+818074747+821848724+825871406+829906659
1201+833342602+835839810+837898837+840572164+844686411+849801704+854087778
1191+856455889+858235508+861114750+864679971+867805984+871051726+875675410
1181+881297362+886355360+890525089+895484874+903170507+913566152+924301464
1171+932580605+937400897+939902699+942043620+944915549+947912585+949627353
1161+949838526+950094545+951997277+955609157+959601680+963107853+966928125
1151+971033488+972742998+970713767+967958546+967200221+966890533+964970998
1141+962945635+963446491+966957861+972236460+977673651+982123333+985635670
1131+988609679+990844583+991743187+990509571+986883186+981532665+975753995
1121+971197942+970107083+973818263+980019158+984667502+987209132+989437751
1111+990832314+990293926+989693769+991549420+995600810+999812605+1002692874
1101+1003129423+999880297+993519663+987642297+985720768+988501131+994394332
1091+999254453+998962111+994113050+988353963+983453771+979132642+975987591
1081+975599756+978051091+980934865+980743516+975607492+967536441+960253633
1071+955127219+951013939+946157263+939767799+933306172+929977750+931677167
1061+936236242+938772917+937303107+934890332+934865008+937130011+939741206
1051+941457002+941376437+938575101+933915274+930390607+930863661+936240594
1041+944843566+952891771+957173856+957116318+953792006+948572214+943279230
1031+940255782+940675831+942976130+944204849+943282131+941951270+942580316
1021+946096280+951584481+957152158+961604439+965028898+967279275+966988443
1011+962669067+954409690+944485648+935331656+926827803+917242641+906662597
1001+897349047+890557968+885027581+878835752+871471896+863708901+856371638
991+849954070+844878062+841364999+839318120+838688832+839131969+839087486
981+837128485+834349935+832942195+832651243+831174543+827778974+823834741
971+820023655+815881063+811712542+808608891+806747982+805170169+803009242
961+800186450+797218303+795063843+794832121+796980779+800978500+805803023
951+810422658+814278952+817881766+822289745+827787919+833817227+839733576
941+844649906+847693843+849961565+854604469+863288006+873925769+883109920
931+890001509+896411884+903617814+910390822+913866714+912354053+907316484
921+902072214+898767907+897006359+895357530+893722118+893485440+895127621
911+896820933+896495289+894523415+892732131+891733864+891024011+890867958
901+892164672+894583189+896636232+897856309+899404387+902273656+906169236
891+910584588+915576889+920436043+923479195+924103890+923136870+921393212
881+919952352+920493944+923402921+926693992+928319311+928711619+929739077
871+931815934+933215333+932812327+932066029+932653373+933949422+934243879
861+933020176+930650373+927829394+926450545+929039257+935833902+943101117
851+946517478+945095837+941287894+939609087+943275845+950143984+954128952
841+952838222+950433908+951040955+954431448+959067039+964859851+970817298
831+973901246+973348473+972299982+972757805+972890770+971438911+971304555
821+974948287+979343211+980054756+978215303+978034349+981552187+987878431
811+994233202+997997690+999605723+1001983384+1005618653+1006535449+1002004839
801+995027247+990034825+987443695+984348687+979654350+975490301+973329858
791+972022930+969914464+966585680+962266425+957285970+952249488+948087193
781+945355361+943112721+939884809+936111557+933532999+932019794+929422620
771+925531453+923634341+926096434+930769679+933564366+933319408+932179352
761+932313949+934450398+938560838+944075390+949624150+953688897+955043148
751+952516265+946958197+942959872+945237566+953616854+962806989+967286346
741+965915716+960465833+953191789+946814957+943823964+945191995+950208713
731+957416034+964737765+969788752+970851023+968485148+966028011+965610923
721+964638162+960049954+955647354+957946867+966187026+971167299+965880057
711+955104494+948478292+949030581+952453408+955278799+959163620+965057667
701+969343197+969031092+966121873+964536927+965886766+966911505+961583769
691+948509962+934118348+926386480+928356118+937325409+947222616+953239596
681+954074073+949043636+937700975+923758301+915037232+916345368+924330897
671+930778442+930635686+925932766+921746114+920557404+921480969+920656947
661+916291154+910942446+908552940+909932092+911467719+911203904+911970932
651+914895503+917606060+918760560+919762514+924366133+934025635+943542864
641+945694241+940286303+933643420+929424494+925715368+920107982+911970388
631+904325914+901043607+898747418+892895074+886331124+884717833+887868988
621+891135219+892610347+893024655+890676307+883777164+876378736+873451627
611+875614246+879983424+881034393+878441450+877017030+877953649+880381594
601+880469654+874538860
##END=
