##TITLE=<SNM>
##JCAMP-DX=4.24
##DATA TYPE=INFRARED SPECTRUM
##DATE=29/4/2025
##SAMPLING PROCEDURE=Instrument type and / or accessory
##ORIGIN=Admin
##XUNITS=1/CM
##YUNITS=ABSORBANCE
##RESOLUTION=4
##FIRSTX=4497.3318
##LASTX=599.83466
##DELTAX=-1.4281778
##MAXY=2.1145465
##MINY=0.38535404
##XFACTOR=1
##YFACTOR=1.9693249e-09
##NPOINTS=2730
##FIRSTY=0.40235415
##XYDATA=(X++(Y..Y))
4497+204310698+204903695+205178652+204654481+203742414+202903789+201960820
4487+200611946+199267582+198895122+199981191+201919945+203501795+203936967
4477+203440626+202901715+202934842+203174250+202708706+201260497+199622669
4467+198911194+199570656+201057757+202442042+203242910+203463477+203097691
4457+202274063+201652237+201751088+201938362+201167609+199779238+199349574
4447+200549082+202275879+203068151+202440484+200825143+199161135+198475461
4437+198965946+199627618+199440525+198580244+197942347+197973113+198430016
4427+198865627+198966672+198692518+198310267+198109917+198033842+197735581
4417+197024484+196163613+195678243+195979244+197159094+198826735+200015468
4407+199768130+198313172+197135138+197323971+198472798+199556279+200063320
4397+199887199+199128689+198453700+198661010+199560850+200095115+199755342
4387+199166825+199073377+199310182+199120335+198205817+197023349+196159496
4377+195886704+196223344+196860197+197132944+196756322+196462979+197181960
4367+198708272+199891300+200023110+199347667+198337219+197280190+196551115
4357+196542020+197223214+198191758+199093156+199693553+199815240+199557066
4347+199341962+199494748+199900576+200185475+200148217+199894432+199572109
4337+199204855+198904126+198919577+199223544+199360425+198912283+197899822
4327+196789994+196333832+197045958+198503170+199569249+199586849+199001796
4317+198724525+199219821+200141150+200691819+200506452+199995704+199698668
4307+199811169+200433071+201547076+202645660+203064126+202730089+202101952
4297+201520578+201053277+200818545+201079458+201920459+202938156+203468774
4287+203235964+202601456+202070596+201740661+201381775+200941231+200731771
4277+201027642+201633956+202089952+202272065+202491437+202899052+203153230
4267+202966017+202627440+202572067+202721554+202664865+202309566+202028738
4257+202199199+202756194+203202746+203136342+202829863+203014806+203989480
4247+205299945+206381399+207095840+207423158+207053452+205769939+204037437
4237+202764230+202546144+203220452+204018505+204258731+204103993+204384488
4227+205476671+206784201+207546660+207627003+207260233+206618219+205869939
4217+205222387+204790635+204636835+204797702+205118815+205238247+204852273
4207+204016840+203222737+203075763+203801630+205122931+206546956+207641894
4197+208254095+208603098+208963104+209286502+209414514+209491285+209738608
4187+209954590+209708735+209003328+208268684+207679364+207090861+206779857
4177+207429741+209055175+210791657+212041195+212886691+213264433+212823873
4167+211723442+210677733+210214731+210357483+210805912+211209078+211404009
4157+211343552+210940916+210350643+210083117+210396149+210993035+211594371
4147+212234296+212784814+212802399+212113078+211150693+210468622+210146465
4137+209988443+210146919+210946515+212076426+212706847+212551247+212147431
4127+212022703+212139138+212158085+212017754+212276820+213525648+215248465
4117+216063921+215507743+214567316+214084232+213814043+213420684+213259439
4107+213672698+214329482+214778531+215194515+216083064+217383678+218293793
4097+218131246+217174007+216429601+216598685+217406802+218007623+218048195
4087+218121606+218956963+220423740+221650291+221947978+221338939+220349087
4077+219546419+219137261+218907719+218644113+218436409+218382126+218247682
4067+217794803+217296828+217297040+217920394+218775273+219410749+219556407
4057+219153983+218490843+218037238+217923603+217904293+217899238+218081140
4047+218391735+218517523+218398379+218305249+218404387+218643371+219044842
4037+219744135+220664056+221416982+221685900+221613759+221694117+222266291
4027+223168536+223936822+224334358+224550854+224808347+225045077+225128446
4017+225049874+224769439+224172235+223365556+222818625+222954158+223663076
4007+224418287+224824207+224873148+224745831+224594363+224499220+224456529
3997+224371071+224161521+223923081+223915908+224304681+224937434+225482595
3987+225758020+225820884+225805478+225764406+225642281+225454295+225511590
3977+226134793+227014248+227382365+227040398+226649354+226787536+227223783
3967+227321771+226881862+226420252+226573310+227256062+227695911+227447241
3957+226951293+226847767+227259921+228088891+229466594+231326548+232831688
3947+233063212+232334575+231905865+232320350+232731021+232111950+230646081
3937+229438310+229450931+231006918+233638200+235961202+236462840+235190571
3927+233850777+233799793+234618821+235157929+235515679+236651340+238501367
3917+239702858+239080880+236833318+234091533+231893198+230750788+230935141
3907+233009822+237554312+243815323+249199044+251413419+250254256+246597696
3897+241701312+237608852+236445346+238755000+242257111+243487749+242500560
3887+242553481+244925409+247379359+248389929+249274529+249917859+248102291
3878+244574272+242982312+244954616+249024815+253310783+256326874+256174088
3868+253215973+250700915+250304181+250264880+248614945+246243365+245126379
3858+246433273+251433698+261282202+271385505+271186169+261266615+250566320
3848+244174632+243158978+246388630+251626405+256991345+262019767+266395219
3838+268247531+266239043+262168497+258479642+255660041+253249917+251543732
3828+251045166+251562301+253411783+257964415+264448445+267885815+266113135
3818+263660940+262899979+260467548+254456341+248234873+245734827+248472163
3808+254711155+260075112+262734088+265329625+268845900+269968274+267410147
3798+264245720+261813259+258689086+254585519+251320365+250260128+251173724
3788+253242729+255674448+257468164+258415537+260016728+263230308+265915313
3778+265291368+262497010+261163557+263409092+268848897+275181776+279681653
3768+281824675+283068237+284166942+285311804+287598653+291873559+296791629
3758+300073187+302054162+305724131+313778753+325867692+336602778+340815729
3748+341530413+343908787+347962808+349462485+347527182+346412284+349896568
3738+359260883+372065201+381968594+384061283+379931837+374843639+372771380
3728+374896152+380102299+386112022+391269743+395126698+397538094+398612677
3718+399317766+401606552+408038796+420103007+434823924+444502497+445509979
3708+442351242+440445267+442447005+448426432+455552204+459910767+460900180
3698+461095580+462374069+465033287+469442274+476281391+484370335+489389072
3688+488075474+482586153+476920863+473678106+474406591+479433803+487827833
3678+498534166+509220191+514732574+513963139+511754347+509817955+505047797
3668+496880070+489751695+486849528+487763305+490638474+494475757+499424093
3658+505588206+512127715+517971760+523350668+529537632+536817037+542965442
3648+544985188+542770949+538631213+534846322+532163073+529913845+527832295
3638+526930231+528142769+531324205+536256985+543625737+553329551+561049092
3628+560923002+555430473+551586623+552051274+555659348+560898788+567225342
3618+573647538+578392483+580287290+579079655+575989320+573842575+574697605
3608+577780736+580714593+582117204+582119626+581564053+581632213+583189911
3598+585569284+586926860+586547196+586047011+587456585+591261815+596312694
3588+599692498+598741402+594921826+592096747+591961456+593519759+595232542
3578+596006942+595160750+593177626+591474044+590953822+591967570+595336962
3568+601285668+607109615+609130512+607523056+605327643+604330966+604233689
3558+604541076+605147133+605149494+603734896+602602867+604903245+611018781
3548+617428022+620706615+621131496+620620173+619736633+618916228+619606971
3538+622022846+623940715+623543981+621518242+619275976+617942493+618932511
3528+622735744+627397819+630032643+629674771+627584443+625579345+624152520
3518+622248392+619945896+619171556+620533066+621970969+621471087+619491292
3508+618630391+621323689+626514521+629159090+626586979+623324610+624717536
3498+630035185+634744234+636766705+637715500+639269929+641110437+641760441
3488+640370965+637827426+635851082+635273717+635856287+637247035+639151889
3478+641207169+643577341+646421185+648636332+648571380+645951146+642386898
3468+640085067+639890696+640219330+638800374+636165369+635510462+638350976
3458+642254331+643785878+642190408+639273500+637428392+638068771+640127259
3448+640421147+637297640+633054817+631088339+632088467+633814507+633787570
3438+631496877+628240500+625996903+626075717+627886382+629361936+629127068
3428+627779602+627260591+629175373+633203970+637039830+638046313+635499929
3418+631038944+627229538+625729952+626036249+626700357+627526634+629212964
3408+631568609+633543077+634468385+633921287+631308922+627367250+624258514
3398+623215347+623905303+625755436+628458238+631349479+633633816+635188789
3388+636417368+637357871+637678212+637220824+635990610+634174800+632625274
3378+632849731+635655923+639538696+641259469+639275982+635599869+633193437
3368+633134176+634981282+638104425+641552631+644106037+645395150+646259199
3358+646857205+646016764+643439689+640679623+639765695+641396819+644598837
3348+647694135+649617574+650784349+652115652+652776371+650616067+645663008
3338+640991429+639103705+639273985+639277314+638588387+638701342+640848329
3328+644461487+647836812+649858132+650622967+650538645+649705649+648341173
3318+646857992+645396542+644228738+643942053+644519357+645102048+645091516
3308+644888427+645033343+645175899+644522444+643284724+643152762+645555502
3298+649685371+652901008+653617781+653145078+653852346+656517375+659784043
3288+661359779+660131745+657337780+655192730+655046301+657264596+661491862
3278+665692192+666655031+663553437+658972234+655307622+653307730+653611001
3268+656131598+658966362+660320366+660806325+661939081+663283762+662557729
3258+658668963+653574863+650483015+650840584+653769476+657954309+662412449
3248+665394066+664835225+660836047+656117978+653254279+652469650+652495982
3238+652628670+653176737+654670693+656861324+658267447+657763328+656663623
3228+657436025+660275026+662604642+662294410+659373689+654668877+649653712
3218+646834868+648091414+652516563+656841893+658446262+657012112+653624015
3208+650020058+648283788+649467209+652256513+654212942+654560402+654203983
3198+653253069+650980899+648126220+646594733+646811139+647026758+645315427
3188+641910018+639443296+640648812+645044542+648246378+646534019+641604871
3178+637949703+637028268+636618822+634737818+631948333+629750619+628714172
3168+628491289+628459812+628191650+627909263+627983416+627737168+626067968
3158+623557420+622168186+622626058+623682602+623881030+622923699+621558799
3148+620824230+621114668+621975388+622818916+623281752+622848880+620781555
3138+617403506+614283632+612620486+612387797+612747000+612663948+611427500
3128+609520950+608613741+609554970+611093902+611672962+611471447+611218721
3118+610467082+608816648+607283224+606977472+607557742+607884499+607358285
3108+606123834+604774491+603990649+603958566+604293011+604593740+604511778
3098+603347122+600553339+596850652+594094762+593631563+595027698+596750893
3088+597831166+598290007+598321666+597876324+596882371+595485389+594067644
3078+593060313+592758979+593261948+594309413+595121343+594834900+593291489
3068+591010481+588734862+587392904+587730981+589514649+591460182+592297536
3058+591797714+590689111+589799941+589246124+588298842+586418079+584429083
3048+583797784+584535380+584773396+583106981+580447763+578546237+577677346
3038+576967898+576203184+575924671+576166319+576219467+575569100+574494698
3028+573660068+573316361+573170295+573151954+573634826+574436223+574596999
3018+573702018+572442143+571463686+570451876+568726865+566279331+563890030
3008+562320166+561657570+561570342+561745041+561897887+561826337+561490620
2998+560842372+559890005+558984248+558372198+557733332+556945131+556548216
2988+556658991+556386108+554982891+552875856+551189405+550548178+550507742
2978+550201323+549321414+548011176+546199300+543926102+541974697+541377901
2968+542511383+544610186+546157653+546305838+545773632+545662432+545877809
2958+545489005+544134457+542407569+540999812+539853800+538377216+536465279
2948+534700135+533506544+532938804+533302608+534896020+536911348+537622490
2938+536144575+533363141+530790062+529129579+528266196+527944099+528020976
2928+528374126+528766017+528738535+527969584+526849964+526072053+525651349
2918+525146926+524701645+524917688+525720780+526161945+525475318+523893468
2908+522260104+521092845+520320988+519685633+518920858+517741976+516167693
2898+514816715+514543288+515696745+517690765+519249673+519267410+517610619
2888+515159454+513115857+512109374+511822629+511599625+511270870+511058096
2878+510989693+510833579+510351433+509435870+508275693+507384404+507159494
2868+507463430+507756531+507512038+506545930+505098433+503588103+502417151
2858+501951470+502237792+502771996+502945332+502604259+501927438+501047923
2848+500016409+498957656+498120725+497603894+496960155+495512749+493388613
2838+491682186+491167987+491425979+491577463+491399193+491262631+491241111
2828+490864535+489894674+488798481+488023779+487317660+486315747+485289863
2818+484646063+484160104+483423961+482614513+482121108+481800010+481246314
2808+480428149+479470395+478276077+476932939+475955875+475576302+475367403
2798+475058896+475059713+475693161+476516320+476772648+476104907+474670425
2788+472911515+471327456+470266825+469806138+469779625+469918548+469990885
2778+469811889+469246843+468370445+467540052+467015745+466618527+466033172
2768+465219003+464356951+463596081+462886694+462000550+460893370+459944484
2758+459432132+459053558+458435909+457683634+456975639+456165252+455156620
2748+454168055+453412662+452921588+452695527+452673947+452555514+451969403
2738+450937011+449999838+449698474+449914849+449945752+449287515+448086599
2728+446772305+445677262+445108191+445229045+445636372+445524204+444538756
2718+443099733+441731535+440538186+439554069+439108152+439372137+439873351
2708+439965301+439582247+439112753+438759391+438392894+437813774+436897242
2698+435690909+434495078+433673039+433355483+433373128+433364926+432983749
2688+432189495+431312945+430721991+430501288+430461396+430290057+429742960
2678+428892258+428117102+427636772+427186739+426448901+425634186+425219898
2668+425225679+425197228+424835755+424291048+423875489+423657358+423331145
2658+422532956+421301017+420089448+419344679+419171403+419347282+419603337
2648+419818562+419854610+419476369+418735444+418028176+417455563+416718421
2638+415856309+415337420+415299103+415390719+415326917+415071498+414614322
2628+413926455+413080293+412262764+411597505+410993627+410372951+409985721
2618+410127187+410612027+410946835+410962997+410899347+410917991+410879583
2608+410630066+410230820+409773553+409197460+408552570+408215462+408469247
2598+409006447+409152241+408601663+407759981+407235734+407182132+407371873
2588+407657165+407927022+407877960+407364185+406714726+406289451+406080551
2578+405984243+406042718+406236666+406346897+406161968+405706547+405179970
2568+404690833+404172488+403595305+403099691+402880198+403034981+403439372
2558+403720639+403607139+403311708+403248088+403437889+403530141+403277537
2548+402749416+402267906+402247536+402826081+403614040+404053268+403951694
2538+403453597+402743121+402062789+401755826+401969811+402446599+402781892
2528+402791033+402588822+402445752+402549203+402798297+402900386+402739095
2518+402521812+402492029+402621691+402688550+402584736+402430800+402406436
2508+402587551+402954653+403426327+403843218+404030750+403947668+403737770
2498+403623786+403739162+403980629+404041041+403735803+403266883+402991397
2488+402993213+403052081+402964853+402747661+402555256+402506013+402637218
2478+402993062+403560892+404048819+404043189+403563011+403120817+403102687
2468+403436890+403887983+404303905+404589621+404726850+404780301+404783479
2458+404742135+404728484+404780240+404765167+404541891+404200575+403972880
2448+403961107+404110230+404366739+404683993+404942408+405039836+405004636
2438+404886324+404639894+404244765+403809653+403466097+403279383+403304837
2428+403618792+404209322+404819466+405003516+404564470+403943340+403874786
2418+404572884+405489203+405944412+405804883+405446649+405246708+405261629
2408+405338627+405422859+405642443+406083517+406610730+406978378+407049655
2398+406871416+406609913+406479706+406661971+407174232+407800538+408214766
2388+408218852+407862191+407334675+406745023+405986241+404791076+402922510
2378+400406816+397631678+395026364+392530313+389764921+386961725+385037651
2368+384303990+383929230+383224504+382566116+382508640+382977650+383808950
2358+385271066+387708279+391183786+395547403+400279969+404237712+406159153
2348+405549434+403119515+400471889+398760347+397691333+396629855+395738476
2338+395383025+395497039+395852853+396348377+396963816+397734796+398662314
2328+399531084+400032964+400141651+400181512+400448857+400905730+401402646
2318+401983400+402725475+403507805+404177270+404821524+405655821+406718963
2308+407855926+408909595+409814049+410574466+411220808+411781465+412342516
2298+413068368+414005480+414926400+415572258+416004101+416494752+417109193
2288+417625540+417870911+417873423+417615370+416948689+415927466+414946770
2278+414360537+414167437+414170978+414229241+414288049+414330513+414309689
2268+414116468+413728390+413348364+413229991+413426179+413835625+414388715
2258+415068502+415820232+416526320+417078805+417475690+417837436+418305326
2248+418874246+419292439+419242984+418734536+418121972+417599601+416992727
2238+416218479+415523135+415053459+414640533+414174337+413757174+413414375
2228+413078689+412871938+413000299+413364798+413626241+413677452+413743493
2218+413980813+414290228+414617016+415112782+415817266+416475865+416885856
2208+417167789+417525025+417977903+418475999+419082692+419915385+420951136
2198+421948751+422630626+422967493+423187107+423482115+423866530+424342169
2188+424981035+425731009+426338307+426645391+426830956+427154172+427598969
2178+428000001+428374307+428844255+429358242+429765992+430053192+430276952
2168+430397262+430393539+430489544+431026927+432030777+433061595+433693923
2158+434052430+434621078+435600866+436751449+437807387+438761298+439738725
2148+440804017+441888376+442802577+443388688+443723497+444089903+444751802
2138+445856470+447426516+449285608+451105444+452680303+454110911+455670970
2128+457619015+460102899+463042839+466142525+469097811+471670164+473614213
2118+474830595+475544643+476098975+476669257+477268474+477848441+478408160
2108+479160556+480425001+482240661+484327175+486411874+488309283+489846702
2098+491028459+492040723+492912006+493414945+493273025+492245325+490223520
2088+487455222+484390553+481200097+477710456+473833192+469848511+466254058
2078+463398501+461227815+459427592+457825523+456504207+455540097+454907133
2068+454620146+454641302+454672446+454407342+453951165+453629764+453511785
2058+453461815+453468686+453583517+453745988+453935517+454270809+454804560
2048+455440278+456116554+456920312+457983242+459339819+460938800+462811027
2038+465143245+468110183+471748039+476019828+480801154+485790502+490649219
2028+495186324+499249243+502574537+504969619+506644448+508174421+509902580
2018+511415362+511952411+511354042+510182909+509030662+508134530+507392152
2008+506418811+504859539+502757044+500398645+497995573+495773949+494040251
1998+492920208+492376621+492525593+493447875+494642192+495263262+495139018
1988+494980118+495403608+496307215+497332010+498464462+499933025+501788969
1978+503791585+505619472+507132496+508433745+509717894+511194961+513110893
1968+515514904+517949362+519822256+521201381+522739223+524770774+526961708
1958+528904396+530615242+532357021+534376041+536855112+539773472+542786446
1948+545572238+548373285+551808053+555818792+559158826+560686559+560943462
1938+561464349+562994383+565156443+567381396+569440005+571263019+572952921
1928+575004145+577978256+581697347+585105298+587489030+589422396+591484697
1918+592752563+592114968+590536084+590063865+591361331+593419637+595018316
1908+595881033+596464087+597108220+597795936+598565856+599674277+601191055
1898+602758801+603858989+604199669+604092405+604382177+605407486+606308884
1888+606232188+605667778+605424435+605315112+604851005+604227151+603840648
1878+603599302+603246637+602965461+603465827+605521772+609032812+612143485
1868+612075022+608128871+602524174+597653502+594365043+592388396+591084332
1858+589763984+587999627+585905969+583932046+582530222+582044746+582632825
1848+584331323+587024560+589515012+589171244+585035141+579809078+576256695
1838+574564553+573415878+572234091+571970530+573604620+576182179+577063903
1828+575185199+572169260+569148962+565686773+561940139+559214153+558197924
1818+558272743+558566752+559021537+560142186+561880938+563153888+562895714
1808+561437896+560227295+560563859+562837057+566245190+569046722+569881715
1798+569251989+569205197+571601338+576421224+580702486+580805937+577466751
1788+574674481+574740281+577196229+580581057+584058984+587067841+588865855
1778+589752725+591632640+596400709+603867161+610564117+612369576+609682331
1768+605802767+602850387+601950503+603742826+607156831+609797586+611208370
1758+612856201+614782969+616212639+618373186+623202999+629918780+634952892
1748+636406533+636090248+636358470+637929061+640351776+642882664+644894359
1738+646955147+651213225+658678951+665308775+665338436+660606324+655942977
1728+653113601+652405908+653747806+656417798+660110195+666102000+675770948
1718+687270295+694228451+692711734+686655279+681482910+679819642+682161727
1708+687842756+694999582+701063543+705851709+712398482+722141280+730634736
1698+733159631+731143940+726533136+720824685+717326176+718179148+722750545
1688+729846111+740248296+753889605+763326832+761219797+753540814+748264812
1678+747966323+752275794+759072568+765738046+771674827+776828190+778432740
1668+774726239+770329056+770598489+775357841+779405385+778848663+776401855
1658+777090237+783907411+797735708+814046586+819629249+814183936+811373385
1648+814834545+818347158+814683455+806264636+799801096+798511136+802860619
1638+811396025+819732518+821000323+814002700+805502525+800157636+798001327
1628+796942240+795433695+793988347+793288343+792595481+791894932+792874599
1618+795488296+795547195+790005089+782870056+778612341+777377104+777115419
1608+776448042+775785205+775906331+776103064+774613587+771225248+768121052
1598+767234848+768208704+769540976+770501818+771001579+770677121+769272875
1588+767218504+765178721+763597052+762720654+762575072+763443480+766524432
1578+772697897+779076388+779451693+774303234+770615680+771208541+772643054
1568+770862595+767583276+766648161+769200962+775654151+788025597+805075888
1558+812957354+803828422+790075005+780320827+775584356+773846694+772816542
1548+772682643+775959177+784012678+795082483+806212396+814441141+814881156
1538+807632078+800944626+799665199+801817271+802480350+801140814+802186583
1528+807841946+815690241+822196093+827032202+831568913+835869486+839780164
1518+843540479+845923726+845534680+844031705+845013914+850972487+862362996
1508+876417443+884493887+880423946+872633824+869934896+873814400+882056099
1498+889873764+892141817+889095551+886705402+889996162+899214683+908840350
1488+911816761+908739744+905627678+905259395+906398566+907823152+910690543
1478+916662312+925519693+935611283+944902686+950537286+950615131+947801917
1468+946644101+949111005+953472716+956190227+956799432+958548959+963891790
1458+971127126+973692821+968003862+959365974+953271322+951479059+953054796
1448+955360440+956442287+956697071+957778555+961109568+967151314+975074730
1438+982903351+987727111+987965974+985974315+984689864+984161289+983232893
1428+982741910+984846281+989512292+994579394+999275308+1004106452+1007096968
1418+1005230309+1000629433+997868095+998171608+999825675+1000426828+999129423
1408+997645334+997973484+999921075+1002001415+1003413470+1003888654+1003202633
1398+1001984284+1000924955+998944192+995299072+992700084+994021885+998239950
1388+1001753350+1002383015+1001510673+1001435673+1002894096+1006137640
1380+1011270481+1016725116+1019764845+1019595352+1018534450+1019492930
1371+1023265715+1028293592+1032160081+1033727404+1033765055+1033271105
1362+1032626065+1032698341+1034536125+1037628639+1040071512+1040353838
1354+1038842811+1037225005+1036321367+1035608287+1035179229+1036434685
1345+1040304443+1046296128+1053401984+1060356871+1065090678+1065615258
1337+1061932184+1056501277+1052609243+1052136480+1054338068+1057279491
1328+1060837625+1065999522+1071087569+1072563123+1070207902+1067435003
1320+1066589961+1067529314+1069632838+1072227407+1073741823+1072362153
1311+1068008251+1063018389+1059978055+1059247300+1058779742+1057186875
1302+1055473063+1054404775+1053006582+1050736834+1048361032+1046374215
1294+1044976870+1044263427+1042488234+1037353093+1030025806+1023924436
1285+1020138213+1017091705+1013444163+1008879667+1002756202+994776914+986370504
1275+979980693+977244538+977309914+977194356+974520247+969370699+963334219
1265+957173284+950203567+942386144+935178955+929558883+924471018+918301669
1255+911340305+905069442+899686780+894020461+887611704+881418625+875916774
1245+869718127+861194707+850696577+840181075+831455959+825167117+820770540
1235+817285953+814267290+811942517+810483186+809476884+808179963+806279225
1225+804330665+803114011+802683499+802622422+802779929+803114858+803547306
1215+804440654+806277711+808583476+810274407+811276472+812804992+815944419
1205+820612427+825884010+830998147+835990491+841184834+846207142+850189250
1195+852926192+855037404+857101885+859330349+861831152+864636255+867560305
1185+870322610+872866573+875576397+879024058+883491641+889221338+896826108
1175+906390637+916409344+924580159+929875713+933273677+936461893+940460103
1165+945040096+949431225+953098198+955527572+955963228+954226534+952023736
1155+951717983+953942876+958064392+963783920+970508054+975676731+976250706
1145+972840575+969803873+970328816+973268363+975275337+974969100+974018004
1135+974979633+978866703+983932171+986757734+985923588+983919096+984059594
1125+987397992+992856260+998530206+1002125629+1001502622+996623112+990461692
1115+987110884+988485409+992840218+996219477+996395810+995403491+996154586
1105+998914833+1002964738+1007731536+1011334828+1011869880+1010471989
1097+1009056968+1005910277+999001154+991503648+988545457+990842082+993954693
1087+993352147+989804666+987614882+987509979+986011664+980444437+972309942
1077+966568986+966649919+969653630+968945575+962372107+954264670+948865968
1067+945722848+942099883+937773342+935041182+934766241+935257527+935246934
1057+935786889+937674674+939540969+940069180+939223896+936252207+931097574
1047+926981990+927760991+933688873+940989041+946402332+950015491+952296740
1037+952176400+949810768+947602098+947299311+948239874+948739696+948115115
1027+947431757+948362090+950310831+950172877+946965653+943777981+943454129
1017+945762376+949697692+954193060+956410325+953453224+945263887+934272654
1007+923844198+916352807+911282556+906393724+900767175+894824582+888200751
997+880335689+872500833+866577248+862602041+859579140+857557093+857024947
987+857154367+856145341+852868625+847616110+841758567+836768038+833221224
977+830841124+829199044+827574517+824606823+819811575+814944171+811788097
967+809615021+806552289+802279502+797946787+794690652+793226781+793819763
957+796159366+799740503+804214684+809256967+814661058+820382644+825780923
947+829562968+831691069+834265541+839230342+846268765+853564392+859619939
937+864179351+868502744+874582202+883141578+892820514+901732132+908945556
927+913776701+915083307+913009868+909228972+904586448+899397069+895552069
917+895391354+898520308+900955796+898911473+893369912+888908988+888216126
907+889471037+889332053+887784162+888133559+892006707+896961460+900278310
897+902814464+906255103+909242592+909794532+908993619+909079031+910014328
887+910015902+908892590+908967651+912264524+917905117+922673670+924772594
877+925642636+927284535+929437817+930468877+929917723+928270376+925694452
867+923235659+923150005+925854623+929092234+931032803+932015921+932375548
857+931486135+930168088+931194063+936470792+944807164+952702191+957077037
847+957216989+954447964+950380626+945729325+941589711+940538130+944645723
837+952611088+960318341+965319946+968788431+972109154+974108683+972665029
827+968161914+963944635+963320055+967111604+973638583+979799457+982759525
817+982731619+982255466+982878472+983581624+982358977+979863259+979479116
807+983139612+988875363+992824601+993525937+992058131+988253870+981686576
797+974879148+970789110+969352297+968298295+965775397+960839530+953789849
787+946903909+942978581+943049223+945787013+948496292+948338422+944206797
777+937968198+931103869+922464044+912295275+904092922+901035760+903978757
767+911847390+921471907+929090660+933079487+933225432+930042543+927149062
757+929898656+939481041+951368465+959442306+960106475+955395670+951343223
747+951407146+954168725+957070075+958748294+957729523+954366487+953410730
737+957966147+964047723+966683817+967725531+972140692+979408474+982887431
727+979095095+973451959+972394386+975946769+979622519+979360714+974472608
717+967982554+964678841+967826984+975785752+982332767+982989732+978698664
707+971976768+963544027+954036400+946179207+941593040+939897448+941586321
697+946721523+951913021+952367624+947417048+941246306+939003435+942866111
687+949944001+954739613+955270246+954360555+953604557+950524755+943050010
677+933981974+927417405+925194570+926123874+925408554+917943616+906724477
667+904486993+913271007+921942128+926375267+930748056+934875322+932659206
657+923309146+913697947+909536177+909452763+906899357+898535562+888709652
647+883832200+886646322+895207999+904962177+912498605+917789256+921584620
637+922936444+919938059+911555682+898943313+886996022+879474727+875061442
627+871049492+866061445+860412681+857248254+860534776+869455414+877077496
617+878131437+876693898+880875099+891871476+901866879+902465975+894953034
607+886675862+878452626+866411629+856837597+859090941+871030484
##END=
