##TITLE=<SNM>
##JCAMP-DX=4.24
##DATA TYPE=INFRARED SPECTRUM
##DATE=29/4/2025
##SAMPLING PROCEDURE=Instrument type and / or accessory
##ORIGIN=Admin
##XUNITS=1/CM
##YUNITS=ABSORBANCE
##RESOLUTION=4
##FIRSTX=4497.3318
##LASTX=599.83466
##DELTAX=-1.4281778
##MAXY=2.1501656
##MINY=0.53379035
##XFACTOR=1
##YFACTOR=2.0024977e-09
##NPOINTS=2730
##FIRSTY=0.54615474
##XYDATA=(X++(Y..Y))
4497+272736758+274449713+275282393+274357203+272501167+271302137+271498855
4487+272568406+273601942+274106372+273848159+272691426+271108962+270113615
4477+270125313+270568962+270956921+271493706+272225958+272595850+272210183
4467+271419948+270835271+270599025+270478893+270435852+270690612+271265615
4457+271840113+272164999+272303318+272424194+272691009+273186301+273650816
4447+273691951+273371172+273062805+272876178+272717083+272540963+272200479
4437+271665778+271480996+272202801+273505711+274504123+274692477+274144144
4427+273218626+272387940+272024805+272301353+273254523+274559844+275351001
4417+274911043+273598876+272629931+272826113+273710078+274017285+273273215
4407+272476998+272716964+273711567+274444712+274584757+274367710+273622926
4397+272047516+270373346+270032088+271272729+272705534+273224549+273238241
4387+273509878+273858190+273563217+272350198+270491841+268605772+267461242
4377+267445765+268265110+269304509+270163085+270879502+271743614+272791347
4367+273624087+273865452+273425107+272333559+270915964+269931809+269897609
4357+270523064+271290231+272160773+273256636+274338867+275010875+275049391
4347+274356577+272942197+271124797+269541082+268747127+268804127+269437410
4337+270377632+271130125+270878133+269363444+267521576+266562275+266714703
4327+267317745+267749190+267867120+267841343+267922215+268225760+268537878
4317+268574876+268513798+268840619+269538790+269886924+269381333+268519393
4307+268295381+269072668+270160614+270559646+270125848+269677645+269774114
4297+269930500+269526944+268842792+268592080+269119221+270465618+272418301
4287+274051217+274192333+272894543+271583001+271294250+271519453+271159711
4277+270096738+269311980+269690444+271081101+272452501+272954698+272694998
4267+272231495+271795227+271412655+271112206+270607568+269628592+268737512
4257+268750758+269450953+269975237+270097244+270042268+269738663+269283703
4247+269385202+270463921+271886487+272816499+273242170+273583071+273809375
4237+273573069+272940173+272368236+272018912+271639793+271209657+271188256
4227+271856364+272727620+272995566+272584926+272370022+272991577+273805267
4217+273704780+272829685+272484885+273290420+274255078+274029131+272564418
4207+271176439+271197037+272610018+273991359+274101609+273327566+272926511
4197+273245980+273547858+273335335+272955919+272832780+272775840+272404281
4187+271939647+272004178+272593409+272846859+272179912+271121641+270637482
4177+271078422+272114934+273293158+274210550+274494747+274234957+274123100
4167+274505463+274724564+274086489+272922165+272025341+271706408+271910448
4157+272468247+272890168+272623621+271682298+270638464+270137278+270499937
4147+271375598+271856870+271557403+271287939+271846304+272597368+272320671
4137+271118516+270287860+270554526+271431735+272140979+272418152+272424016
4127+272361628+272348680+272497922+272835727+273020063+272478248+271166259
4117+269878173+269459883+270024081+271201025+272755242+274447867+275529682
4107+275150235+273452580+271702568+271112146+271745846+272690324+273282204
4097+273755411+274426049+274893630+274665629+274009099+273500442+273229461
4087+272889423+272292930+271697954+271765194+272891061+274501802+275515365
4077+275579568+275211611+274841868+274479894+274083214+273582326+272729823
4067+271474507+270319262+269863469+270132426+270686564+271152984+271433699
4057+271684828+272202146+273085397+273930489+274136673+273629058+273020271
4047+272950412+273420583+273879650+273889443+273501187+273017533+272704165
4037+272723691+273085308+273676057+274423579+275257598+275848050+275653862
4027+274457422+272859718+271997035+272471491+273712668+274701228+275129191
4017+275342727+275379278+274836273+273690314+272581503+272088354+272182114
4007+272565847+273118198+273805148+274509183+275078055+275336119+275158183
3997+274729118+274417030+274224896+273828454+273260952+272997709+273289616
3987+273937722+274647115+275111124+274988224+274336903+273897510+274477007
3977+276027147+277501027+277714741+276421565+274520613+273211869+273007472
3967+273532291+274142060+274545348+274755817+274738702+274477186+274248351
3957+274429800+275080734+275975950+276948795+277986229+278987945+279602328
3947+279608727+279393287+279448621+279456241+278703033+277420572+276639892
3937+276876287+277962149+279786009+282219637+284337844+284729196+283170515
3927+281198633+280499271+281149253+281861771+281945708+282062090+282834585
3917+283562641+282822828+280349969+277499063+275701635+275419402+276674122
3907+279613758+283944438+288408526+291659714+293352011+293450594+291355425
3897+287141483+282793420+280949171+282560775+285508984+286460278+285394567
3887+285067775+286437150+287969937+288991893+290452142+291678198+290664189
3878+288170554+287043943+288208207+290460714+292921726+294901109+294768118
3868+292615145+291124179+291676501+292436376+291289197+288961444+287478812
3858+288394388+293241672+302665735+311225359+309613130+300202758+291194098
3848+286216531+285365040+287368800+290549057+293589656+296279235+298743522
3838+299875133+298413932+295339401+292634493+291012084+290103830+289754268
3828+290046592+290722737+291936976+294854288+299497265+302704906+302351326
3818+300680578+299265632+296613379+292157209+288199932+287161277+289789272
3808+294439809+297869230+299109752+300318694+302333973+303040270+301587880
3798+299706752+298087290+296054270+293760449+292180812+291681085+292122443
3788+293743126+296757353+300410221+303776422+307191288+311248695+314978060
3778+317040249+318120456+320074687+324111883+330460760+337890468+343722830
3768+346545876+347644567+348620716+350320216+353409214+357766594+361898413
3758+364695414+367377612+371946860+379188423+388136393+395908043+400239290
3748+402960003+407092269+412517325+415922041+416506509+417582549+421966896
3738+430581824+442268425+453376630+459764648+460589083+458767218+457707787
3728+458781505+460887777+461848268+461028000+459394132+457238777+454150494
3718+450858499+449378367+451329859+456059512+459994882+459977856+457602835
3708+456050880+455851275+456113327+456399549+456406365+455720249+454870216
3698+455250227+457758745+462059065+467180099+472588249+477811735+480910049
3688+479877793+476288592+473302017+472184425+472506722+473581750+475628253
3678+479540643+484392809+486181427+484025359+482398812+483182886+482791920
3668+478485975+473090565+470136880+469892627+470526030+470878181+471328647
3658+472236871+472907748+473292938+475230054+479951313+485718311+488153249
3648+484881285+478796485+473660092+470933157+470046215+469506633+468733721
3638+468579151+469671204+471728929+475089563+481587265+491893746+500725721
3628+499925753+491637855+484416354+482183967+484590361+489689845+494421938
3618+496174123+495803369+495949218+497034515+497639462+497891781+499414923
3608+502153257+504278549+505141083+505731028+506576716+507101952+507107190
3598+507504198+508915245+510418504+510811999+510983268+513229286+517907713
3588+521538407+520368993+515935593+512390445+511144833+511034523+511014938
3578+511188588+511916167+513029860+513937042+514534072+516023520+519739460
3568+524269954+525248335+521159675+516187764+514521927+516055547+517770198
3558+517766805+516755028+516044593+516264558+517637386+519812623+521830165
3548+522915640+522609000+520395722+516537921+512700360+510310635+509225159
3538+508491984+507555335+506595170+506153277+506532128+507795420+510201159
3528+513688920+516794377+517263298+514343813+509770397+506026239+504102875
3518+503216647+502537645+502457934+503482867+504931417+505567558+504858195
3508+503223434+501779110+501884061+503901067+506333297+507114572+505893129
3498+504286228+503979707+505047085+506099462+505934444+504861708+504146987
3488+504515479+505581607+506282874+505508861+502907209+499573333+497303503
3478+496735673+497059339+497575556+498334746+499147870+499311668+498614122
3468+497536564+496422990+495432733+494937560+494905235+494373659+492623409
3458+490549820+489891206+491267279+493434658+494413604+493304674+490997845
3448+489118860+488443787+488456199+488184056+487242346+486090792+485352081
3438+485058120+484752729+484145520+483457529+483309149+484017649+485026599
3428+485575974+485697833+486012986+486715473+487206688+486707288+485015526
3418+482761233+481050749+480545932+480700294+480341415+479049191+477404518
3408+476078242+475319022+475275089+476042345+477192381+477965829+478104177
3398+478019168+478124001+478363878+478452370+478351049+478245621+478267796
3388+478545059+479285229+480344511+481032026+480950142+480548432+480399189
3378+480764557+481842115+483323050+484151920+483845339+483502504+484546933
3368+486999135+489679189+491507156+492051412+491534302+490748651+490521305
3358+490968348+491534987+491851003+491970302+492003609+492281646+493308513
3348+494748492+495341205+494520104+493071970+491912945+491247961+490936380
3338+490999393+491762660+493342356+494924791+495268668+494088509+492354540
3328+491303146+491468968+492297004+492648382+492010158+490941023+490127839
3318+489556497+489032512+488911665+489434728+489627219+488245342+485997329
3308+485032611+486074868+487680876+488428636+488586838+489170830+490273629
3298+490956799+490641467+489957821+489677850+489552777+489024118+488299247
3288+487878487+487874231+488422415+489891236+492225300+494752093+496757491
3278+497785222+497537814+496000384+493783416+491963992+491312701+491738610
3268+492583970+493399267+494259450+495301499+496224933+496505171+495997616
3258+495082665+494172506+493238178+492009771+490663761+490038812+490848156
3248+492747589+494458877+495012152+494730782+494648034+495183420+495717288
3238+495351653+493848066+491785371+490062237+489224140+488888359+488081723
3228+486490478+484829911+483742381+483057187+482494209+482264422+482493823
3218+482745725+482497573+481716803+480900583+480673922+481133555+481539611
3208+480929039+479137117+477066951+475953526+476274930+477393237+478240621
3198+478193026+477311621+475983053+474605016+473492335+472721090+471969520
3188+470851869+469579379+468947346+469503210+470806804+471557273+470781653
3178+468992410+467584399+467118932+466939299+466315065+465133597+463542977
3168+461812609+460474368+459920528+460004585+460362511+460780205+461054313
3158+460901230+460121443+458673547+456859063+455471174+455121910+455411495
3148+455296155+454256488+452679173+451197792+450152410+449604165+449469270
3138+449568269+449646075+449415573+448636798+447197891+445194994+443033836
3128+441351599+440599285+440708463+441268971+441879454+442244583+442268276
3118+442207288+442379330+442591109+442230028+441121753+439906918+439314055
3108+439411507+439696835+439672100+439279736+438868769+438777628+438966518
3098+439083941+438760662+437852974+436692639+436001284+436137578+436549915
3088+436453446+435845731+435276978+434896461+434372802+433620072+432908119
3078+432315495+431773858+431562139+432047489+432885230+433090937+432156757
3068+430708891+429799000+429812365+430272028+430498332+430126030+429124939
3058+427814677+426859007+426780159+427370075+427815540+427432879+426177683
3048+424554619+423203341+422523564+422528981+422933549+423352375+423473995
3038+423121129+422302082+421370313+420935891+421205801+421553697+421238454
3028+420385087+419708019+419441859+419139981+418522235+417944166+417816861
3018+418035188+418252087+418310724+418052511+417176225+415817089+414786679
3008+414681281+415099451+415229168+414901394+414409942+413643668+412332513
2998+410951618+410330360+410434300+410529995+410434419+410578274+410938670
2988+410864972+409992764+408667173+407458291+406698476+406423386+406478839
2978+406650911+406725205+406540066+406120318+405699290+405453816+405262694
2968+404933522+404580358+404466953+404562916+404591401+404443766+404184362
2958+403789796+403234408+402676162+402318326+402209504+402199057+401979747
2948+401369889+400634839+400268876+400440145+400825097+400907517+400400349
2938+399515014+398745109+398258091+397684874+396681967+395524073+394927460
2928+395308603+396302015+397097102+397242207+396868178+396174144+395211926
2918+394174849+393376904+392898698+392561369+392179572+391700591+391249946
2908+391139726+391590400+392285833+392491600+391898618+391099245+390838652
2898+391060313+391150233+390884401+390609847+390637647+390861303+390902795
2888+390498614+389815177+389273302+388979610+388646776+388181398+387899135
2878+388036144+388526435+389252526+389994393+390254004+389676501+388522030
2868+387350742+386464097+385881861+385561707+385411006+385273670+385084483
2858+384952802+384972655+385024655+384937205+384791236+384840289+385177886
2848+385651122+386003452+386002380+385574953+384863566+384061544+383315540
2838+382802389+382605998+382520007+382263223+381821686+381370209+381042018
2828+380885424+380811606+380579259+380065483+379495034+379167528+379031858
2818+378759448+378219567+377670936+377425552+377510115+377726151+377861790
2808+377752046+377308129+376615702+375888331+375230938+374568902+373897608
2798+373429760+373321147+373424610+373553583+373786703+374228745+374687278
2788+374844527+374537857+373721160+372506683+371429095+371162935+371664478
2778+372028297+371519730+370386184+369376877+368908255+368942157+369274813
2768+369702657+370042575+370085079+369645210+368781158+367761344+366711468
2758+365635338+364768428+364409937+364446935+364477504+364303348+364028348
2748+363842911+363862615+364050433+364286858+364517121+364667882+364494738
2738+363809127+362831640+362038934+361651303+361475331+361280786+361093206
2728+360967627+360780940+360488557+360277135+360249007+360253918+360138816
2718+359874353+359458980+358983036+358692349+358741372+358948717+358930590
2708+358480064+357787429+357243322+357047200+357133578+357395928+357721857
2698+357874849+357657504+357172600+356684422+356289587+355909159+355515634
2688+355197980+355002870+354799901+354399084+353816490+353311435+353123766
2678+353271461+353572476+353734606+353503659+352892282+352213191+351802670
2668+351762249+351936970+352062698+351999328+351862944+351845442+351929558
2658+351908038+351658338+351272076+350917037+350699960+350679660+350820688
2648+350857031+350473418+349770008+349221495+349048947+349023408+348949144
2638+348875029+348813623+348699355+348584402+348561126+348617560+348716351
2628+348793889+348699861+348411407+348192990+348274904+348508560+348550232
2618+348279696+347928319+347832892+348057083+348281214+348179239+347817860
2608+347486842+347270628+347059087+346872192+346867548+347048848+347210681
2598+347205502+347090698+346956100+346772836+346517718+346310612+346297754
2588+346476166+346702233+346804178+346695774+346457712+346263554+346204530
2578+346271382+346447770+346652197+346679462+346400325+345947388+345612769
2568+345603422+345855176+346043679+345892710+345508650+345234781+345203736
2558+345258534+345255021+345203111+345147212+345086521+344994904+344841911
2548+344651473+344541342+344610368+344812205+345022049+345152718+345154832
2538+345038390+344933647+344990141+345212249+345504900+345798444+346009568
2528+346017307+345811153+345547613+345391227+345391941+345540052+345851068
2518+346306237+346721014+346825103+346569629+346210661+345981053+345855771
2508+345737663+345658428+345667655+345707273+345713881+345723108+345769036
2498+345754986+345562614+345288061+345190848+345349793+345557524+345624972
2488+345598749+345616727+345712303+345791479+345729984+345537165+345407389
2478+345522015+345862290+346234830+346351123+345981440+345267731+344736155
2468+344760265+345187812+345636700+345902473+345982303+345978642+346013348
2458+346039303+345838359+345366908+344927575+344846375+345131526+345547583
2448+345902711+346163900+346343265+346395562+346295522+346117824+345924737
2438+345677329+345405127+345341370+345678460+346238343+346572278+346405057
2428+345890477+345455817+345471503+346000668+346727384+347160050+347060754
2418+346680504+346469231+346603442+346931275+347310751+347770236+348325505
2408+348846782+349168751+349262363+349299004+349543286+350122516+350883819
2398+351489629+351663815+351459358+351361818+351985219+353633256+356360637
2388+360413906+366297434+374494012+385479883+399907438+418349478+440712690
2378+466025747+492946480+520512283+548334006+576286994+604283975+631560044
2368+655221374+671070423+678442596+681604786+683725017+682552984+673558075
2358+655789888+632700466+607142680+578942939+549730409+525477646+511620063
2348+510148236+520613901+539982203+561666174+578893767+589714351+595738163
2338+598191883+597447337+594912835+593009591+592936905+593707346+593335401
2328+590309356+584380496+576635366+568648900+561140581+553394022+544337618
2318+533985954+523353128+513342454+504087456+495047393+485518974+475281935
2308+464903452+455273176+446815439+439295333+432333771+425857975+419932419
2298+414397768+408993458+403811107+399317582+395823124+393114048+390722448
2288+388413536+386255830+384365505+382834237+381772842+381098483+380408735
2278+379418299+378362797+377628253+377199337+376800395+376355287+375970334
2268+375617498+375153906+374600631+374131413+373773398+373354900+372792696
2258+372228051+371841521+371689927+371706089+371744665+371695523+371600810
2248+371566402+371611258+371743266+372039281+372441557+372634792+372384943
2238+371882388+371489191+371263541+371002501+370628710+370229113+369805079
2228+369267818+368623968+367989196+367488427+367203009+367120411+367132406
2218+367128001+367028169+366775433+366441051+366274158+366445069+366792488
2208+367013554+367059482+367158540+367478724+367966277+368521159+369131821
2198+369782308+370393119+370904812+371320125+371695285+372152805+372784808
2188+373490719+374070484+374498834+374922750+375403903+375860917+376246733
2178+376606237+376980414+377369177+377747254+378041780+378156823+378080951
2168+377929357+377862802+377979035+378236236+378465100+378520880+378452271
2158+378471053+378756322+379282570+379803222+380097183+380318814+380924475
2148+382115647+383603994+385116569+386833840+389066167+391784261+394725593
2138+397724194+400770449+403949009+407391111+411159587+415215476+419516570
2128+423994558+428507699+432982383+437400365+441531023+445026434+447814566
2118+449983969+451435169+452137537+452461352+452741710+452772933+452147091
2108+450897878+449500880+448330544+447302664+446014310+444137974+441708126
2098+439093942+436667011+434464330+432215871+429677082+426863144+424010542
2088+421372218+418987286+416657508+414257871+411983725+410112568+408620322
2078+407233594+405791442+404376377+403148029+402232453+401733560+401637656
2068+401682155+401527495+401134595+400801613+400768157+400952939+401134982
2058+401228921+401300804+401403940+401503415+401577054+401724809+402123156
2048+402887287+403990859+405303740+406703030+408142086+409617871+411122917
2038+412665585+414299543+416095899+418090164+420233582+422347950+424176363
2028+425625212+426950803+428500406+430263069+431927834+433379123+434799516
2018+436279231+437694653+438959672+440100004+441153214+442171837+443139175
2008+443850056+444174764+444389013+444900676+445746334+446625954+447317636
1998+447878650+448571642+449669530+451160555+452646253+453724585+454412457
1988+455003683+455714980+456637968+457790981+459093920+460468534+461971942
1978+463715436+465717380+467863537+469940638+471865491+473967447+476662115
1968+479681165+482146166+483726070+485121609+487050599+489398593+491696046
1958+493895423+496197578+498477529+500425391+502111348+504018342+506535461
1948+509637883+513099213+516818130+520619735+523807880+525616887+526323571
1938+527174795+529147272+532225226+535724120+538959532+541613214+543800655
1928+546044114+548986220+552700494+556352678+559094763+561090397+562840767
1918+564079175+564402842+564476421+565501711+567841371+570635069+572654932
1908+573544255+573923403+574348212+574914047+575773307+577143754+578837332
1898+580431851+581709074+582651736+583521771+584862572+586677889+587915584
1888+587749732+586932500+586777900+587624302+588893726+589890144+590218573
1878+589949793+589576955+589583563+590229110+591821664+594524995+597369769
1868+598215040+596069985+592504001+589658988+588247882+587507503+586290109
1858+584183391+581792118+580030676+579304109+579454542+580141046+581041918
1848+582079412+583390924+584303285+582943137+578828641+574301718+571519451
1838+570438440+569758306+568823324+568398694+569424341+571225728+571661252
1828+569900286+567345246+564932661+562261061+559492187+557741044+557347668
1818+557289149+556536329+555337687+554703332+554940917+555174693+554448542
1808+552938377+551623651+551340406+552502794+554960622+557637937+558996002
1798+558683468+558224609+559517904+562818800+565794184+565592614+562838623
1788+560629573+560673447+562485668+564915457+567470676+569807300+571156137
1778+571552431+572658504+576291519+582325331+587733183+589133633+587032571
1768+584217859+582406114+582472728+584982704+589096129+592407919+593693594
1758+593977197+594180910+594692334+596619568+600990521+606662747+610487806
1748+611041974+610134315+609853630+610840881+612893843+615411260+617396833
1738+618793771+621376374+626416983+631434138+632251489+629571554+626429425
1728+624071549+622921721+623178952+624465997+626650759+630707154+637498608
1718+645202008+648879373+646460478+641694601+638401504+637905260+640187413
1708+644491454+649058083+652145800+654597615+659109476+666004752+671271159
1698+672060948+670065790+666349492+661527895+658042158+657712479+660096965
1688+664014654+669763912+677875153+684857640+685963118+683187399+680834464
1678+680601045+682128712+683957304+685227978+687166166+690890620+694386358
1668+694340698+691734938+690371277+691658263+693773851+694611501+694832716
1658+696608564+701450819+709922695+719853480+724338850+722776536+722445488
1648+725171976+726349545+722066935+716180877+713543804+714655413+718432968
1638+724436479+731341220+734629376+731713939+726855076+724366650+725112684
1628+728374230+733645400+740808145+748579111+754264612+757211957+760113881
1618+765141810+770743909+773181913+772258062+770930834+771046501+772342119
1608+773334310+773128157+772481181+772640842+773614103+774349480+774603615
1598+775657421+778833898+783875995+789159131+793377924+796340866+798101594
1588+798510864+798066768+798155409+799778503+802601489+805838270+809741672
1578+815083624+820424087+821915738+819834499+819141983+822526876+828020094
1568+831649061+832794245+833909128+837055305+843726746+855055065+868223822
1558+873559761+869167972+863219883+859206410+857357578+857878765+859896366
1548+861511245+862569515+865291181+871420480+879636792+884892544+881741486
1538+872987615+865728907+861601433+858233626+853782009+849997073+849881763
1528+853923930+859588118+864083609+867804193+872661627+878048286+881578135
1518+882807257+882594377+881515449+880347882+880414615+883782482+893196663
1508+909220077+922681009+920207823+908488509+900205404+898359488+901318025
1498+905957102+908303013+906776596+904448962+905127190+909791747+915974325
1488+919569598+919305641+917659330+917000568+917078255+916349842+915171857
1478+916043797+920546431+927966526+936224985+941720227+942120807+940443064
1468+939883063+939609819+937114428+933264425+931987738+934673150+939514213
1458+943546498+943448094+938715971+932552680+927222218+923589203+922368058
1448+923304053+924240703+923252440+921208229+920193595+921113755+923863281
1438+927863062+931094248+930929170+928001589+925124906+923728921+923941444
1428+925565907+928122078+930746114+932789909+934503072+936053360+936232129
1418+933774302+930049550+927617380+927176975+927753229+928375142+928886328
1408+929618313+930744388+931539177+930712242+928524146+927394916+929087005
1398+932463444+935041821+935522587+934016114+931680740+930381194+931471908
1388+934325314+936167479+934811022+931447322+929231664+930348869+934693688
1378+940297513+945156019+948842849+952093680+955411184+958673266+961313554
1368+962508506+962160253+961799857+963340084+966521324+968990581+969826208
1358+970220835+970958534+972014125+973759970+976783038+980776985+984797424
1348+988363408+991537682+994317986+996420655+997572031+998405812+1000843637
1338+1006202912+1012695763+1016758825+1017755481+1019014666+1023164404
1330+1029066714+1034302166+1038556558+1042372689+1044756877+1045042027
1321+1045796634+1050635018+1058992358+1065194224+1064159112+1057463620
1312+1051205437+1049162119+1051041015+1055829037+1062856827+1070000463
1304+1073741823+1072678017+1069030000+1065309713+1062273787+1060015327
1295+1058814600+1058836865+1059770538+1060703854+1060503356+1059219525
1287+1058846509+1060670041+1061520133+1055742718+1043072646+1030273751
1278+1023429671+1023109874+1025921967+1027916827+1026628234+1022219658
1270+1017020401+1012842684+1009669362+1007040384+1004722275+1001669323
1261+996427144+989168853+982411509+979207707+980253000+982268696+980380037
1251+973427256+964898052+957990156+952262746+945601603+937326058+928327636
1241+919467206+910770544+902126089+893876619+886366574+879499932+873007617
1231+866925287+861521841+857187738+854247120+852026937+849088581+845258282
1221+842023406+840263571+839264712+838427835+838250495+839212564+840797618
1211+842160087+843196927+844092441+844851274+845939607+848235928+851884957
1201+855704124+858318337+859672056+861005475+863641775+867932004+872962553
1191+877258557+880023203+881744998+883824927+887509139+892325318+896123411
1181+897898962+899255479+902032389+906482160+912215761+918903811+926081499
1171+933689947+942089018+950756689+958101954+963293710+967161037+970623974
1161+973312898+974760734+976104928+978911484+982947579+986311577+987245488
1151+985696153+982926446+980371525+979297300+980218472+982595041+985343852
1141+986819489+986064824+984021089+983230050+986209721+993474798+1002305583
1131+1008055138+1008325048+1004796092+1001218797+1000658736+1003552504
1123+1007072650+1007960842+1007524723+1010425873+1017720001+1024706120
1114+1026163898+1021312893+1015144363+1013385005+1016552017+1021461600
1105+1025624196+1028139351+1027329501+1021689362+1014210809+1011391930
1097+1015098882+1020376600+1022922354+1024435376+1027081736+1027900278
1088+1023240960+1015220443+1009602330+1009533990+1013316426+1016631192
1080+1016534277+1013431200+1009497081+1006659510+1005349605+1003726571
1071+998999746+991626561+985409514+982345490+980126736+976351979+972850883
1061+972472271+973857481+973388620+971455255+972368033+977149983+980425519
1051+977119206+969675775+965159092+967611026+975369015+983564611+987918835
1041+987411756+984372735+982270005+983328990+987156193+991355341+993667200
1031+993732029+992367297+988746247+982000690+974969209+971847024+973089778
1021+974658402+972946132+968895154+966153665+967103947+971348160+976682015
1011+980493026+980886819+977568124+971600152+964430025+957581361+952216610
1001+948314875+944741212+939563921+930953220+920081261+911044085+906073722
991+903539755+901156877+898407232+894714865+888774753+881246313+875017955
981+871888745+870981325+870777017+870865360+870993231+870073964+867112510
971+862438727+857469316+853347260+849973796+846407217+842683954+840720109
961+842047099+845027543+846098791+844052853+841141286+840104506+842098890
951+846722490+852519848+857516881+860014772+859675568+858456150+859961493
941+866540067+876736357+886048563+890852777+891573213+891993616+895802781
931+903548744+912945662+921733227+929072718+934426873+937039300+936597228
921+933571303+929684034+927337231+927216384+928081479+929010508+929970732
911+930441974+929688975+928371391+927923366+928540457+928486463+926142755
901+922730240+921331576+923362214+927203288+930309519+932172639+934412585
891+937886476+941216839+943018405+944190854+946120826+947424897+946081477
881+943436486+942650091+945060830+948565319+949817717+947991387+945431287
871+945119824+947986387+952330075+955288492+955350523+953699986+951973429
861+950769250+951146136+954283264+958491401+960156880+959144210+959128792
851+962066791+966571330+970752143+973428029+973717823+972620620+972957085
841+975715600+979078824+980294790+977496568+971387569+966331899+966999591
831+972852312+978725333+981498314+983102894+986369024+991338673+995875774
821+998171739+998522194+998424326+998586248+999318114+1001620746+1005685594
811+1009605783+1012379300+1015858251+1020621865+1022831273+1018554497
803+1010417776+1004720251+1004458198+1009182523+1017844658+1028717867
794+1037529185+1038315461+1028404737+1012599681+999859959+995750225+997771398
784+998229007+991957431+980818657+971738679+969442714+971431859+970959903
774+964758275+956096319+950089533+948815406+951332585+955493812+958910078
764+959987517+959070155+958802149+962243120+968337951+971332742+968261990
754+963609400+963321868+968027619+973636624+977663848+981581299+985217886
744+984347910+978029484+972881065+974441116+979730502+982459609+982566347
734+984257305+986194302+983242909+977151173+974387956+975991583+976937519
724+973081265+966745872+963140896+962991594+964825425+971108253+983430132
714+995318749+998088218+992174061+984967561+980901166+979515003+979147820
704+978092050+976045815+976105643+979284680+981612791+980564879+978418514
694+976704160+973078349+966676996+960208731+954637826+950078103+950715791
684+960972029+976966332+987216854+986661139+981491647+977908161+976684515
674+976965320+978422324+978036091+969958604+953816725+943491135+950156981
664+967515182+984525608+991681210+982861260+961783367+939654883+926308428
654+927327527+941514491+957638987+961382014+953210290+946464078+947517109
644+951847582+953629502+954526862+959398107+963440453+958410916+952449314
634+956031966+963078389+958402701+938546965+914532085+896989517+890529825
624+894400961+903202516+909779900+911377217+913288675+922823882+934046296
614+928080348+906917802+887741366+881900015+893589087+915816272+932276519
604+935528124+927930331+917019142+912397626
##END=
