##TITLE=<SNM>
##JCAMP-DX=4.24
##DATA TYPE=INFRARED SPECTRUM
##DATE=29/4/2025
##SAMPLING PROCEDURE=Instrument type and / or accessory
##ORIGIN=Admin
##XUNITS=1/CM
##YUNITS=ABSORBANCE
##RESOLUTION=4
##FIRSTX=4497.3318
##LASTX=599.83466
##DELTAX=-1.4281778
##MAXY=2.0588617
##MINY=0.43024692
##XFACTOR=1
##YFACTOR=1.9174644e-09
##NPOINTS=2730
##FIRSTY=0.44588861
##XYDATA=(X++(Y..Y))
4497+232540748+233076345+233777672+234158605+234124676+233487679+232204205
4487+230846468+230285490+230968882+232684486+234787815+236466910+237101559
4477+236727574+235992442+235377889+234788017+234195565+234067588+234582498
4467+235076099+234936371+234525192+234591139+235207993+235847367+236158281
4457+236261328+236482810+236974686+237394770+237060263+235689921+233804064
4447+232193449+231259605+230861156+230477021+229721342+228965584+228988836
4437+229863836+230771227+230938200+230368301+229770752+230056206+231475663
4427+233011222+233124698+231459343+229472800+228998348+230367167+232222452
4417+233088453+232749531+231962642+231348322+230953184+230539580+229891129
4407+228971320+228007851+227296188+226917338+226810514+226929446+227073214
4397+226904204+226472463+226291812+226783159+227951167+229207893+229505704
4387+228527035+227463224+227465307+227935236+227583197+226514863+225959667
4377+226386202+226885553+226466526+225551799+225583397+227072220+228827831
4367+229475132+229118679+228888307+229273141+229661876+229466288+228970154
4357+228762692+228969392+229466615+230118781+230408650+229761799+228437759
4347+227238541+226530173+226258706+226438192+226974783+227516613+227902488
4337+228186948+228073829+227084794+225495069+224383262+224592605+226110865
4327+228300782+230234417+231030166+230452355+229161700+228055085+227435683
4317+227071893+226904531+227208979+227895587+228275106+228138424+228332986
4307+229415215+230551470+230670231+229975789+229477494+229610275+229946212
4297+229932705+229502580+228995628+228751532+228924707+229542260+230463562
4287+231242664+231257507+230191784+228446074+226834263+225757956+225169654
4277+225368723+226822388+229028330+230640125+230957784+230443061+229776254
4267+229177865+228637356+228294223+228391038+228886861+229340114+229418060
4257+229302609+229373421+229759483+230328963+230923824+231572524+232406647
4247+233261504+233595327+233127060+232263593+231615515+231371574+231332966
4237+231284831+231085280+230572499+229667176+228574751+227783183+227779220
4227+228698050+230192250+231563758+232056970+231330728+229863105+228630347
4217+228247424+228722234+229893771+231508178+232894435+233234320+232362724
4207+231008670+230175231+230350443+231262854+232246045+232770141+232727181
4197+232325825+231755988+231026373+230209409+229648105+229646224+230157497
4187+230931890+231728416+232329913+232624041+232769581+233065108+233574547
4177+233990543+233954842+233498015+233067719+233136013+233841164+234904633
4167+235753179+235901269+235430298+234902783+234676282+234597683+234459261
4157+234386086+234555143+234795680+234763102+234401909+233975545+233669449
4147+233474919+233464832+233766373+234116734+233933456+233184910+232739320
4137+233387103+234817968+235904440+235804175+234582140+232973484+231803999
4127+231557028+232244507+233476970+234692290+235544925+236076605+236409418
4117+236463615+236169736+235709085+235340897+235211350+235349601+235648594
4107+235919547+236051675+236119658+236341248+236749816+236842698+236023138
4097+234605734+233715098+233906816+234624665+235216899+235668286+236130771
4087+236497839+236639961+236559108+236307070+236042333+235942908+235938696
4077+235872267+235879696+236200914+236743614+237179490+237280796+236966355
4067+236275923+235484930+235076378+235381215+236194029+236866214+236921608
4057+236455548+235849994+235404933+235339747+235758853+236325348+236338870
4047+235584993+234807212+234854679+235640465+236458377+236953361+237101808
4037+236691515+235663110+234615961+234355545+235110805+236328690+237090991
4027+236939233+236460708+236674885+237732603+238730219+238936950+238621048
4017+238378879+238222490+237815787+237191007+236724932+236661767+236998792
4007+237628390+238392277+239112239+239567839+239514621+238973211+238347312
3997+238005313+237946391+237979062+238002640+238103465+238463835+239077051
3987+239652142+239924494+239785948+239165162+238285530+237836941+238293208
3977+239269794+240000093+240166430+239913272+239386099+238577901+237564619
3967+236820441+237085115+238624576+240670056+241951027+241916834+241051237
3957+240022319+239173835+238782379+239148485+240250608+241559681+242370273
3947+242552432+242839643+243803888+244812306+244813471+243929565+243179636
3937+243117606+243680216+244698907+245859859+246571413+246451052+245816200
3927+245351959+245443940+245918035+246370153+246734579+247325446+248329667
3917+249316822+249446758+248408669+246718773+244988341+243488281+242593433
3907+243182963+246048966+250596239+254481835+255816537+255040792+253274053
3897+250856904+248435340+247396118+248383646+250127786+250693722+250206680
3887+250382871+251616966+252435018+252398944+252921703+253926592+253250117
3878+250651042+248733587+249211132+251374502+253951709+256214831+257279435
3868+257037437+256741678+256893435+256329069+254371483+252165681+250881321
3858+250890491+253197552+259554028+267711017+269700372+264399735+257648711
3848+253119575+251465613+252030647+253882498+256359346+259339416+262559743
3838+264682454+264517609+262800529+260930416+259359046+257911241+256716328
3828+256174763+256360310+257352734+259795466+263613249+266376159+266315729
3818+265320165+264843755+263465315+260153474+256351155+254065465+254521329
3808+257455237+260682714+262667982+264604741+267264914+268609595+267449311
3798+265606242+264242195+262851415+261380466+260554394+260473822+260710597
3788+261433249+263083155+265169807+266757169+268025318+269898633+272331294
3778+274330783+275571764+276737394+278859639+282858960+288556368+294113147
3768+298105411+301200900+304369875+307842084+312285394+318669411+326354247
3758+333084180+338210865+343950767+353210998+366871952+380885101+388924184
3748+391314507+393512133+398702791+404717610+408007226+409692786+412843358
3738+418629017+425932843+432598087+436844410+437664778+435673029+433363528
3728+433122804+435224191+437566362+437806153+435934206+433950353+433630891
3718+435196214+438008828+442031494+447685663+453785717+457100947+456632929
3708+455041183+454719577+456336470+459650146+463396029+465585790+465988281
3698+466288781+467440174+469152717+471662810+476046810+481760880+485255688
3688+484183562+480972343+478797533+478553795+479647494+481339800+483441653
3678+485960668+488085213+488603589+488048501+487899479+488100911+487385082
3668+485753424+484424068+483963106+484075665+484428699+485104801+486253863
3658+487603207+488662588+489674596+491928610+496551374+502506510+505814279
3648+503912428+499570736+496510497+496036729+497432638+498872284+499130602
3638+499134425+500609322+503556597+506679627+509844778+514260080+519679556
3628+523034792+522648218+520594329+519656646+521590266+526478901+532044757
3618+535235771+535723559+535591945+536277931+537756278+539398444+540287665
3608+539526888+537512384+536296645+537872288+542508699+548549784+553549829
3598+556107451+556759555+556999035+557715299+559082050+561449494+564891241
3588+567643830+566941617+562697003+557855369+555484505+556910256+560725770
3578+563465179+563234279+561936039+562149470+563805126+565462959+566900025
3568+568638306+570269405+570956076+570532199+569440426+568622390+568976823
3558+570262255+571429875+572138989+572688326+573033122+573450160+574993662
3548+577756260+579736197+578863078+575774023+573113384+572755221+574444077
3538+576708940+578981015+581704073+584189765+584775782+583523361+582523539
3528+583181363+584514604+584577085+582968927+581343112+581490020+583045459
3518+583644158+581838112+579095346+578002517+579410736+581770035+582769360
3508+582073551+582071126+584683645+588153306+588878274+586173991+582684684
3498+580829896+580946466+581905442+582717075+583528895+585031612+587236170
3488+589143616+589795410+589274298+588009320+585729598+582352757+579297337
3478+578352784+579712634+582096989+584143199+585135872+585055734+584437886
3468+584185040+584768135+585585176+585871906+585923134+586319967+586597495
3458+586033611+584632790+582465596+579334701+575724536+573038345+572517544
3448+574118988+576398213+577683645+577401890+576213691+575290836+575283748
3438+575498858+574802986+573554980+573190475+573745345+573894056+573717555
3428+574499470+575705822+575599573+574380352+573668254+573746091+573755354
3418+573614601+573720352+573646992+572848850+572040201+572409865+573887528
3408+575281262+575816796+575645579+575202989+574871124+574923099+575184152
3398+575381542+575888292+577068781+578104911+577683645+575945613+574703202
3388+575331122+577094955+577998538+577286564+576304709+576458269+577339409
3378+577365334+575984470+574504755+574397946+575826060+578042430+580430452
3368+582766252+584896330+586487267+587197065+587566667+588938703+591817622
3358+594955169+596853850+597527465+597868344+598396418+599125365+599506282
3348+598468101+595653155+592416322+590541391+590620347+592216507+594610311
3338+596906197+598360049+599184116+599907591+600141289+599161548+597230726
3328+595238542+593600230+592291049+591432166+591398595+592494283+594300952
3318+595408142+594859614+593810677+594273783+596423134+598545254+599379828
3308+598967577+597544126+595388496+593520466+593130534+594344719+596408213
3298+598464246+599348556+598087246+595555050+593892990+594064642+595570344
3288+597895326+600722146+603458571+605502667+606351292+605857411+605211711
3278+606035964+607565104+607193637+604781990+603182535+603823075+605006362
3268+604770115+603212563+601677766+601317675+602267824+603313155+603020644
3258+601329736+599687633+599589777+601128926+602954246+603908559+604470890
3248+605744696+607588107+608786999+608529489+606927797+604552768+602064030
3238+599967834+598748613+599212030+601532163+604258640+605632106+605478981
3228+604816370+604386276+604286306+604221587+603645020+602178609+600346078
3218+599320082+599645606+600698149+601492933+601508352+600623855+599056169
3208+597443908+596375201+595835998+595479389+595159274+594719047+593838405
3198+592630125+591776030+591663440+591686381+591026132+590108748+589961591
3188+590299859+589790187+588152933+586652516+586364978+587094236+587857935
3178+587703566+586037714+582808901+578972559+576211391+575351763+575539641
3168+575678530+576059509+577570806+579889944+581441652+580996326+578887759
3158+576695946+575732556+575801813+575545237+574066579+572063328+571028069
3148+571392635+571996433+571564163+569975029+567634504+564615143+561135721
3138+558185058+556914919+557498449+558976547+560268943+560861861+560408515
3128+558767718+556814327+556040245+556886134+558185493+558665137+558249963
3118+557428570+556238071+554737094+553685173+553635188+553940258+553602549
3108+552650909+551983511+552225042+552952310+553004782+551790969+549948553
3098+548518886+548034268+548477791+549414946+550057849+549730522+548418916
3088+546601616+544802533+543405505+542584671+542488245+543145633+543976166
3078+544056428+543238764+542395922+542287559+542701737+542789708+541908320
3068+540256829+538835617+538526382+539137826+539733542+539786449+539420577
3058+538771395+537915186+537102869+536213212+534619166+532468821+531102940
3048+531286591+532118243+532479576+532452532+532522785+532424680+531553115
3038+529983875+528459025+527584102+527459078+527910123+528646095+529330963
3028+529928295+530714314+531497099+531311459+529600471+527235887+525575381
3018+524953492+524694241+524159515+523173370+521789833+520313009+519253068
3008+518722600+518310100+517827410+517392312+516645616+514912401+512446386
2998+510653551+510650412+511994657+513074182+512702186+511212493+509904120
2988+509640642+510184445+510713825+510696977+510166851+509399794+508631059
2978+508157601+508351883+509098393+509450090+508499071+506550344+504829284
2968+504108700+504154271+504344481+504250728+503648888+502565416+501403982
2958+500559461+499886033+498999640+498044984+497546721+497597047+497726051
2948+497441995+496558897+495291649+494350826+494366587+494909955+494833081
2938+493830244+492765329+492268060+492041605+491745923+491579462+491690716
2928+491743156+491345609+490507118+489503752+488596346+488008091+487837371
2918+487844645+487572806+486757753+485539433+484410794+483942621+484238738
2908+484738711+484845613+484555682+484212751+483905008+483379327+482364553
2898+480863110+479295859+478357275+478501199+479449979+480325585+480427669
2888+479789211+478799647+477666003+476610539+476093593+476359153+477066558
2878+477585866+477396029+476256199+474359291+472275467+470615335+469841470
2868+470190370+471382329+472552933+472899004+472326261+471189197+469652131
2858+467793985+466131832+465348642+465420076+465668850+465820079+466199566
2848+466715611+466616636+465593717+464288732+463439486+463129256+462952258
2838+462526671+461838912+461223054+460918077+460708408+460251830+459599601
2828+459000528+458424832+457746461+457110428+456634421+456098233+455302858
2818+454396944+453655097+453201285+453015210+452994538+452952604+452666901
2808+452015667+451111556+450294421+449929264+450100698+450414316+450208999
2798+449212502+447892410+446857897+446128795+445370908+444562042+443987091
2788+443781805+443766884+443617582+443182328+442655279+442227175+441716881
2778+440939162+440130917+439561189+439125500+438661585+438144111+437444105
2768+436537600+435871041+435824880+436000045+435702342+434951170+434386135
2758+434259961+434043173+433166261+431831310+430722783+430098314+429623737
2748+429074369+428731966+428896935+429301197+429281116+428515023+427374945
2738+426453612+425954820+425716832+425629887+425763678+426090756+426217925
2728+425607693+424243708+422836732+422071541+421898863+421843438+421671724
2718+421426679+421118190+420712623+420252376+419801051+419371548+418948355
2708+418506262+417973494+417235719+416327691+415626659+415549910+415923988
2698+416008664+415365171+414351360+413599380+413386602+413613461+413998295
2688+414150737+413777249+412967388+412109314+411508811+411212787+411075577
2678+410867991+410487446+410095960+409863350+409629776+409054266+408064671
2668+407009672+406427852+406652255+407454097+408127680+408115184+407427426
2658+406385732+405272728+404283133+403500316+402891296+402493934+402441867
2648+402595241+402459430+401799710+401048600+400763549+400951272+401203808
2638+401182328+400730848+399905568+399129404+398931111+399308454+399651851
2628+399471868+398967326+398658339+398600148+398301793+397528892+396783439
2618+396615269+396797334+396644706+395970097+395260672+394939718+394853177
2608+394605615+394116397+393586302+393157234+392934695+393060030+393409676
2598+393550025+393306598+393002616+392898916+392836932+392633200+392413180
2588+392332390+392259837+391994836+391639004+391440619+391329397+390988828
2578+390431160+390076759+390141758+390324538+390248473+389932741+389643525
2568+389471407+389267208+388936183+388599655+388430024+388456228+388586413
2558+388706091+388684393+388430770+388081621+387979538+388248113+388520948
2548+388390981+387992158+387765144+387810839+387910964+388026072+388286193
2538+388555856+388479138+388008478+387519011+387310865+387301944+387292587
2528+387241856+387178443+387080027+386942040+386820715+386781765+386880989
2518+387142819+387480746+387677577+387528088+387044590+386502186+386249805
2508+386507750+387297064+388342332+389047841+388915946+388088895+387203497
2498+386712166+386599855+386687266+386879715+387038187+386908437+386432524
2488+385954030+385810697+385899351+385980111+386146074+386553662+386975705
2478+387065697+386823606+386473463+386115580+385773146+385612871+385818126
2468+386238521+386417230+386092856+385467703+384900959+384601267+384657625
2458+385074010+385694096+386259442+386568304+386548129+386249992+385807308
2448+385400528+385239290+385428505+385784368+385985706+385982131+386010792
2438+386154063+386163233+385860122+385511440+385559218+386005911+386332896
2428+386162922+385759686+385633698+385889995+386260001+386601720+386983725
2418+387326626+387375460+387116179+386920250+387100388+387480279+387622587
2408+387436107+387278008+387391935+387587305+387641798+387679815+387949416
2398+388499250+389186480+389817167+390280708+390632810+390968280+391258647
2388+391432226+391478543+391367010+391024638+390450278+389731838+389012435
2378+388524616+388543702+389204603+390400013+391851502+393190868+394037036
2368+394313881+394625633+395837892+397907416+399708084+400412194+400229724
2358+399626362+398920076+398640372+399300341+400784034+402339348+403169135
2348+403014984+402404347+402381095+403515610+405195264+406437892+406973831
2338+407205198+407401438+407200784+406203542+404819009+403953941+404018660
2328+404638405+405079938+404774620+403817850+402958222+402737704+402888032
2318+402862387+402504783+401890572+401023172+400046602+399366210+399278519
2308+399695060+400292205+400752763+400921990+400909805+400972006+401202938
2298+401494330+401841582+402444509+403348061+404182603+404526809+404465882
2288+404512261+404985657+405694616+406175472+406092910+405516249+404874341
2278+404501009+404317699+404131748+403963826+403833455+403594348+403233978
2268+402996488+403049861+403281352+403484369+403604793+403804484+404301815
2258+405097843+405916253+406481878+406794283+407076661+407518847+408132716
2248+408807823+409374319+409613674+409415413+408976957+408648232+408520907
2238+408316336+407721584+406787756+405954332+405597661+405595547+405530610
2228+405303129+405245373+405600086+406186942+406673393+406992700+407391709
2218+408109838+409073446+409977370+410686889+411421368+412457001+413855583
2208+415607293+417763482+420204319+422518483+424393569+425992651+427744765
2198+429853176+432141695+434344606+436428211+438543772+440731420+442838464
2188+444732326+446429948+447994525+449426306+450706019+451868759+452925591
2178+453766506+454289607+454574627+454776960+454947555+455072828+455103696
2168+454856413+454125229+452984280+451771618+450680405+449492082+447856724
2158+445783812+443650967+441723937+439890629+437892477+435668149+433404933
2148+431200997+428857457+426444225+424869731+425135851+427158810+430000302
2138+432991936+436009619+439047010+442078712+445016413+447645190+449924725
2128+452195805+454816842+457814102+460960882+464007567+466904080+469857261
2118+473061424+476459496+479813489+482848766+485409560+487659253+490028873
2108+492889856+496352834+500345720+504863696+510210370+516819444+524606022
2098+532639603+539710104+545178228+549137418+551971325+554094689+555798963
2088+556789211+556180191+553487596+549195360+544059412+538582894+533242654
2078+528419733+524086527+520043501+516303461+513007349+510227902+507962386
2068+506124136+504464158+502554536+500037044+497004316+493876809+490867146
2058+487969172+485364300+483302360+481702222+480256421+478758553+477180205
2048+475642050+474323045+473305784+472618461+472383550+472778301+473939299
2038+475932820+478704775+482159702+486351160+491430875+497514423+504745355
2028+513151553+522234226+531018326+538707608+545161566+550712502+555541018
2018+559287772+561547475+562608846+563106830+563114041+562235202+560391543
2008+557884900+554810517+551013219+546601616+541951031+537148377+531964682
1998+526601128+521968945+518799194+516767998+514900185+512748037+510740590
1988+509334391+508422695+507760737+507434312+507579635+508021075+508513246
1978+509054656+509719101+510449042+511273979+512563671+514747837+517705183
1968+520627622+522732521+524047608+525229652+526778811+528732947+530907414
1958+533082441+535039624+536722325+538407574+540524099+543221605+546267140
1948+549406677+552605462+555837632+558866133+561441350+563612896+565630943
1938+567625552+569575025+571539668+573758960+576398275+579256367+581936465
1928+584366763+586908968+589799016+592735877+595236179+597223203+598986663
1918+600634238+601946466+602891951+603918009+605440808+607238213+608626972
1908+609258436+609478208+609873051+610693761+611749537+612783428+613833982
1898+615031381+616102948+616507490+616250043+616084297+616647622+617756118
1888+618708566+619064740+618920070+618658706+618582609+618655286+618764644
1878+619058523+619504035+619561853+619151343+619337854+620995003+623086970
1868+623289459+620820304+617181291+613907778+611388763+609442833+607890317
1858+606544641+605182864+603723603+602294806+601109467+600286954+599808554
1848+599775106+600419688+601274343+600815153+598273570+594807080+591742210
1838+589475295+587931110+586905922+586243871+586047226+586218256+585899447
1828+584313359+581727635+578745016+575778935+573446803+572306849+572154967
1818+572216267+572039952+571935071+572457674+573576988+574454459+574289521
1808+573239838+572050397+571318093+571495962+572800854+574666149+576014249
1798+576554011+577128713+578673645+581212430+583416118+583649132+582257761
1788+581129371+581365618+582768552+584815260+587248604+589679213+591605124
1778+593184560+595326139+598874694+603717386+608115062+609838733+608725574
1768+606188716+603633705+602544171+603888603+606754031+608928809+609834941
1758+610782043+612244723+613781510+615993155+620093658+625556871+629740184
1748+631063541+630759652+630670189+631679213+633864622+636605275+638745797
1738+640086251+642200910+646371603+650894491+652502649+651439164+649803713
1728+648378895+647495517+647693778+649071285+651491947+655526238+661934129
1718+669639326+675033219+675939599+674159540+672159149+671328679+672443765
1708+675699809+680265096+684547509+688104457+692462345+698634423+704397670
1698+706917617+706689515+705019310+703081587+702879596+705716861+710821227
1688+716321369+721671681+727211674+731144192+731308260+729512596+728689959
1678+730383663+734879134+740912759+746275505+750178306+753134751+754606757
1668+753751978+752263683+752878423+756222314+760068726+761615771+760959937
1658+760649956+763375501+771067953+782479929+789127921+786897687+783170827
1648+782254562+782760814+781557882+778420956+775542224+774410414+775310577
1638+777720049+780295079+780758496+778035127+773972176+770692818+768844309
1628+767874266+767199843+767087439+767546878+767426703+766299991+765672382
1618+766790887+768290310+767257662+763640968+759872393+757556923+756774696
1608+756776188+756954120+757310355+758127273+759408789+760757324+761814841
1598+762603533+763359772+764261303+765197525+765703156+765524541+765304645
1588+766041860+767870288+770067385+771994353+773421782+774599287+776493305
1578+779768497+782554969+781410725+777492008+775375421+776527996+778227669
1568+777018581+773256907+769659237+768135382+769742732+774903735+781023963
1558+781116784+774710075+768687391+766058459+766091099+767037703+767814210
1548+768523075+769616837+771268888+774059276+779220031+785858697+788446348
1538+784860802+780950167+780691663+783026406+784533165+784287654+784985080
1528+788689247+794635586+800775708+806547535+812352684+817233983+820003420
1518+821232589+821788453+822130265+823222659+826077767+830967521+838061833
1508+847740440+857659521+861884985+860457121+859042871+860789607+865261329
1498+870151332+873562428+875149760+875929561+877882703+882779607+889646935
1488+894433176+895322584+895332531+897823197+902799119+907629812+910882001
1478+914317095+919999955+927443789+934779695+940758113+944636232+946415546
1468+946875295+946133479+943278620+938631206+935071895+935167700+938809075
1458+942787040+942658658+938884860+935652752+934157992+933323356+932366556
1448+931587500+931571149+931845382+931174130+929390900+928207302+929685898
1438+934061069+938999689+941945565+943404888+944657246+945055882+944367408
1428+944899524+947921434+950206192+947887116+942805069+940293514+941508881
1418+941856973+938752749+935726921+936009609+938808702+941246212+941905465
1408+942027941+943205757+945028340+945792413+945225669+944981029+946497300
1398+949555207+952750013+954915466+955824644+955943140+956129900+956866182
1388+957255866+955907828+953673117+953199504+955657344+960373270+966401673
1378+972674653+977591949+979745714+978886396+976619109+976263992+980306801
1368+987113948+991651384+991069035+987712337+985492734+985980771+988694006
1358+992913689+997817618+1002102767+1005124366+1007458176+1009464784+1010609525
1348+1010523668+1009928947+1010037932+1011667228+1014988924+1019722693
1340+1025482085+1031265164+1035193890+1036359334+1036174564+1036551875
1331+1037938148+1040122252+1042962750+1045237249+1044998640+1042457927
1322+1040691297+1042412543+1047160922+1051909612+1054099995+1053510994
1314+1052040418+1052073617+1054721449+1059874619+1066363206+1071702265
1305+1073741823+1073079585+1071863535+1070731414+1069184742+1067685941
1297+1067008285+1066152200+1062776727+1055600039+1045877106+1036607766
1288+1030404354+1027915678+1027497894+1026466613+1023276657+1018473568
1280+1013421984+1008660238+1004121560+1000270919+998241371+998675941+1000352114
1270+1000397871+996627057+989822707+982876174+977450201+972509778+966376618
1260+959272732+953102208+949105902+946418468+943232552+938985576+934530019
1250+930355285+925604917+919369176+911980985+903919738+894588726+883453470
1240+871830613+862129066+855428105+850709443+846390288+842098612+838541477
1230+835993428+833814049+831602466+829957379+829491039+829660080+829267599
1220+827949590+826712090+826997079+829343074+832826972+835853856+837780637
1210+839550190+842426933+846442635+850485071+853805399+856790380+859938869
1200+862783408+864574907+865807432+868068317+872141091+877090840+881505800
1190+885095822+888783452+893274944+897968240+901932776+905381299+908935823
1180+912078219+914254490+916889141+921969261+929485958+938295362+948218732
1170+959277270+969688926+976526040+978588041+977783931+977200090+978179707
1160+980055011+982291214+985172371+988214114+990225446+991505159+993708660
1150+996952270+999289997+999399106+997438753+993875401+989512851+986303808
1140+986281551+989420590+993183446+994827477+994119171+993050464+993617705
1130+996815123+1002874548+1010400136+1015931425+1017421957+1017204175
1121+1018381183+1020689441+1022571708+1023942003+1025210152+1026357442
1113+1027418067+1029658684+1034730846+1041630379+1045943131+1044303203
1104+1039806614+1037938956+1038984909+1039476987+1037407898+1033779268
1095+1031492210+1031717888+1031812449+1028733590+1024314154+1023200871
1087+1025340958+1025150655+1019857789+1013725002+1010764827+1009107056
1078+1005292164+1000227711+996845648+994680444+990737356+984267731+978508526
1068+976643915+977489182+977376902+974612812+970299189+966608327+965586558
1058+967334227+968570110+965914693+961139767+959098966+960633204+961767749
1048+960530063+959770840+961256585+962527470+962052116+962363651+965059230
1038+967508552+967356857+966608265+967849059+969756692+969249942+966266142
1028+964297644+966391352+971536067+975307440+975016670+973425049+974540259
1018+977973923+979934836+978756088+976626818+975537532+974999635+973183579
1008+968450308+959926390+948292466+936178340+926087109+918632209+912801197
998+907579764+903106800+899904222+897565252+894723884+890363572+884670205
988+878824458+874245866+871417740+869902526+869199070+868638294+867122955
978+864367134+861480133+859050891+856194665+852462521+848769606+845971322
968+843794306+841134040+836975594+831433239+826044071+822452991+821046264
958+821292334+822835898+825661226+829366574+833050909+836427377+840291197
948+845170818+850388769+855392481+860699336+866185552+870117325+871805061
938+873733769+878792192+886788408+895448354+903689522+912207036+921515667
928+930447546+936967778+940520374+941849201+940584347+935230678+926913041
918+919801943+916658925+916984573+919333366+923085218+927042729+928456418
908+925703394+920761106+916940432+915661838+916240457+917436613+919197275
898+922114802+925081194+926260005+926712729+929484590+934270583+936915741
888+935598850+934090475+936029193+940160470+943449091+944969092+945437359
878+945488090+946028847+948067969+951437909+955290290+959338756+963079791
868+964706725+962947057+959279073+956050384+954173961+953897863+955401637
858+957205819+957145078+955911309+956496705+960557605+967481570+975487610
848+982229665+986314439+988919435+991457226+992214833+988433886+981165807
838+974928885+972971765+975700978+982217169+990826571+998584737+1002244080
828+1000967226+997822716+997090599+999888883+1003651490+1005867550+1006524503
818+1006376165+1005451879+1005163782+1008380224+1014646739+1018825141
810+1018237321+1017486366+1020560251+1024597464+1026578955+1027850337
801+1029615600+1030329874+1028079186+1023281817+1017632777+1012005061
793+1006531031+1000694672+993665017+986119597+980512709+978585990+978779091
783+977044167+971641446+965676643+962983116+963845666+965395260+964343028
773+960042773+955196351+952666767+952558591+953442465+955148293+958424107
763+963139412+968487734+974864228+982561157+989324226+992801285+994380970
753+996378625+997105147+992877257+984232481+976936985+976260884+983059017
743+993556281+1001334031+1002356110+998724434+994903635+992051885+989008836
733+986660416+986938380+988487228+988443398+987882249+989450370+993064576
723+997110058+1000415403+1002301152+1003619783+1006917481+1012025515+1014996322
713+1014373438+1011901486+1008428530+1005022531+1004157494+1006461835
704+1009128194+1009690338+1010603433+1014618700+1016629286+1006915927+984999227
694+962569310+950722329+952113078+961935485+972043439+976818489+977327228
684+977535685+977199468+972180648+962869717+956107394+956094090+959069746
674+958876272+953339076+942419489+926690907+913011519+913010898+926551894
664+944027648+958550002+964929916+960637742+950081292+940865854+937137254
654+936418814+934881841+933188260+933086674+934354015+936324129+938595582
644+941158614+944829023+948000080+945787502+937848606+931482432+932597145
634+939686670+947141135+950054807+945345906+934345498+924632698+923135140
624+929034105+935537737+938254951+938237730+936776169+931989680+919980621
614+900407739+880731531+869405413+870336537+881502070+896321163+909871920
604+922278558+935322877+943675515+940905705
##END=
