##TITLE=<SNM>
##JCAMP-DX=4.24
##DATA TYPE=INFRARED SPECTRUM
##DATE=29/4/2025
##SAMPLING PROCEDURE=Instrument type and / or accessory
##ORIGIN=Admin
##XUNITS=1/CM
##YUNITS=ABSORBANCE
##RESOLUTION=4
##FIRSTX=4497.3318
##LASTX=599.83466
##DELTAX=-1.4281778
##MAXY=2.0791643
##MINY=0.46283516
##XFACTOR=1
##YFACTOR=1.9363726e-09
##NPOINTS=2730
##FIRSTY=0.46917912
##XYDATA=(X++(Y..Y))
4497+242297954+242201700+242214797+242426205+242608725+242263648+241465512
4487+241096425+241952677+243802758+245562804+246476171+246673635+246390198
4477+245545613+244509627+244167105+244726868+245461379+245838038+246011815
4467+246243801+246517465+246559035+245954592+244521509+242687464+241362239
4457+241399485+242909754+244852103+245881117+245940848+246176251+247173436
4447+248323098+248940992+248878182+247992334+246420903+245294727+245790449
4437+247519221+248778388+248429140+246917287+245471029+244840483+244877206
4427+245028928+244977061+244766315+244566373+244464086+244423700+244451173
4417+244734487+245372558+246118658+246785834+247566732+248489257+249054515
4407+248896744+248291377+247648119+247027577+246418856+245935585+245472245
4397+244646744+243417342+242429114+242327212+243026093+244108466+245598772
4387+247694168+249908920+251068293+250251334+247719378+244854227+242966623
4377+242338078+242547670+243170689+243845683+244392919+245066020+245982619
4367+246565915+246361602+245798345+245350873+244794526+243875234+242785704
4357+241637042+240344153+239224150+239021745+240092345+241915539+243564724
4347+244426009+244412326+243800819+243078206+242751459+243030956+243644541
4337+243976428+243447185+242008099+240462847+239963570+240909673+242560829
4327+243735562+243755339+242774207+241498971+240748408+240913151+241568184
4317+241978764+242098920+242440765+243003668+243305097+243456019+244063679
4307+245038255+245599096+245535008+245499671+245896646+246277430+246092848
4297+245442556+244789401+244293848+243794417+243298310+243076251+243250444
4287+243573451+243703334+243629904+243783104+244545888+245572977+245999164
4277+245573639+245027866+245017139+245366510+245651132+245848011+246029823
4267+246004966+245756851+245778214+246398509+247099637+247081630+246296345
4257+245400354+244895967+244768100+244760574+244729515+244944848+245943911
4247+247572304+248493412+247581323+245535424+244148159+244389517+245959625
4237+248049834+249771495+250339754+249580572+248096699+246686117+245866280
4227+245976647+247163647+248894250+249937100+249428650+247747451+245896323
4217+244511335+243906108+244338882+245644206+247031009+247688212+247413979
4207+246583861+245750218+245235134+244951559+244693701+244660011+245372605
4197+246792160+247934957+247947655+247213544+246711697+246663323+246585384
4187+246346765+246344534+246729057+247066254+246896017+246389167+246245894
4177+246957488+248372610+249922417+251041298+251513872+251613466+251721509
4167+251758370+251291490+250239868+249165652+248773202+249237634+250047683
4157+250502604+250400132+250177104+250287887+250566630+250464712+249922894
4147+249555578+249745900+250057856+249919585+249476838+249392374+250010822
4137+250945321+251455018+251246041+250834538+250869921+251215060+251061783
4127+249981934+248522132+247567656+247397726+247586817+247649366+247537290
4117+247543739+247954057+248796965+249700313+249991661+249284007+248046063
4107+247293222+247625017+248752563+249935392+250638320+250740992+250368535
4097+249743438+249266569+249424386+250230295+250965636+250888559+250059472
4087+249246330+249275511+250372537+251771622+252299542+251692144+250835199
4077+250528445+250636827+250497264+249725554+248647459+248071412+248446717
4067+249243852+249531353+249144474+248823222+249172408+249982626+250696929
4057+251098721+251218769+250948737+250193588+249186814+248316157+247772369
4047+247604609+247944515+248865239+250088469+251117097+251554535+251193713
4037+250220152+249367317+249358575+250189971+251283395+252169813+252703504
4027+252909048+252919314+252864676+252828616+252977937+253392227+253802807
4017+253917530+253856613+253927780+254136233+254180051+253856706+253369818
4007+253077854+252914004+252538053+252223003+252790708+254354475+255939250
3997+256677916+256709945+256629651+256611536+256390401+255807797+255159060
3987+255068885+255886383+257076199+257543526+256809169+255486745+254484697
3977+254281353+254923796+255984053+256557653+256110781+255242740+254911776
3967+255269689+255913224+256819835+258209793+259695390+260399273+260020906
3957+259163730+258464711+257994030+257740312+258068721+259189433+260586240
3947+261562202+262067451+262363293+262298682+261613669+260554782+259628840
3937+259119928+259180137+259934101+261102417+261871988+261687083+261018753
3927+260810084+261406139+262325185+262949590+263340701+264152843+265712023
3917+267238636+267347880+265630883+263133602+261155915+260283904+260724050
3907+262886949+266905487+271652810+275027458+275789303+274158802+270850734
3897+267088761+264656214+264796024+267229710+269906755+270485356+269325660
3887+269016705+270736473+272765842+273264473+272718777+271758360+269840051
3878+267336614+265917275+266440100+268403381+271184437+274188783+276164469
3868+276689234+277018689+277787798+277735839+275785886+272934833+271051276
3858+271543966+275546405+283393897+290875949+290760703+284307218+277336848
3848+272800286+271292080+272323726+274837074+277781611+280622045+282831086
3838+283423539+282288468+280884981+280296437+280115379+279543796+278819997
3828+278763698+279479555+280786295+283255841+286803482+288840947+287711816
3818+285650126+284213211+282118615+278949803+276589040+276639090+279212955
3808+282897913+285520136+286874218+288855106+291666482+292711210+291117892
3798+289281462+288488590+287875082+286977644+286661025+287646559+289751190
3788+292600673+296052614+299671822+302863535+305867296+309329025+312895874
3778+315782633+318648493+323000364+329354671+337007469+344463019+350190274
3768+354208719+357809797+361487890+364960208+368527949+372746013+377238403
3758+381050550+384112088+387437270+392236675+399050367+406840020+413788381
3748+419937867+425971153+430439502+431005052+429242806+429194909+433217818
3738+441738349+452701616+461509155+465114634+465178506+464474900+463505311
3728+462035458+461242001+462618647+465483182+467280858+466420913+463956138
3718+462064701+462006339+464018932+467536438+470613520+471100947+469359878
3708+467022601+464942750+464016439+465098258+467203843+467934906+466839573
3698+465883835+466772346+469882304+475111205+482356362+490451984+495983037
3688+495818694+491370445+486275998+483045315+483099676+486410945+491384666
3678+496417396+500164532+500814547+498780068+497238157+497965649+498936993
3668+497381291+493785046+490145184+487385644+485584028+484986742+486092078
3658+488900930+492248798+494711141+496423522+498740545+502280921+505456905
3648+505506002+501989173+497232616+493572007+491702517+490929376+490517056
3638+490628732+491656591+493229284+494885088+497309601+501387916+505463523
3628+505787253+502316412+498903410+498570692+501869156+507004850+510993345
3618+512595589+513574536+515661713+518373202+520464012+521986593+523243775
3608+523119417+521177468+519490697+520148746+522891079+525510224+526174491
3598+525207333+524138473+523911304+524601736+526180770+528721422+531792686
3588+534524369+536642943+538346335+539303458+539067856+537928321+536471305
3578+534933825+533818362+534142431+536090290+538297577+539341689+539265474
3568+538957411+538824866+538813538+538962706+539230752+539701587+540968496
3558+543337140+546029545+548034535+549374889+550908059+553058031+555079520
3548+555768227+554882518+553640788+553575100+554913546+556309491+555989424
3538+553238473+549099209+545563635+544103048+544676940+545918670+546490407
3528+546294636+545938924+545485388+544467564+542952863+541966682+542572525
3518+544290385+545162797+544279919+543038128+542918203+543584009+544060877
3508+544289400+544837990+546075779+547891093+549793211+551479550+552914219
3498+553511875+552441229+550329304+549558471+551691266+555158936+556785805
3488+555676252+553712324+552264912+550900795+549346139+548428971+548613229
3478+549212855+549416999+549221105+549050698+548850987+548262812+547834640
3468+548692892+550373814+550735313+548690738+545090276+541209024+538145577
3458+536744769+536967812+537857708+538362342+537853275+536463302+535252784
3448+535113898+535578084+535634846+535164133+534525662+533636196+532253425
3438+530372670+528155717+526181201+525452539+526267390+527287184+526752384
3428+524781623+523169160+523102857+524464758+526498067+527786769+526767160
3418+523430927+519436091+516432423+515306770+516352791+518826554+520910160
3408+521501906+521536935+522367176+523737573+524494554+524413968+524076048
3398+523605274+522699679+521617090+521048985+520876239+519954638+517541668
3388+514463077+512488530+512692058+514603565+516863242+518416727+518941862
3378+518507841+517497651+516811529+517232067+518376465+518858443+517930194
3368+516642476+516583191+517922190+519389919+519898123+519445079+518491342
3358+517428884+516961743+518153791+521217299+524555933+525990294+525008545
3348+522900683+520877655+519195502+517909139+517349037+517663256+518594584
3338+519742060+520685824+521320048+522077152+523208930+524064104+523855343
3328+522860359+522005000+521775369+522196215+523246853+524745055+526280502
3318+527503948+528174679+528016277+527066726+525999282+525572279+525836201
3308+526085347+525704148+525053548+525122314+526249721+527596662+528157010
3298+527969181+527850364+528286662+529034101+529574503+529776553+530095512
3288+531145349+533139074+535539854+537168200+536946203+535055413+533245393
3278+533327888+535418882+537953808+539281726+539072904+538219576+537535240
3268+536890365+536054214+535854811+537230502+539361266+540117385+538624478
3258+536298128+535030418+535265035+536070097+536492113+536429996+536483063
3248+537387180+539254084+541109476+541736313+541048775+539791223+538220808
3238+536303607+534674213+534132026+534462375+534674275+534396625+534150249
3228+534279778+534480843+534450370+534176352+533332013+531496629+529293775
3218+528038809+528082642+528561788+528527559+527707045+526582839+525975272
3208+526253723+527096892+528047305+528761992+528852859+528092431+526595460
3198+524524474+522144441+520267810+519851704+520798484+521709189+521236507
3188+519387764+517321087+515987321+515213009+514512697+514240742+514832795
3178+515445134+514766215+512934709+511239474+510278965+509636492+508974195
3168+508497665+508546454+509174306+509866492+509751061+508504283+506760105
3158+505266336+504053449+502663013+500920682+499219814+497990797+497179394
3148+496505955+495834793+495097881+494381070+494070422+494433830+495047030
3138+495136789+494489883+493492590+492524201+491771652+491249135+490762878
3128+490071185+489090821+487994104+487232044+487226934+487915272+488819143
3118+489415352+489224414+488066779+486521851+485537055+485361138+485316844
3108+484710077+483584640+482553672+482190141+482507099+482877217+482645062
3098+481828334+481003541+480626928+480711024+481031706+481370366+481535416
3088+481412044+481156526+481122912+481354051+481365010+480748639+479788776
3078+478974880+478200477+477116933+475818843+474519736+473189909+472083403
3068+471812217+472376906+472886280+472688293+472135578+471898314+472069367
3058+472173501+471820067+471202372+470819203+470776078+470764443+470658492
3048+470556205+470324974+469711774+468855830+468183467+467859583+467709492
3038+467529789+467263836+466990588+466751015+466349438+465495249+464333520
3028+463558286+463635917+464114171+463970759+462639794+460610547+458911342
3018+458004423+457489201+456961666+456560274+456444997+456538142+457038343
3008+458222511+459460578+459501517+458055429+456134133+454701958+453844229
2998+453288067+453015927+453034765+452939619+452311921+451514370+451419870
2988+452097558+452395678+451300099+449185064+447236128+446234648+446279189
2978+447044881+447899102+448198330+447779977+446940255+445960446+444968663
2968+444189796+443933724+444128294+444124539+443463504+442707816+442775135
2958+443546830+443954871+443382241+442209523+441111113+440432163+440074142
2948+439738407+439437394+439505606+439847805+439767096+438952184+437988874
2938+437449518+437108797+436545617+436008478+435949593+436032057+435502736
2928+434360154+433225483+432256786+431056581+429518516+428138300+427497366
2918+427683564+428256594+428788777+429204421+429390896+428984179+427972203
2908+426986545+426543136+426428229+426156704+425706523+425425087+425348533
2898+425078517+424422192+423710706+423265943+422908322+422238576+421241652
2888+420403069+420167744+420385431+420503787+420296965+420074876+420153800
2878+420455552+420661973+420549590+420125789+419514989+418818063+418147517
2868+417633710+417272827+416953098+416650331+416351595+415896243+415195808
2858+414481521+414104354+414199992+414612312+415041377+415244935+415114083
2848+414630165+413916802+413251519+412787794+412417122+412080741+411930834
2838+412024965+412127190+411898267+411203373+410336317+409785142+409469569
2828+408613840+406887300+405120714+404309988+404477717+405002204+405505699
2818+405891946+405899426+405206656+403970374+402860636+402360435+402238386
2808+401932479+401282587+400621644+400269626+400207816+400214496+400113902
2798+399839792+399397860+398873865+398368308+397840404+397172166+396420202
2788+395780161+395301445+394884231+394533660+394390433+394502601+394669407
2778+394553452+393991780+393161878+392356293+391727609+391305932+391015046
2768+390671493+390217556+389832848+389581485+389220356+388586963+387849035
2758+387223953+386798890+386657788+386815143+387018825+386928666+386465926
2748+385813941+385221272+384861650+384635067+384156660+383280861+382497808
2738+382376006+382772349+383021096+382775027+382281845+381930196+381827108
2728+381780259+381533144+381000992+380305758+379644724+379155789+378841078
2718+378613786+378432175+378259952+377881123+377019238+375802872+374870375
2708+374753989+375271643+375744664+375779817+375581152+375414378+375149010
2698+374604237+373980940+373589675+373442201+373401877+373440015+373498254
2688+373403477+373131368+372836573+372521092+372031665+371417818+370924697
2678+370620298+370337630+369952552+369476730+368938914+368369763+367836040
2668+367378626+367021252+366910007+367257900+368005432+368701527+368932974
2658+368761735+368511389+368223827+367642055+366734398+365902987+365515477
2648+365432182+365200489+364658518+364103956+363828553+363775578+363793001
2638+363913264+364131691+364167520+363782012+363219262+363005546+363301265
2628+363690744+363704842+363358857+363009055+362865366+362857886+362812053
2618+362594150+362235852+361934900+361753320+361438208+360774495+359932095
2608+359275709+359035705+359206512+359547510+359738818+359684273+359538953
2598+359437374+359428047+359582786+359873734+360023271+359745005+359132020
2588+358637483+358599129+358845013+358890446+358523437+358020374+357759961
2578+357836023+358099298+358378671+358553665+358546216+358383258+358186317
2568+358011201+357832821+357727671+357778492+357765994+357383810+356789048
2558+356436968+356375959+356244214+355959607+355879206+356189269+356566528
2548+356626829+356420839+356235841+356138910+356043795+356030990+356217895
2538+356459562+356531775+356467288+356416960+356358567+356229716+356165382
2528+356308978+356519063+356569760+356558340+356788340+357286325+357718960
2518+357770612+357439186+357002826+356759805+356771287+356878253+356958285
2508+357040749+357176742+357326679+357383748+357278506+357081843+356940709
2498+356900939+356925749+357039610+357259514+357461780+357516079+357479910
2488+357524082+357712096+357920826+358004028+358018280+358170803+358506107
2478+358830422+358996150+358999136+358773322+358240647+357616550+357304116
2468+357408035+357630648+357705878+357726502+357976048+358547478+359182102
2458+359524516+359549819+359572659+359766121+359923631+359835503+359631113
2448+359552558+359599900+359597407+359493612+359415119+359432387+359406654
2438+359171944+358825774+358692059+358945730+359384768+359663218+359679132
2428+359632714+359758241+360103334+360531475+360852496+360964295+360919846
2418+360882416+361017239+361406503+362005482+362661284+363202794+363519783
2408+363573559+363395610+363108295+362916648+363025123+363503377+364206151
2398+364832403+365099987+364974306+364759297+364819074+365189162+365628846
2388+365968582+366121044+365877592+365033838+363637554+361868012+359733770
2378+357083382+353960281+350773277+347852011+344942811+341635636+338208475
2368+335379123+333369607+331900956+330882085+330578055+331339376+333388323
2358+336633719+340692950+345227633+350103131+355028556+359199678+361652848
2348+361946813+360521994+358574165+357262654+356873574+357045920+357433645
2338+357923104+358583708+359481730+360550436+361630993+362453447+362741778
2328+362643493+362774438+363587256+364969627+366551247+368142410+369772141
2318+371465683+373141895+374721946+376187150+377438514+378289933+378765540
2308+379163853+379648171+380055196+380267712+380459235+380814086+381277903
2298+381676124+381893165+381974552+382150099+382582427+383064436+383241954
2288+383131417+383107315+383407097+383924258+384438311+384811046+384955011
2278+384804705+384437696+384119229+384053326+384174451+384362034+384662063
2268+385023069+385087464+384634513+383995887+383671542+383759238+384011524
2258+384191350+384170388+383907698+383478141+383019279+382667507+382595078
2248+382940602+383626847+384414979+385138962+385708945+386013529+386077893
2238+386157156+386424032+386738928+386895606+386872027+386716119+386429973
2228+386065149+385693154+385234816+384583323+383925705+383622691+383679483
2218+383664092+383279015+382682375+382124335+381639648+381246783+381100539
2208+381262574+381543825+381695578+381650453+381548966+381610467+381991390
2198+382713403+383638143+384453548+384820834+384718208+384526162+384611612
2188+384967354+385377365+385752254+386150261+386590899+387016639+387435885
2178+387960219+388606940+389173414+389459929+389543101+389673368+389964162
2168+390319628+390635940+390948096+391304270+391570838+391547629+391300237
2158+391153809+391295035+391596295+391880040+392134911+392406620+392661584
2148+392838856+392936156+393004522+393129188+393396434+393776833+394110690
2138+394348570+394651707+395064458+395352204+395410166+395493676+395781669
2128+396091209+396272481+396519535+397074896+397884114+398676155+399242783
2118+399553153+399671232+399683637+399737843+400016786+400585107+401365974
2108+402279295+403245160+404097164+404706855+405153619+405603369+406094058
2098+406551258+406911156+407159810+407340559+407535068+407757527+407907710
2088+407938553+408001686+408274966+408711972+409114410+409396185+409625170
2078+409872284+410177207+410589834+411098500+411592699+411997323+412338567
2068+412619019+412773912+412815005+412915230+413312590+414110449+415085764
2058+415777949+415976060+415999115+416283722+416898369+417644084+418356216
2048+418960797+419536475+420370010+421615403+422965483+424019199+424809424
2038+425588722+426359555+427001474+427592758+428295440+429151538+430156250
2028+431306866+432536498+433793619+435134804+436616107+438206653+439826781
2018+441319535+442505919+443448575+444450454+445663434+446979070+448368429
2008+450012874+452007337+454180518+456284040+458201056+459921286+461461782
1998+462944993+464659036+466778072+468962395+470533888+471271046+471725660
1988+472494676+473608478+474870985+476329540+478080244+479961369+481737990
1978+483363997+484920069+486486421+488143733+490015747+492282627+495013786
1968+497873366+500252445+501945586+503413530+505176577+507303955+509626950
1958+512105607+514756087+517413863+519840684+522028702+524192279+526502376
1948+529078180+532157448+535878143+539806491+543093042+545395567+547218577
1938+549092191+551036973+552971473+555066161+557497845+560164886+562781815
1928+565265520+568011670+571390381+574856574+577391685+579087443+580998365
1918+583329517+585270420+586687543+588375052+590635037+592914722+594704795
1908+596014675+596990082+597681745+598339486+599482468+601355837+603541392
1898+605421532+606796730+607792515+608618447+609660773+611211058+612890563
1888+613898599+614008982+613844608+614171817+615225779+616526917+617320097
1878+617407578+617349770+617746792+618798845+620605663+623129200+625533058
1868+626339906+625031442+622616871+620259247+618451075+617269431+616616553
1858+616243295+615884320+615380056+614680944+613945695+613535561+613659488
1848+614176311+614720960+614521619+612517306+608914258+605599080+603977813
1838+603663656+603169365+601732049+600353588+600528550+602139413+603158284
1828+602143907+599913719+597687470+595583917+593348373+591127789+589210464
1818+587655070+586311515+585154742+584511099+584623083+585019303+584859485
1808+584053438+583406902+583668853+584858500+586272422+587014136+586834987
1798+586412294+586664395+588139819+590704480+593012669+593274128+591784422
1788+590631589+590986316+592346370+593788181+595083162+596351303+597560404
1778+598859264+600818575+604080008+608583479+612654900+614121704+613263883
1768+612012549+611449431+611974996+613806808+616152736+617508480+617931912
1758+618803462+620313977+621725005+623382964+626300382+630098154+632809151
1748+633370300+632838702+632642869+633305227+634708868+636523382+638235393
1738+639849580+642525548+647144326+651815188+653071262+651048418+648151747
1728+645881542+645116004+646090118+648089445+650618153+654513872+660651230
1718+667409269+670722354+669377506+666520789+664700981+664500900+665867849
1708+668634807+672173706+675522190+678741206+683214511+689254785+693936789
1698+694645320+692555988+689110911+685333948+683079011+683407635+685593929
1688+688632381+693062468+699359337+704331119+704317267+701637791+700034131
1678+700756021+703238803+705762710+706998037+707853519+709836839+712185967
1668+712635871+711567811+711688229+714044683+716831957+718003936+718059958
1658+718649734+721085666+726764810+735279492+740334816+738693849+736397788
1648+736610981+737187397+735397509+732232422+729856883+729214717+731009715
1638+735524699+740768529+742157702+738298983+733676756+731979520+733463871
1628+736177084+738133254+739202730+739938287+739991724+739335214+739146277
1618+740197161+741522986+741463392+740304773+739786473+740876880+743003457
1608+744738247+745485501+746067027+747654619+750675832+754430018+757682340
1598+760063358+762482238+765758200+769606762+773216397+775972335+777647593
1588+778759362+780445147+783420066+787382027+791502329+795379332+799710550
1578+805590389+812105499+815633686+815435391+815063488+816130501+816226170
1568+812979019+808293752+805230798+804636160+806266107+810451358+816362840
1558+818450941+813280617+805136422+798305062+795059573+795526592+797277695
1548+797795873+797356188+798050621+801085748+806001262+810628967+811155764
1538+807165607+803266932+802662505+804980482+807213072+807415861+807339646
1528+809558199+814694108+821481697+828356767+833822102+836450789+836975738
1518+837753712+839234184+840460769+841962357+845577779+852058968+860257154
1508+867760784+871240705+869674045+866904255+866171284+868286534+873042414
1498+878915728+882968741+884053977+885109786+889395384+896782907+903460359
1488+905747678+904681896+903718863+904700611+907560714+911867429+917959107
1478+926297350+935890805+944505958+950746435+954783811+957357337+959563085
1468+962857763+967990471+973765099+977646105+979143075+980125870+981136122
1458+980048054+975541998+970956463+969544018+970711072+972641263+973696210
1448+972489140+968823113+964556845+962316007+963004776+964782782+965156348
1438+963704380+961622867+959892387+959075381+959655553+961278359+962446767
1428+962114510+961297813+962302709+966483158+972441306+976782250+977031827
1418+973783691+969738558+966994625+965860816+965493222+965132646+965095647
1408+966260730+968496459+970323655+970351235+968426523+965248508+962271804
1398+961206145+961840492+962385327+962793060+964649560+967368929+968199232
1388+966459087+965102357+966671972+970055547+972867446+974797145+977319697
1378+981204888+985526071+988964498+991373589+993469385+995381785+996450337
1368+996329365+995914860+996540281+998546749+1001811014+1006132689+1010095019
1358+1012257180+1013588485+1016095092+1019903760+1023673644+1026847720
1350+1029781329+1032392840+1033639064+1032550626+1030253704+1029690585
1341+1032092719+1035551340+1038479409+1041440845+1043931445+1043468983
1332+1039196250+1033934321+1031004713+1031275406+1034217265+1039197605
1324+1044885306+1049455388+1052265132+1054874550+1059108005+1064547852
1315+1068960456+1070277785+1068768009+1067387762+1068038485+1069382287
1307+1068954792+1066340080+1063732755+1063609136+1066712045+1071301088
1298+1073741823+1071460414+1065839694+1060267363+1056538357+1054701188
1290+1054647012+1055988967+1057055242+1056247532+1054016975+1051576240
1281+1048602861+1043997441+1038480271+1034337314+1032173121+1029907780
1273+1025771718+1020863838+1017885719+1018060497+1019350369+1018044429
1264+1013230925+1007820259+1004155340+1001430861+998358180+995801953+994975406
1254+994976022+993978390+991606914+988444905+984253129+978412443+971081867
1244+962803895+954011870+945169240+936631718+928678799+921866031+916564639
1234+912228189+908059068+904248245+901510714+899801412+898312013+896041501
1224+892301044+887383869+882257809+877330106+872583399+868812653+867301584
1214+868412923+871329849+874687690+876960850+877232467+876227571+875809926
1204+877373877+880886242+885287580+889524729+893122913+896170291+898978558
1194+901802031+904834511+908081477+911183647+913653439+915678807+918373797
1184+922346409+926729031+930626966+934231369+937408522+939294572+940336160
1174+942754978+948104635+955479229+962944197+969971021+977472558+985645996
1164+992607932+996563490+997932471+997807744+996710257+995515561+995928589
1154+999027496+1003486887+1006644772+1008152085+1010358325+1013694866
1145+1015517383+1016159548+1018934140+1022852084+1022843526+1018202215
1137+1014001820+1013483150+1015250691+1017685454+1021809757+1028088280
1128+1033176478+1033444647+1030605599+1029157263+1030484627+1033009026
1120+1034806179+1034817014+1033913513+1034344209+1036387861+1036862143
1111+1032783335+1025489943+1019188642+1016162996+1015185803+1015226866
1103+1018515818+1026567484+1034660028+1036090141+1031671873+1027602546
1094+1027448146+1031559582+1039377985+1047787272+1049958975+1042112376
1085+1030488937+1025785077+1031015918+1038557348+1040046931+1035824680
1077+1031222400+1029365162+1030310773+1032328814+1032847423+1030385264
1068+1026393014+1023644156+1022092825+1018929584+1013751627+1010168772
1060+1010513957+1012256072+1012077046+1011708098+1015280980+1022065429
1051+1026261330+1024250307+1018442312+1012786993+1008670693+1005663516
1043+1003338397+1002279387+1002832471+1003371949+1002794917+1002792824
1034+1004777929+1006727943+1005821425+1003194031+1002688597+1005583360
1025+1009633665+1011892665+1011095668+1008284815+1004895576+1000485681
1017+994109089+987680352+984940543+987030060+991381777+994833195+995614924
1007+992637297+986879661+982420885+982114300+983592802+981224342+972554644
997+960712039+949826188+941900604+936840355+932986930+928724110+924221500
987+920519336+917666805+914939925+912162563+909650538+907815462+907270813
977+907805674+907308428+903632182+897576333+892135501+889194504+888512691
967+888808933+888410496+886078729+882007185+877469547+873484869+870688114
957+869700579+870147897+870306730+869203949+868591333+871025727+876283470
947+881547985+884648924+885922543+887577115+891987749+899602439+908305813
937+916033841+922805485+928507838+931621520+932491039+934148997+938290723
927+943949427+950035934+955708306+959041029+958809490+956520386+954265326
917+952610384+951810616+952222413+953111200+953209024+952629407+952758074
907+953708302+954166332+954086485+954708458+955667366+954956496+952172054
897+949074625+947384530+948126921+951407439+955774240+958843596+958932986
887+956074176+952170946+950620046+953955909+961540864+970651602+979063843
877+985173006+987085097+984040305+978143412+973002023+970640090+971013840
867+973255479+975917595+977204820+976084369+973543841+971948800+973006887
857+977075044+982741383+986571845+985756871+981169490+975930585+972128749
847+970149062+969699281+970143521+970842509+972542762+976190874+981209198
837+986000846+988295368+987503358+986025964+986957477+991255573+996885035
827+1000752250+1002168696+1003282682+1005909399+1010177145+1014594550
818+1017246077+1018280893+1019337748+1020822714+1021290841+1020124588
810+1020563964+1025863386+1033616655+1039318515+1041571851+1041027140
801+1037283974+1028982239+1018253313+1010404251+1008906111+1013416723
793+1021168699+1027650996+1028333363+1022344002+1013890144+1007782152
784+1003501970+997791861+991136571+986487195+983906774+980997113+977909287
774+977422076+980301141+983530684+983633618+980371754+975721331+971162207
764+967579106+966099127+967023498+969171376+971309959+972292323+970316637
754+965965904+964098877+968251807+975932062+982138741+984806828+984571410
744+982256757+979669502+979744671+983889783+990533190+996035339+997114973
734+993520668+987450721+980842527+974191116+967707404+962642476+960159940
724+959766551+960365561+962825873+968846877+976780218+981900183+981685081
714+978047743+974794190+974971122+979031831+983736736+985328576+985531735
704+988238545+989689713+982578733+970098087+962342540+961789395+963448831
694+965395398+969160788+971563969+967161215+958139067+951400975+948546597
684+945071539+937833616+930497376+929131165+934645627+940711018+939732964
674+932310781+926365500+926253763+928006098+924376640+915195659+906760269
664+902965021+906101789+915583630+924767074+926157971+919443273+909539417
654+900376227+894007884+892196695+895133752+898519974+898172080+894896179
644+889084183+879816951+870247322+867404887+874340166+885117235+890470709
634+888476615+884290318+881723871+881228903+882105071+882215761+877692652
624+867840324+857519315+850511884+844797527+837743800+832011651+832472759
614+840102779+851032155+860227973+863385980+859216182+851970563+846183007
604+843365198+840914921+833435238+819859384
##END=
