##TITLE=<SNM>
##JCAMP-DX=4.24
##DATA TYPE=INFRARED SPECTRUM
##DATE=29/4/2025
##SAMPLING PROCEDURE=Instrument type and / or accessory
##ORIGIN=Admin
##XUNITS=1/CM
##YUNITS=ABSORBANCE
##RESOLUTION=4
##FIRSTX=4497.3318
##LASTX=599.83466
##DELTAX=-1.4281778
##MAXY=2.1088705
##MINY=0.50688338
##XFACTOR=1
##YFACTOR=1.9640387e-09
##NPOINTS=2730
##FIRSTY=0.52125508
##XYDATA=(X++(Y..Y))
4497+265399594+265464781+265709386+266214589+266235347+265303269+264038971
4487+263229985+262820985+262378966+261851397+261384887+261004384+260610953
4477+259922751+258884151+258269695+258993677+260689706+261983744+262358633
4467+262678107+263744444+265286183+266562741+267155013+266885887+265796151
4457+264557588+264215536+265091470+266230552+266264239+264847078+263129624
4447+262580386+263396383+264343301+264159757+263015880+262312049+262922287
4437+264133506+264613975+263897095+262557655+261575958+261835646+263608546
4427+265998663+267253189+266343174+264079274+262076063+261003807+260547404
4417+260556508+261182254+262240003+263412771+264704928+265987738+266716181
4407+266579402+265770750+264441841+262783475+261689156+262158367+263788600
4397+264757855+263849691+261950756+260969120+261747182+263455046+264778825
4387+265297351+265435222+265454827+265179298+264528424+263692003+262796585
4377+261914217+261409105+261748638+262927688+264222820+264579044+263659348
4367+262476626+262280517+262923318+263122674+262292292+261227836+260893371
4357+261378969+262108201+262559203+262738378+262974910+263358296+263621990
4347+263566089+263289679+262912090+262451468+262020162+261698807+261305011
4337+260657173+259842754+259057317+258429296+258082175+258177802+258848280
4327+260104050+261601724+262577988+262470466+261648369+261038192+260915009
4317+260690707+260151302+260057071+260955099+262154391+262534378+261811277
4307+260517632+259290997+258532570+258324443+258534876+259092885+259990002
4297+260942231+261393931+261126262+260637204+260639662+261190842+261621146
4287+261433778+260871915+260435086+260286350+260306592+260410534+260705851
4277+261495506+262894609+264335593+264949290+264571822+263857217+263376444
4267+263256904+263526454+263940887+263669394+262235967+260579269+260018742
4257+260527526+261064443+261214787+261400911+261979344+263067775+264613307
4247+266029709+266348424+265263301+263679408+262850089+263296842+264639194
4237+265896360+265964522+264495952+262454472+261294450+261550071+262567609
4227+263534436+264315472+265085826+265497011+264797914+262966079+261129509
4217+260418516+260880018+261756772+262382547+262657500+262913364+263428461
4207+264071201+264409521+264142155+263512737+263266251+263884227+264928684
4197+265578525+265661649+265557130+265376863+264960580+264363665+263816490
4187+263413530+263102584+262945806+263224856+264022857+264852966+265218598
4177+265327699+265586628+265735971+265301509+264599408+264433799+264859551
4167+264899003+263833455+262484881+262458508+264058151+265781645+266194165
4157+265387030+264127830+262824384+262013850+262529371+264227250+265599253
4147+265578283+264853178+264638041+265117023+265688537+265886376+265609056
4137+265051897+264680953+264880066+265539225+266221205+266659461+266856358
4127+266781186+266250369+265213560+264057089+263411860+263569882+264216416
4117+264831145+265242846+265648174+266185728+266653300+266657215+266047888
4107+265168645+264609605+264782649+265675123+266814508+267613116+267940389
4097+268068336+268070551+267782063+267336797+267213281+267652356+268246388
4087+268148819+266894081+265093504+263877429+263699924+264206098+265006162
4077+265917148+266661797+267003061+267029038+266883580+266481409+265788625
4067+265114292+264791693+264708448+264521899+264290314+264435620+265060182
4057+265765833+266185668+266326057+266404446+266607444+266951681+267241262
4047+267282262+267236164+267538248+268254521+268654599+267902515+266232252
4037+264762468+264093719+263881647+263845200+264326640+265589663+267212310
4027+268477943+269085237+269275610+269365349+269387442+269264229+269126935
4017+269195248+269379977+269276217+268642338+267740304+267085395+266975869
4007+267388237+268106999+268817294+269258949+269392874+269352238+269363649
3997+269593626+269848853+269656841+268885790+268062904+267729227+267784673
3987+267871195+268018808+268466593+269126814+269638784+269850037+270044476
3977+270660783+271680233+272368101+272016277+270994399+270442854+270779566
3967+271255999+271279427+271296817+271815828+272432803+272540174+272322397
3957+272374990+272868600+273525756+274059395+274485026+275086098+275826074
3947+276038115+275390519+274565387+274210589+274015815+273521356+273045226
3937+273204765+274208889+275749961+277170884+277877356+277783823+277249789
3927+276755117+276593878+276572574+276298076+276038388+276558705+277879480
3917+278979109+278937775+277785189+276220112+275056448+274785350+275452733
3907+277197378+280511471+285351916+290310779+293491280+293853969+291154939
3897+286174165+281199035+278650896+279123535+280728277+280990119+280144685
3887+280516023+283033784+286083272+288084510+289391477+289886302+288220409
3878+285155200+283648361+285202756+288506166+291520268+293264884+293391829
3868+292515986+292146742+292633949+292447126+290335907+287277254+285187582
3858+285293010+288517546+295653453+303695066+305050893+299235185+292131234
3848+287428478+285981242+287131796+289508803+291920315+294311768+297166604
3838+299562427+299603640+297429054+294899093+292932543+291253813+289917590
3828+289533203+290239947+291971088+295294163+299908607+302766963+301778286
3818+299143109+296947977+294596554+291614559+289370628+289385893+292086714
3808+296141570+298922600+299931520+301623087+304922551+306976170+305831383
3798+303247858+300657383+298028457+295870654+295146368+295892049+297465896
3788+299586979+302202400+304861643+307427930+310884264+315925461+321053545
3778+324086827+325613332+328233305+333391858+340426888+347437336+352876821
3768+356917232+360544758+363920700+366955986+370284099+374347271+378410049
3758+381548062+384222116+388237702+395757026+407358004+418895402+424459678
3748+425635511+428327560+434683129+440974937+443670507+445052312+448557779
3738+454962026+462028801+466354787+466635748+464285083+461512035+460161974
3728+461325668+464572752+467734103+468685574+467059376+463722674+460258238
3718+458759198+460367218+464393638+469157364+472859334+474130521+472843492
3708+470096361+467452717+466459821+467851064+470628210+472862460+473949647
3698+474829860+476467468+479324308+483695087+489559140+495615629+499080946
3688+498664632+496540606+494942875+494091947+493624133+494021115+496569619
3678+502116201+508590947+510734911+507823931+505204110+505702151+506497238
3668+504205175+499949354+496200526+493786373+492733419+493554029+496715957
3658+501067253+503840240+504118532+504641549+508014365+513538277+516951638
3648+515139256+510806957+507636532+506297214+505760116+505254882+504871708
3638+504975832+505846972+507835979+511044582+514907215+518317116+519427610
3628+517198550+513807403+512236227+514146755+519400358+525175825+527151783
3618+524852618+522837511+524269694+528138093+532256984+536002534+538765052
3608+538658105+535551381+532531148+532465110+535120075+538309528+541108038
3598+544074252+546755922+547714373+547050359+546929513+549161366+553373425
3588+556995762+557476050+555443098+553665616+553764429+555204441+556353295
3578+556126413+554630500+552712021+551575792+552204117+554824666+559285519
3568+565019045+569921339+571132953+568219727+563300073+558409068+554905392
3558+553954104+555927391+559803680+563685736+566083653+567042164+567881164
3548+569316928+570323632+569865438+568853029+568807932+569726566+570450244
3538+569701680+566755497+562628715+559355562+558335626+559901765+562855961
3528+564676477+563779572+561250187+559226826+558584237+559058091+560228431
3518+561259656+560919212+559130865+557857524+559285397+563152400+566769457
3508+568081401+567598564+566795859+566124137+565061471+563256494+561590206
3498+561922396+564788885+568002617+569063340+568106043+567048719+567376659
3488+569545267+572882211+575553928+575988875+574472750+572086123+569117421
3478+565608464+562492149+560873387+560380292+559862859+559616069+561040604
3468+564125296+567041921+568480659+568533950+567162827+563755293+558782652
3458+554743880+554024450+556150024+558220183+558075847+555955979+553183750
3448+550831234+549408459+548779163+548418325+547985927+547470011+546907541
3438+546365162+545749279+544661061+543296129+543080537+545059712+547967657
3428+549194991+547813914+545672195+545113549+546424401+547817131+547498295
3418+545470078+543237436+542045913+541756393+541659279+541769746+542338225
3408+542844976+542721581+542415916+542512544+542416826+540991017+538408705
3398+536518146+536983927+539489640+542042878+542784098+541280354+538578593
3388+536259703+535013310+534148757+532799424+531257381+530701285+532023790
3378+535156492+539040369+542118202+543191914+542024730+539588878+537716164
3368+537757862+539267372+540355105+539860432+538645966+538015881+537935823
3358+537832457+538107653+539482175+541351794+542374703+542287847+541834266
3348+541585412+541879606+542831016+543648894+543384563+542578885+542326268
3338+542099750+540809232+539599682+540895481+544725459+548186891+548852848
3328+547194269+545298490+544619848+545197371+546149994+546686668+546710340
3318+546469437+546031637+545488347+545269781+545794619+546951485+547988719
3308+548075878+547497385+547879041+550210617+552988491+553608683+551760004
3298+549954055+550420261+552745100+554775138+555199464+554745822+554871402
3288+556042228+557721443+559258630+560090530+559585418+557656559+555277883
3278+553889220+554648466+557637501+561168248+562755691+561799365+560449364
3268+560768261+562147092+562610810+561487266+559606297+557847813+556671281
3258+556416540+557220277+558739497+560266791+561316953+561875113+561920878
3248+561410607+560977359+561515125+562743066+563426989+562981237+561680947
3238+559866379+557913304+556300914+555169480+554420734+554185902+554671712
3228+555907240+557571160+558420237+556882443+553364928+550576189+550434161
3218+551873566+552616789+551951621+550899395+550463537+550459774+550207643
3208+549483358+548336568+546915249+545723241+545268870+545477604+546027995
3198+546795921+547347890+546942623+545788671+545021656+544731529+543437733
3188+540378169+537098521+535753680+536603788+537991906+538177757+536555717
3178+533796538+531204030+529800495+529920673+531273830+532977749+533896261
3168+533409358+531761158+529595161+527565244+526231207+525712256+525644823
3158+525494236+524755080+523431361+522098295+520945435+519727934+519012753
3148+519919551+522112255+523551418+522887039+520854512+518839102+517371048
3138+516490349+516449561+517347073+518398752+518383214+517032425+515331480
3128+514346020+514266872+514549230+514592567+514265415+513871984+513635391
3118+513425504+513049310+512513001+511911807+511306061+510749236+510287036
3108+509876002+509416594+508988293+508798163+508690336+507985990+506357577
3098+504533905+503525259+503380074+503234100+502512637+501434737+500366275
3088+499521295+499291895+499965378+501094596+501933051+502368120+502581102
3078+502304328+501446208+500771208+500973811+501686989+502026492+501542533
3068+500389764+499100581+498242673+497925385+497860987+497889453+497960650
3058+497635835+496309233+494081659+491910048+490720709+490435074+490049928
3048+488946960+487841656+487990937+489661291+491710934+492663103+492203149
3038+491385756+491132684+491139451+490718100+489830299+488611979+486947179
3028+485143445+483946763+483453790+482990983+482261023+481706110+481559286
3018+481288916+480431979+479552767+479610095+480442267+480778128+479977275
3008+478818224+478239609+478170173+477945234+477325831+476691831+476405073
2998+476305592+475879506+474879782+473775813+473440650+474161991+475078774
2988+474966547+473500162+471357533+469447400+468458692+468574834+469206497
2978+469387402+468717045+467747274+467295119+467529527+467943990+468121465
2968+468067992+467685425+466620726+464985788+463472182+462448817+461687750
2958+461092899+460926106+461215899+461579499+461769963+461982581+462385359
2948+462613516+462120664+460976454+459772488+458822474+458066900+457525734
2938+457335028+457437816+457499574+457190177+456566768+456000414+455518852
2928+454641339+453221022+451878154+451190620+450979094+450754883+450462875
2918+450429280+450716463+450829873+450276417+449295630+448665363+448785147
2908+449226315+449164800+448262281+447118829+446571806+446584704+446400644
2898+445863454+445730104+446368353+447008028+446734138+445573084+444167698
2888+442947921+441957727+441146586+440603933+440506607+440847809+441320904
2878+441532430+441253896+440526606+439680018+439132450+439026838+439153723
2868+439219245+439077216+438765421+438381761+437899562+437237915+436521247
2858+435954802+435492996+435079869+434994105+435342652+435562554+435100688
2848+434266755+433772052+433708321+433541620+432914387+431989411+431110351
2838+430496259+430189926+430009113+429616440+428872398+428033003+427395148
2828+426871433+426141200+425143479+424230004+423860365+424226301+425059172
2818+425718209+425681670+425041600+424356525+424049282+424029646+423825526
2808+423097781+422077087+421329646+421101489+421106952+420849024+420030326
2798+418854341+417883175+417357578+416917441+416254428+415642947+415513968
2788+415799269+415911284+415326265+414204512+413258626+412835848+412522505
2778+411933966+411359205+411206858+411288767+411097211+410504332+409821927
2768+409315510+408940773+408510408+407956739+407444040+407214093+407228023
2758+407102140+406609895+406026424+405703309+405585165+405418311+405166150
2748+405007005+405061510+405203417+405127395+404666197+403964733+403194410
2738+402307125+401277236+400332169+399716984+399403034+399214573+399103226
2728+399122680+399244223+399342854+399289654+398978405+398364374+397545797
2718+396744155+396159197+395805613+395481345+394972439+394302203+393715212
2708+393488968+393786196+394480285+395079932+395074105+394379378+393327517
2698+392343240+391691577+391348311+391086560+390762595+390413805+390083073
2688+389727941+389302947+388827303+388440093+388366044+388669858+389077006
2678+389097188+388368836+387092156+386096044+386073161+386711532+387021627
2668+386561339+385818390+385352336+385161386+384981544+384697760+384346117
2658+384049526+383963642+384052774+384064093+383902915+383733270+383556280
2648+383126219+382420931+381748116+381331226+381165586+381202308+381354108
2638+381471039+381515772+381554405+381506819+381209288+380733401+380340819
2628+380149687+380061951+379924960+379619781+379127020+378613471+378333663
2618+378379246+378603032+378767791+378671740+378224592+377577027+377093583
2608+376986728+377000020+376697026+376062237+375518734+375331791+375328331
2598+375250852+375088855+374966947+374932350+374976962+375129794+375396189
2588+375639944+375638214+375313036+374843006+374472639+374241114+373994840
2578+373678796+373427363+373291707+373149193+372996148+372984737+373063096
2568+372970382+372651577+372317354+372104160+371952268+371753701+371493710
2558+371338813+371539808+372100761+372654642+372815274+372567209+372206827
2548+371990779+371962222+372053114+372173171+372192138+372035087+371825959
2538+371769634+371914424+372158331+372402814+372611426+372794394+372937758
2528+372938214+372723926+372407791+372167041+372045618+371985863+371965530
2518+372028229+372187313+372320753+372292681+372236811+372440688+372866926
2508+373175838+373271131+373356257+373436467+373291555+372977423+372835637
2498+372925467+372915968+372654217+372383149+372267917+372185765+372115995
2488+372257144+372618194+372900400+372893905+372723441+372649604+372756217
2478+372865318+372776277+372534464+372328462+372232623+372238358+372359811
2468+372546239+372725687+372986770+373398835+373709478+373592304+373113807
2458+372665780+372548727+372786595+373210617+373622136+373946951+374205667
2448+374313099+374099146+373621438+373234592+373204305+373414708+373559194
2438+373490729+373294074+373135749+373137387+373321023+373629966+374019907
2428+374449726+374735817+374622710+374167368+373847136+374060179+374668414
2418+375254494+375680823+376105725+376538700+376747919+376667194+376562705
2408+376645191+376800785+376895198+377066543+377448078+377830281+377891584
2398+377625705+377323712+377287719+377694807+378524491+379486978+380176484
2388+380354415+380017825+379283889+378278794+377056801+375620279+374027585
2378+372357656+370591524+368721177+366857021+364961424+362787385+360460998
2368+358617661+357484861+356383775+354682678+352883254+352291044+353778308
2358+357102355+361325157+365731474+370242947+374858514+378863812+381042222
2348+380700382+378450745+376054862+374899848+374740399+374829895+375122541
2338+375648381+376116984+376512844+377187358+378247930+379322310+379937555
2328+379965687+379744723+379803750+380431347+381490674+382648815+383726533
2318+384713419+385540129+386115952+386621277+387472599+388839230+390355355
2308+391444393+391840859+391718223+391423240+391228103+391262396+391492828
2298+391762622+391981219+392239693+392661469+393247216+393885859+394380926
2288+394562134+394532757+394606685+394861031+395042877+394995443+394820031
2278+394589508+394286544+394018025+393936783+393994626+394057781+394153741
2268+394322810+394371275+394099661+393670176+393408212+393334648+393217050
2258+392993567+392837063+392865347+393029590+393214895+393299172+393230160
2248+393149344+393300264+393758671+394380987+395005973+395552055+395942027
2238+396122962+396170851+396225053+396318524+396355913+396214916+395814444
2228+395144937+394296103+393446177+392781040+392379991+392162487+391962919
2218+391666115+391299906+391040886+391056970+391271015+391407490+391347977
2208+391269922+391371770+391649758+391967046+392184186+392251619+392252742
2198+392298537+392425240+392651454+392968530+393262299+393525689+394066946
2188+395104240+396287357+397062384+397339856+397425893+397553506+397795895
2178+398165534+398582182+398936009+399229717+399528159+399852701+400192780
2168+400488977+400649730+400735585+400970994+401411010+401801133+401913876
2158+401820859+401728177+401715552+401713063+401664203+401684991+402006195
2148+402659951+403311523+403570088+403414645+403177354+403172590+403474704
2138+403986857+404551785+404963850+405025760+404760974+404546595+404823794
2128+405593328+406375457+406758388+406813318+406890857+407205323+407693683
2118+408134973+408383159+408546067+408875464+409478509+410288042+411278055
2108+412449154+413596642+414393337+414777938+415015138+415319558+415668226
2098+416019808+416425106+416848885+417156098+417326168+417427621+417399185
2088+417151242+416857565+416870827+417331752+418020378+418597506+418897254
2078+418991666+419084865+419367283+419854976+420335809+420588335+420656315
2068+420771273+421050019+421443056+421880432+422283423+422575401+422833450
2058+423248701+423842824+424403959+424737180+424843367+424936141+425374427
2048+426367019+427646278+428695955+429357541+429903653+430530461+431164218
2038+431764866+432456254+433313737+434260139+435196284+436120896+437129239
2028+438315057+439639807+440931297+442066160+443134410+444370393+445887429
2018+447491381+448859803+449953848+451093476+452564899+454349816+456254791
2008+458087688+459697164+461051656+462308458+463675787+465203475+466750160
1998+468144105+469423060+470891570+472733147+474573298+475754958+476110485
1988+476135674+476453812+477377665+478841380+480571671+482379835+484272002
1978+486276124+488347587+490441629+492474976+494336977+496148783+498218486
1968+500486574+502423019+503816326+505206022+507150024+509536165+511965826
1958+514410297+517059798+519828386+522464231+524947425+527416357+529880068
1948+532330729+535029091+538301516+541901396+544858626+546459605+547246103
1938+548451829+550732603+553776993+556806269+559246066+561121087+562966427
1928+565362948+568539534+572197196+575557994+578032024+579974235+582057504
1918+584067330+585227352+585631770+586380758+588344942+591320381+594169754
1908+595827423+596304858+596431591+596812155+597587971+598892692+600794176
1898+602919993+604704880+605958920+606960101+608089896+609406089+610471850
1888+610768532+610321688+609643410+609261632+609425997+609922247+610234528
1878+610210068+610326544+611050161+612398098+614302981+616641962+618509699
1868+618470975+616464973+614069180+612391421+611272976+610306453+609410277
1858+608385303+606904200+605075065+603451508+602579610+602701063+603580548
1848+604686671+605624425+605865873+604426650+601214314+597764475+595368015
1838+593910886+592616787+591324872+590922943+592298982+594741389+595949786
1828+594726397+592196042+589364392+586098158+582671626+580128949+578914908
1818+578356990+577646119+576903382+576832489+577461117+577882408+577450435
1808+576558750+575910335+575875252+576661630+578269224+580087919+581125942
1798+581066035+580789625+581552028+583575875+585260371+584744394+582689774
1788+581289153+581558461+583053404+585105718+587484879+589789021+591270731
1778+591987491+593366686+597020524+602983238+608569698+610464445+608989593
1768+606818740+605407133+605081802+606025140+607830603+609467877+610751294
1758+612352940+614187598+615771703+617814063+621610901+626846173+630893140
1748+631649897+630077750+628496376+628312892+629705319+632112401+634604700
1738+636973058+640424596+645517840+649407908+648769750+645530465+642854985
1728+641426809+641074954+641781273+643255640+645416964+649209189+655616562
1718+663359732+668142152+667359174+663467528+659825040+658062125+658691907
1708+661644099+665815492+669205850+671448081+674843779+680865065+686545846
1698+688166065+686707783+684043168+680919267+678836423+679209218+681800876
1688+685597168+691044816+698937541+705432499+704736194+699253161+694873216
1678+694295087+697186401+701276886+704295481+706260635+708309307+710141840
1668+710487140+709912470+710319194+712189177+713951910+714100980+713421488
1658+713897345+717141788+724181675+733326680+737346636+734680443+732748429
1648+734541996+736719708+734524819+729005064+724356176+722738020+724730852
1638+730034468+736314440+738596671+734808997+729181386+725528458+724417236
1628+724862441+726182457+728347787+730289634+730089641+728395919+728191556
1618+730644099+733306225+733153939+731225809+730181595+730843242+732675958
1608+734850635+736718311+738096778+739312458+740797872+742755924+745185707
1598+747983853+751040807+754373442+758060117+761925542+765494770+768345600
1588+770451387+772228080+774186922+776537678+779363805+783042832+787946219
1578+793497779+797394340+797390517+795399931+795176084+797443990+799492055
1568+798521526+795380933+792323372+790490049+791143381+795868989+802793614
1558+803714190+796875997+789523344+784522419+781253879+779107243+777736606
1548+777074291+777852960+781098133+787054534+794822105+801451564+801496237
1538+794863378+788617335+786608055+787443960+787893960+787499436+788604953
1528+792194332+796969954+801906966+807783553+814747023+820440489+823391165
1518+825299083+827044942+827405780+826378197+826423537+830352389+839464436
1508+852066503+861118280+860001473+853632278+848816961+847516792+850174063
1498+856276621+862733218+865831445+865989680+866557794+869484312+874088893
1488+878264353+880882839+882809330+885613181+889997496+895213467+900256455
1478+905310611+911100220+917807249+925157474+932040582+936477581+938221620
1468+939176550+940950330+944102151+948843419+955269730+963029834+971431556
1458+978984141+982723197+980632038+974685165+967853891+962382451+959399364
1448+957290663+953571334+948764575+945357284+944339473+945013502+946539521
1438+947880842+947432541+945184725+943301207+942855091+943015208+943141941
1428+944412187+948162167+953184761+956450388+956836657+956532024+957668132
1418+959315664+958995553+956038384+952105769+949635138+949440304+949852854
1408+949342765+948260738+946976289+945249913+944342386+946687437+952498168
1398+958303073+960281216+958313816+954954960+952215325+950773673+950577383
1388+951021799+951316356+951829480+954563896+961042222+970168351+978706821
1378+983877999+985423016+984921788+983601286+981935606+980960282+981824229
1368+984538857+988268444+992431522+996769647+1000732003+1003900638+1006428323
1358+1008336544+1009460148+1009977824+1010146256+1010054423+1010345703
1350+1012095083+1015580915+1019660475+1022490851+1023229885+1022640041
1341+1022249523+1023065156+1025062904+1027883690+1030909871+1033048434
1332+1033530239+1032764741+1031370311+1029236483+1026725975+1025160139
1324+1025545437+1027887332+1031209224+1034138049+1036661181+1040189561
1315+1044729379+1048084896+1048780715+1047571651+1045876776+1045265810
1307+1047165352+1051229920+1055672746+1059414169+1062458558+1065095193
1298+1068107778+1071840824+1073741823+1069781531+1059969780+1048729973
1290+1039828056+1034031466+1030590853+1028500604+1026227054+1022662742
1281+1018859166+1016944693+1017168783+1017413873+1015699151+1012433645
1273+1009543969+1007929395+1006588317+1003504171+997747156+991004073+986023663
1263+983970378+984276408+985839330+986705644+984064882+976959262+967774926
1253+959458118+953160240+948421339+944043094+939294361+934594184+930603847
1243+927148485+923803892+920479876+916744705+911604118+904332313+895259657
1233+885820215+877999658+872999521+870091151+867444138+864212258+861258002
1223+859785942+859689921+859479913+857975441+855776000+854471764+854665203
1213+855506449+856170645+856852686+857953651+859402525+861349106+864503902
1203+868883665+872953696+875139541+875822917+876998902+879831584+883355897
1193+886248304+888978228+893144402+899162046+905549025+910193240+912177392
1183+912749816+914212286+917393242+921101524+924582258+928904298+935145304
1173+942283092+948168723+952595585+957413937+963583867+970339696+976868765
1163+982818672+987011369+987440369+984211766+980459054+979546733+982193200
1153+986157073+988695258+989476477+990542177+993695213+999015945+1005145209
1143+1010328101+1013729019+1015046304+1013386937+1008892701+1004417100
1134+1003083670+1005691959+1011303789+1018090634+1022995356+1023243967
1125+1019569310+1015769376+1015053891+1018027631+1022442173+1024440285
1117+1022722952+1021226796+1024470633+1030977729+1034464350+1032681223
1108+1029863836+1028642511+1027193941+1025850131+1028154394+1034827798
1100+1041898517+1045453846+1046025360+1045824213+1044743703+1041950595
1091+1038705180+1036393390+1033893929+1028957160+1022228523+1017612835
1083+1018160738+1022686292+1026396760+1024680034+1016856016+1007206081
1074+1001912115+1003252890+1007941474+1011581413+1012209374+1009187320
1065+1003114382+997180255+994393034+994178596+994320139+994178838+993893021
1055+993274529+992999879+993886405+994793325+993802098+990961708+988310264
1045+987079227+986764094+987241104+989078311+991124616+991049049+989048206
1035+988549831+992046284+996815655+996615661+989280732+979795768+974213375
1025+974052531+977425347+981015940+981150017+976916775+971316902+968085993
1015+968370596+971293534+975838086+980784324+983953566+983785923+981102614
1005+976862331+971483573+966627165+963499318+960190597+953150165+941913029
995+930081376+920937585+914309035+908228267+902432831+898921629+899024569
985+900856192+900456995+895881245+889004510+883006652+879503947+878097682
975+877505046+876604924+874726140+872078217+869835560+868955286+869167176
965+869063143+866980299+862406370+856787924+852416841+850528892+850473840
955+850696655+850693378+851576080+854271892+858085786+861820168+865505629
945+869806183+874266975+877725736+880081166+882494318+886121450+891459481
935+898584705+907053072+915549904+922721683+928301951+932406154+934692330
925+935515610+936294279+937729739+939441184+941304005+943470731+945236802
915+945296467+943495252+941093147+939396269+938448683+937161079+934798912
905+931539719+928024024+925683587+926069431+928430809+930089388+930445431
895+931675981+934674485+937880508+939976462+941178911+942608241+945305268
885+948454783+950393292+951552464+953666930+956761394+958865300+959611678
875+961284885+965188912+969648004+972190135+972712424+972856577+972668298
865+971381846+970136304+969915128+969473382+967540457+964727016+962494981
855+961964680+963711572+967666462+973058695+978373054+982182153+984231250
845+984956749+984785101+984752264+986755475+991181366+995331880+996446684
835+994458829+990732459+987522065+987375485+989921742+991316172+990260608
825+991231866+997447075+1005188364+1008138372+1005736267+1003059209+1003955082
815+1008148568+1013244969+1016678966+1016571352+1013575580+1010140915
807+1007418699+1004964214+1003380352+1004112163+1007641939+1014066853
798+1022029925+1027558360+1026877593+1020656982+1012952535+1006005332+998709612
788+991333835+988110999+991422451+997329810+1000162493+999372231+996569289
778+990225587+978877923+965802003+957134553+955547778+957623399+958546706
768+957954496+958303194+959579692+959865509+959401124+959272266+957901811
758+955037992+954077660+956813350+961816036+966341104+969161647+971540931
748+974697790+978335301+982240907+986209514+987661120+985122267+982632457
738+984225484+986851071+984508995+977842814+972467941+971036668+971534740
728+971450433+971503238+974286211+978969878+979967477+973903947+964748927
718+958741541+957991945+960965381+965015747+967284017+966937261+966455395
708+968533808+973811629+980147441+982654611+978408501+970185043+964372915
698+965437402+971726296+975685011+971555862+963993444+958677810+955086185
688+951201884+946144026+942341968+944118964+950801108+955170370+953584444
678+952066923+955290609+959340003+958966844+953511549+943161910+928093946
668+914865253+911289106+914108010+917843910+922013907+927378765+932737433
658+935979085+936312245+933846895+928213639+920063259+914091865+913598649
648+916023333+918286930+921223766+925905734+929993185+929614563+922713853
638+910767485+898614750+890963716+888289329+889070911+893467061+899041443
628+898128696+886822731+872353716+864391311+863959641+863873332+858203718
618+849941354+848052738+856705498+869403587+875674697+873192656+866855690
608+859180196+851811519+849178224+852578899+854248767+849586161+846686107
##END=
