##TITLE=<SNM>
##JCAMP-DX=4.24
##DATA TYPE=INFRARED SPECTRUM
##DATE=29/4/2025
##SAMPLING PROCEDURE=Instrument type and / or accessory
##ORIGIN=Admin
##XUNITS=1/CM
##YUNITS=ABSORBANCE
##RESOLUTION=4
##FIRSTX=4497.3318
##LASTX=599.83466
##DELTAX=-1.4281778
##MAXY=2.1414554
##MINY=0.38541424
##XFACTOR=1
##YFACTOR=1.9943858e-09
##NPOINTS=2730
##FIRSTY=0.39473462
##XYDATA=(X++(Y..Y))
4497+197922903+198206762+198666128+198752724+198412095+198035410+197989699
4487+198115624+198093703+198260019+199253258+200880577+202032571+201782693
4477+200390458+199197909+199313957+200402308+201248731+201352780+201122865
4467+200830548+200451725+200256299+200604264+201331874+201858425+201739089
4457+201072118+200521599+200698047+201316229+201384489+200531013+199597532
4447+199494380+199947037+199912548+199000719+197918599+197594453+198330685
4437+199659561+200682611+200722434+199834306+198644341+197887562+198163308
4427+199546038+201198582+202002894+201716958+200870177+199798383+198529444
4417+197361819+196843308+197102392+197628314+197791075+197428331+196943711
4407+196770715+196859133+196858087+196563708+196052175+195550565+195230244
4397+195129782+195355796+196157479+197526507+198881907+199462521+199055411
4387+198168568+197461475+197109699+196727111+195928446+194843920+193913204
4377+193409621+193454301+194220225+195615000+196991514+197724742+197840238
4367+197644169+197115004+196134048+194924882+193891387+193303719+193249595
4357+193688982+194505549+195444499+196052922+196084557+195956480+196236932
4347+196737586+196730727+196012531+195180992+194889930+195256440+196007465
4337+196827005+197396965+197384323+196717487+195751161+194939840+194499736
4327+194476619+194878409+195570320+196177578+196335437+196161633+196301008
4317+197161701+198276218+198843906+198704816+198332733+198079118+197853657
4307+197436998+196893054+196578830+196653127+196812929+196820714+196952677
4297+197437745+197879986+197838982+197628733+197837518+198297571+198305372
4287+197716778+197100539+196853081+196761345+196466338+196014847+195829732
4277+196189502+196942172+197849966+198915753+200089071+200922612+200891038
4267+199986994+198865768+198360347+198683074+199165781+199099762+198576216
4257+198046662+197596859+197242857+197353899+198165459+199329154+200369299
4247+201179664+201788864+202049741+201850938+201383443+201010582+201012271
4237+201352959+201533218+200935374+199595380+198403608+198228878+199087240
4227+200420389+201812833+202961585+203290692+202410811+200942666+200108078
4217+200362081+201020236+201312867+201341542+201704077+202451262+202917577
4207+202610362+201802926+200996342+200253848+199455378+198878470+199071176
4197+200158526+201534443+202376442+202415519+202119929+202149815+202691129
4187+203297117+203412597+203043577+202646121+202409960+202184035+202071005
4177+202390952+203002319+203409235+203588194+204027178+204912721+205815763
4167+206212114+205987624+205458951+205075631+205111748+205601583+206406584
4157+207180173+207440124+206980160+206175369+205591646+205313002+205003904
4147+204579863+204298440+204202356+204080136+204010516+204340684+205057565
4137+205692976+205848742+205460894+204733180+204100040+204006108+204501009
4127+205207638+205717303+205823862+205455589+204695583+203920648+203661131
4117+204132272+205006758+205759099+206100579+206029733+205776956+205762312
4107+206179568+206608629+206585139+206446287+206909539+207977119+208936033
4097+209316530+209283431+209094953+208702966+208005601+207200899+206731208
4087+206885510+207537628+208290088+208789068+208911781+208797541+208816773
4077+209357011+210302596+210767401+209874356+207910458+206101415+205210627
4067+204993309+204990709+205226242+205920111+206824961+207193697+206657000
4057+205921157+205986862+206786109+207286837+206888633+206010965+205323358
4047+205109029+205373567+205957827+206468418+206498678+206050938+205560251
4037+205447654+205775133+206347259+206990605+207638493+208231167+208663441
4027+208837708+208733270+208444540+208156855+208067241+208296633+208752009
4017+209079203+208971867+208528714+208106721+207943333+208095558+208502235
4007+208930714+209150392+209244011+209489407+209996665+210604028+210986213
3997+210906760+210506704+210134381+209890958+209711387+209675927+209783592
3987+209779990+209568695+209348164+209234492+209232236+209490572+210177014
3977+211203590+212216404+212718388+212352835+211315126+210291866+209763941
3967+209600494+209547401+209809070+210721660+211962028+212649231+212354299
3957+211512614+210789935+210467807+210463443+210724156+211399749+212418226
3947+213174571+213247852+213135122+213538257+214239761+214414834+213813554
3937+213081954+213199287+214724710+217173840+219080446+219322599+218450968
3927+217934639+218295216+218503807+217476423+215911327+215636209+217327635
3917+219528157+220141855+218787098+216820944+215412466+214672424+214548799
3907+215717739+218929581+223553083+227484929+229221422+228983976+227294090
3897+224436176+221456520+219972879+220702864+222386519+222870108+222172370
3887+222442631+224476627+226263315+226247983+225728501+225675662+224944227
3878+223321121+222676461+224127944+226878687+229911480+232449791+232918422
3868+231011876+229048874+228602075+228437029+226942329+224738550+223316892
3858+223587109+226701596+233986600+242659386+244766947+239065927+231313159
3848+225764827+223927049+225445568+228875863+232836967+236772982+240160614
3838+241588682+240263558+237601443+235398769+233984344+232737640+231486828
3828+230583636+230158983+230630767+233220587+237861318+241122771+240744755
3818+239358483+238807770+237106945+233040746+228825669+226896648+228079052
3808+231513441+234967810+237396707+240160331+243748888+245823006+244980947
3798+242872789+240681217+238252828+236034613+235131780+235998555+238349301
3788+241770465+245629583+248867993+251066782+253273252+256506313+260054524
3778+262600949+264382108+266640908+270325490+275917560+282680213+288226586
3768+291176625+292943887+295242854+298564318+303375670+310142597+317739464
3758+324137864+329442100+335932728+345605283+358630563+372173801+382090316
3748+388378974+394294592+400462658+403149250+401480194+399800918+401566715
3738+407382513+415421457+422400277+425904316+426165791+425182026+424798526
3728+425856767+428118586+430356914+431119401+429738299+426558765+422729145
3718+419674564+418481028+419887683+424226923+430168422+434155363+433743202
3708+430155989+426467343+425553153+428627130+433939315+437828678+438709783
3698+438223295+438565702+440988577+445788572+452302034+458605635+461697155
3688+460178816+456242891+452802927+451301414+451971971+454260060+457731045
3678+462754051+468266683+470212545+468145495+467118634+469145517+469842852
3668+465245426+458085196+452512672+449883851+449494374+450320548+452380276
3658+456296208+461260607+465099790+467898694+472429654+480031273+486364610
3648+484428312+475209431+465509710+459265134+456773520+457134366+459493555
3638+462988807+466617383+469589089+472312859+476770985+484349592+491754201
3628+492253510+486071725+479405904+476424156+478845746+486069843+493920025
3618+497661929+497423527+495903484+494186790+493215069+494960185+499504593
3608+503371810+503438337+500987338+499292790+499791770+501817548+504413703
3598+507421512+511042885+514742559+517019650+517372427+517775891+520334987
3588+523659470+523877700+520504024+517086356+516247031+517478104+518622806
3578+518493937+517830463+517795077+518763929+520874792+524417564+528863258
3568+531956601+531189482+527030456+522518295+519736905+518544982+518049051
3558+518197286+519360816+521248191+523225283+525120608+526848031+527849458
3548+527707020+526826573+526194778+526599796+527867270+528872045+528499065
3538+526590471+524176442+522495402+521634380+520531340+518464469+516178652
3528+515121696+515749964+517082710+517927473+518199020+518716649+519735410
3518+520348197+519796916+518661957+517973678+517858377+517829506+517712831
3508+517591612+517331243+516604231+515378239+514389244+514680276+516386062
3498+518453292+519783527+520122556+519565955+518100873+516015592+514229831
3488+513881836+515217152+516955275+517643973+517604523+518236437+519463326
3478+519677491+518214321+516130714+514468084+513488115+513197262+513260980
3468+513185906+513416328+514815780+516563646+516642127+514859056+513020097
3458+511975095+510909054+509391611+508048943+507315535+506983141+506807350
3448+506752300+506752360+506741182+506707112+506661506+506722414+506993063
3438+507122710+506285597+504175032+501838169+500756288+501049322+501260409
3428+500288539+499043628+499418850+501765486+504180412+504729362+503717115
3418+502824892+502793392+503174023+503696614+504404319+504637551+503316700
3408+500586295+498081322+497066028+497134796+497273378+497475469+498391033
3398+500041469+501742653+502808455+502716585+501123560+498669154+497136141
3388+497689484+499388336+500346070+500253333+500550850+501796508+502524177
3378+501661183+500471174+500827985+502964401+505658942+507524321+507949960
3368+507496825+507212727+507480746+508079367+508933336+509792087+509957776
3358+509373441+509124847+510087841+511717297+512867677+513411009+514099049
3348+515052121+515593599+515449787+515049491+514868739+515224743+516174527
3338+517050253+516959459+516064666+515262699+514785595+514260435+513653027
3328+513150939+512608623+511876710+511049699+510041398+508820605+508163766
3318+509032200+510989269+512360508+512182864+511118557+510367456+510525375
3308+511332004+511949991+511691117+510839539+510471221+511280958+512705933
3298+513195529+511856268+509703922+508504947+508712597+509362861+509744030
3288+510252095+511582749+513781538+516238723+518299796+519651968+520323153
3278+520705875+521332769+522120330+522050456+520421777+518211811+517102853
3268+517498248+518438348+519110011+519486159+519608752+519346770+518833444
3258+518239665+517172129+515146681+512776644+511458303+511790937+513048608
3248+513897496+513543943+512543412+511909465+511638517+511132483+510695308
3238+511124175+512143474+512719382+512527990+512104264+512150049+513226192
3228+515210757+516848940+516741290+514716080+511819030+509359215+508181279
3218+508268906+508807157+508909905+508301422+507260605+506126602+505115372
3208+504562357+504726074+505204493+505142748+504078320+502249642+500306112
3198+498786727+497698390+496781660+496244157+496642002+497676842+497970235
3188+496778971+495067477+494252091+494636009+495300380+495173782+493988345
3178+492308381+491026621+490732331+491065383+490890669+489663869+488141705
3168+487229009+486801427+486051702+484575562+482877307+481789838+481459147
3158+481171223+480389668+479538718+479255397+479407039+479444636+479320818
3148+479341887+479208356+478105256+476023352+474056510+472944593+472160529
3138+470921297+469493214+468858430+469226120+469472204+468551349+466995593
3128+466124619+466266369+466622583+466482177+465797932+464853618+464037754
3118+463686262+463700936+463601714+463155184+462615259+462219446+461828266
3108+461305018+460785386+460340799+459837007+459268302+458925268+459015166
3098+459245798+459017826+458106625+457038760+456423911+456133208+455669225
3088+454997412+454422820+454048824+453844283+453837947+453963140+454013349
3078+453788903+453207318+452506516+452217486+452521011+452851851+452572176
3068+451679445+450437583+448847098+446955569+445347063+444840492+445640456
3058+446911577+447416146+446792839+445913138+445708567+446092246+446306829
3048+445940663+445246915+444667122+444307979+443959446+443615994+443643938
3038+444203527+444920587+445317566+445156300+444358935+443086619+441853215
3028+441147572+440916581+440594288+439663422+438181843+436732511+435817186
3018+435409568+435152337+434837037+434565581+434472336+434417017+434116541
3008+433527483+432844792+432163028+431447313+430812560+430523470+430663846
2998+430936946+430910825+430483572+429913313+429342457+428584183+427462584
2988+426094960+424824916+424061921+424020678+424421422+424634003+424237622
2978+423349672+422443313+421918720+421796127+421753539+421471204+420936958
2968+420397871+420057885+419849219+419564643+419212165+419007743+418948658
2958+418730459+418197468+417536116+416944847+416459166+416155134+416143956
2948+416234541+415927401+414959296+413670513+412684806+412356566+412624436
2938+413195950+413627866+413410563+412380684+411022415+410044478+409680614
2928+409575743+409360024+409157814+409283725+409491464+409045322+407783945
2918+406456907+405729417+405599501+405857031+406289574+406473374+406073497
2908+405185338+404083583+403105855+402749253+403205018+403958629+404365290
2898+404318698+404049512+403670615+403135891+402432758+401766953+401483721
2888+401609901+401679894+401310680+400714958+400427273+400696727+401221828
2878+401387189+400816003+399690847+398485446+397547856+397046903+397112384
2868+397759450+398646144+399123905+398762073+397773317+396726493+395917772
2858+395231046+394523968+393899526+393538291+393431567+393381060+393189011
2848+392818930+392404587+392115588+392019294+392055277+392062779+391819475
2838+391246496+390643691+390411834+390485982+390467572+390271967+390097521
2828+389878007+389384525+388702133+388109281+387726139+387547091+387488693
2818+387330954+386921244+386330722+385636196+384852311+384183158+383963973
2808+384216750+384515074+384414627+383905157+383274677+382620288+381830455
2798+381036797+380614206+380657989+380867462+380947856+380826010+380569855
2788+380270425+379895084+379310749+378582093+378007919+377714137+377497851
2778+377165516+376719942+376166748+375446969+374633825+373955587+373530127
2768+373237421+372918714+372538024+372108888+371668484+371355337+371300376
2758+371439915+371595054+371669082+371589256+371136181+370145005+368947016
2748+368244062+368300846+368577861+368443642+367881064+367183759+366418731
2738+365546293+364702097+364092448+363817316+363852910+364057900+364223858
2728+364180433+363820065+363137494+362332479+361700146+361317782+361003977
2718+360635390+360300814+360089787+359945168+359769018+359488237+359031994
2708+358427336+357848620+357423399+357105648+356832817+356616800+356394476
2698+356007390+355436324+354909759+354697029+354833609+355072429+355119141
2688+354881157+354421747+353805194+353168259+352751047+352637480+352665244
2678+352706636+352744562+352671281+352385569+352016683+351729417+351480345
2668+351167855+350782950+350348464+349944433+349676622+349482481+349238192
2658+349035025+349018618+349067003+348919186+348499643+347930460+347384589
2648+347022368+346891974+346845471+346666273+346331189+346048107+345963260
2638+345974766+345921539+345791235+345667715+345626711+345708898+345856566
2628+345905251+345726591+345332541+344843423+344405142+344084702+343848362
2618+343691967+343691071+343832522+343901500+343637664+343021321+342366005
2608+342035016+342075751+342272163+342492902+342756708+343018422+343132318
2598+343020454+342758651+342491139+342269921+342026379+341762184+341637977
2588+341763709+341994400+342028799+341710780+341203193+340812341+340662700
2578+340662282+340732006+340863416+341009440+341121005+341225936+341298141
2568+341140611+340610041+339920715+339457957+339281090+339149501+339037279
2558+339164714+339526068+339858044+340017427+340034701+339979890+339980996
2548+340117695+340252841+340207414+339964110+339572033+339135007+338876401
2538+338912922+339099322+339301383+339573617+339924421+340177557+340163630
2528+339894684+339549648+339351472+339417670+339692534+340010135+340196386
2518+340149016+339903112+339619223+339464263+339502428+339686138+339909956
2508+340062764+340074719+339958372+339815038+339808702+340084223+340596054
2498+341038310+341112847+340844678+340463120+340077558+339690412+339405148
2488+339355716+339463098+339486618+339373678+339390205+339757925+340283414
2478+340569216+340505349+340287927+340074540+339921522+339899167+339977350
2468+339959239+339745672+339511184+339477622+339653772+339868086+339948061
2458+339853202+339696150+339623168+339662678+339733777+339761870+339691608
2448+339472273+339193524+339142030+339484914+339967995+340207593+340193427
2438+340183505+340225375+340173642+340085388+340179321+340438643+340613687
2428+340623729+340665181+340889088+341216671+341518821+341755669+341877695
2418+341819088+341683972+341723273+342033372+342440572+342730707+342876074
2408+343031512+343367971+343867310+344295669+344463749+344456188+344522685
2398+344819305+345293659+345754564+346083612+346398732+346869649+347369556
2388+347539519+347218033+346554618+345670704+344447790+342712118+340481321
2378+337966037+335362589+332662340+329761822+326841132+324429374+322889278
2368+322075566+321728916+321841138+322307513+322664593+322659244+322824036
2358+324058845+326791939+330941611+336337358+342327363+347315014+349714279
2348+349154181+346639077+343974960+342533578+342242785+342310268+342383100
2338+342488061+342573446+342577361+342637791+342973353+343668058+344658338
2328+345766579+346700284+347262713+347626278+348189365+349160009+350453784
2318+351878340+353196202+354154773+354674375+354949866+355285727+355887486
2308+356785447+357795512+358555578+358817531+358780293+358959401+359625146
2298+360506939+361179259+361619035+362163353+362957758+363710144+364082048
2288+364127325+364173798+364387814+364636676+364732551+364661123+364537304
2278+364404131+364159901+363712893+363146370+362673630+362457941+362468192
2268+362470493+362232390+361780719+361349850+361073791+360899584+360795012
2258+360843129+361098537+361459951+361732244+361826326+361895452+362208989
2248+362853724+363607843+364150099+364365309+364408495+364469463+364519223
2238+364356672+363920184+363425985+363088959+362847747+362552770+362270315
2228+362144435+362118105+362060693+362031853+362207644+362667832+363360535
2218+364161844+364951497+365710876+366522556+367477510+368651710+370098382
2208+371745053+373357085+374746017+376032888+377552752+379433730+381476662
2198+383508925+385545581+387556804+389457567+391346914+393402936+395565503
2188+397557927+399165208+400409610+401492508+402534520+403417270+403997690
2178+404374077+404801001+405418630+406121076+406632578+406708579+406309359
2168+405610709+404845442+404085615+403211055+402165037+401095439+400123599
2158+399151759+398011481+396694305+395381254+394229081+393188742+392203005
2148+391396495+390839805+390616226+391392909+394129859+398903883+404772669
2138+410873492+416920071+422807985+428497394+434075865+439545760+444821574
2128+449960688+455112803+460328187+465532453+470581998+475304947+479458593
2118+482744164+485121224+486978384+488736829+490593062+492887486+496318633
2108+501495733+508442604+516707100+525890476+535734458+545495775+553716636
2098+559085396+561292134+560952089+558984918+555986972+552085506+547271375
2088+541438900+534278402+525723472+516192519+506085180+495557880+484815428
2078+474240699+464385181+455782224+448497310+442165496+436576953+431767603
2068+427685116+424251788+421489226+419354124+417768033+416708716+416041058
2058+415542227+415106606+414653531+414135961+413816537+414097468+415111806
2048+416799241+419118770+422129657+426220692+432010280+439711479+449046618
2038+459895943+472399708+486350474+500963459+515257618+528431104+539820322
2028+548697844+554671740+558293949+560533802+561866368+562475868+562557816
2018+561836064+559785989+556680452+553429788+550390300+547074544+542894598
2008+537761222+531951521+525670335+519027406+512372881+506220744+500709695
1998+495490098+490328838+485547043+481616677+478536065+475867854+473284848
1988+470826886+468773075+467492839+467174252+467547681+468119822+468692263
1978+469396920+470312753+471338299+472416175+473696919+475403900+477542169
1968+479813103+481865659+483574463+485036527+486379374+487677213+489076247
1958+490845062+493068746+495415442+497524452+499487110+501609779+503921298
1948+506304066+508944633+512203486+515940518+519323399+521662593+523193783
1938+524670820+526611870+529125480+532005256+534875289+537469532+539744830
1928+541829214+544140495+547146390+550579241+553548138+555853441+558077035
1918+560061121+560822981+560440736+560386044+561682389+563882851+565834421
1908+566888807+567255092+567607869+568530516+570009705+571468272+572580816
1898+573733587+575208591+576448690+576941394+577271517+578211558+579348370
1888+579731213+579454048+579372399+579735935+580070959+580016447+579625953
1878+579058713+578428532+577982331+578263740+579812742+582387320+584395315
1868+583799444+580437125+576302666+573239807+571665281+570962597+570256864
1858+569017901+567369795+565816250+564587329+563558406+562801926+562728705
1848+563664921+565465984+567059278+566558146+563402878+559475411+556673100
1838+555190564+554094697+552763146+551767517+552091304+553434032+553958595
1828+552644259+550510323+548360727+545637495+542110802+538818178+536768581
1818+535863567+535373493+535067278+535381562+536431704+537442575+537601869
1808+537073241+536639234+536915860+538170484+540151940+541918813+542561068
1798+542336443+542537757+544274205+547380878+549918277+549829396+547912314
1788+546709932+547347046+549089293+550963637+552927640+555172453+557340340
1778+559163399+561221125+564566050+569560395+574569265+576810911+575813070
1768+573456004+571477058+571052913+572799822+575848216+578111499+578886628
1758+579376404+580320808+581704779+584112353+588230912+593143071+596501743
1748+597377171+597223197+597520445+598510635+600004109+601938046+603840782
1738+605414112+607876318+612509757+617333572+618399016+616111943+613322244
1728+611250890+610317663+610766255+612169592+614214886+617841160+624202381
1718+632076921+636980053+636206897+632349901+628756144+626949641+627579464
1708+630898507+635911263+640292582+643198239+646640833+652169065+657762032
1698+660620947+660684366+658162806+654067976+651336196+651599972+653929603
1688+657235437+662568154+670750223+677385441+677055856+672819604+670080054
1678+670755602+674108477+677895121+680559238+683151867+686688901+689099164
1668+688038502+685819032+686132240+689176570+691936681+691988623+690480266
1658+690245719+693514315+701302962+711031702+714671186+711420103+709002846
1648+709854006+711027219+709030641+704728042+701251677+700592208+703569353
1638+709640618+715746313+716787249+712031814+706919658+705350930+707648523
1628+712192124+716984977+721179208+724542842+726475942+727534871+730073884
1618+735771273+742881383+746984581+746818952+744611377+742077265+739963771
1608+738610523+738014532+738276635+739672799+741919226+744248857+746659479
1598+750073621+754709511+759097883+761501512+762048968+762440477+763710223
1588+765280505+766253361+766761068+767406252+768190526+769092372+771118239
1578+775216237+779571077+780205980+777834987+777392551+780755767+784990405
1568+786334328+785799365+786706890+790192340+796470238+807228798+822236819
1558+831933581+829845671+824378465+821594744+821444237+822274476+822808602
1548+823045002+824462745+828351360+834494352+842045523+848727065+848478412
1538+840556771+833141224+830616556+830912907+830102573+828228109+828488179
1528+832002140+836885847+841330346+846293131+853037375+859566556+862922480
1518+863172269+861498760+859009836+857854973+859928180+865206265+872685410
1508+881154148+886829779+885754772+881671000+879662048+880772859+884285147
1498+889078956+893432422+895794807+896719069+898130774+900915034+903725294
1488+904331387+902789198+901471694+902130865+904366174+906652709+908698241
1478+911969586+917271760+922956716+926372172+926500026+924566567+922538189
1468+921627915+921747759+921803168+921255473+921276991+923292099+927400916
1458+931504891+931472853+926688727+921469578+918357108+917256159+917336194
1448+917233864+915488987+912634973+910787467+910485616+910841860+912184528
1438+915316962+918358542+918534154+917230995+917285149+918635169+920034501
1428+922102149+926133680+931232568+934949098+936482560+937364741+938380335
1418+937329535+932939848+927818546+924638832+924113671+925514498+926941923
1408+926203853+923001605+919641916+918882268+921464138+925846175+929754874
1398+932366869+934732304+936957691+937073171+934444798+931396165+930220322
1388+931136215+932572247+932705600+931448406+930738011+932750549+937820088
1378+943975333+948711402+951291300+952848730+954339514+955724681+957286594
1368+960045271+964383734+969330022+973536208+976083530+976656568+975695069
1358+974228552+973323418+973571594+974904878+976600203+978051657+979642381
1348+982456586+987332822+993417536+998529573+1002007850+1005229943+1009186280
1338+1013130663+1015939968+1017637983+1018731221+1019338867+1019749384
1330+1021065095+1024301175+1028612202+1031845771+1033152157+1033794950
1321+1035804379+1040724248+1048471832+1056317561+1059937499+1057702727
1312+1053078732+1050539838+1051406658+1054524149+1058144446+1060923147
1304+1062689661+1063912366+1064903154+1065980731+1067370082+1069385130
1295+1072001011+1073741823+1072419298+1066640738+1057249772+1047041119
1287+1038636158+1033025798+1028974901+1024358078+1019138032+1015425327
1278+1013947872+1012877228+1010704142+1008051680+1005409739+1001785019
1270+996876387+991819819+987394865+983273257+978985900+974167525+968211680
1260+961148192+954381953+949052463+944505037+939540039+934178811+928853625
1250+922913739+915973323+908992023+902026502+893310426+882354019+871464080
1240+862766892+856083079+850477560+845699053+841292570+836315678+830774056
1230+825707625+821614289+818148684+815228621+813162527+811772280+810494585
1220+809298000+808628310+808553236+808701292+809016293+809936011+811737732
1210+814261862+817378815+821180700+825430699+829448602+832992211+836549806
1200+840308775+843697035+846179086+847884393+849427956+851575640+854842263
1190+858970028+863249017+867217189+870708317+873765378+876666493+879633537
1180+882864476+887121827+893361053+901294110+909536370+917614794+926159861
1170+934507440+940233101+942473611+944071268+948526884+955560725+961192962
1160+962318776+959692315+956241473+954686493+956454323+961021535+966693221
1150+971656186+974053599+973467530+971231563+968577547+965822038+963770349
1140+964419777+968583225+974027657+977889494+980365328+983707803+988494678
1130+992965477+995253805+994736952+991473258+986314777+982330108+982778043
1120+988750982+998560117+1006398255+1005631375+997926230+992767212+995938976
1110+1003680522+1008860282+1010034571+1009756390+1008181865+1004961206
1101+1002629006+1002812268+1004633773+1008213424+1014083197+1018442281
1093+1016053535+1008806486+1002898699+1000628004+1000636970+1002430382
1084+1005316135+1005375071+999529386+991031779+984785201+981171778+978101089
1074+974816355+972422409+971095760+968750289+963650864+956807877+951276835
1064+950242533+954073706+958748449+959810963+957162327+953731808+951033322
1054+948625808+947313205+948741169+951228300+951224116+949317136+949216897
1044+952101874+955261026+955489417+953064449+951604029+953884766+958478277
1034+961277181+960400798+958196570+957671589+958257358+956825868+953096905
1024+949764114+948211286+948317980+950055146+953314298+957299924+961017829
1014+964134363+967054545+969733367+970122425+965578704+956540754+946218593
1004+936745559+927897684+918991472+910004926+901267392+893446946+887530491
994+884157533+882431903+879951467+875220957+869504441+864644703+860519449
984+856271482+851784066+847072325+842439184+839187265+838348897+839240104
974+840205668+839873393+837625650+833831655+829658344+826075584+822901907
964+819298586+815358925+812584587+812318241+814037237+815797057+816548396
954+817393280+820173893+825188442+830530364+834168772+836403424+839168018
944+843208754+847325521+850538468+853791703+858852635+866239312+874709723
934+882262687+887724393+891853114+896369818+901659499+906281940+908776244
924+909009118+907958497+907107637+907230888+907257307+905945780+904424871
914+904759118+906469028+906875720+904840050+901790461+899431004+898774822
904+900518085+904093492+906884925+906920549+905950443+907423773+911961398
894+916499500+918184843+917263571+915653660+915060598+916766264+921026843
884+926181558+929166534+927897147+924129272+922107768+923836506+927654889
874+931431490+934967508+938099703+939481343+938514285+936216453+933937868
864+932662324+933057360+934919331+937458166+940940508+946352543+952327515
854+954599405+950946233+944781066+941219764+942292978+947408423+955400296
844+963307292+966410796+963668079+960183764+961127989+966222035+971400539
834+974052403+974648095+973716243+970716504+966925078+966442237+971238795
824+977069895+977781247+973147269+967726447+964691383+965393410+970634556
814+978712621+984960035+986606288+986697082+989467176+994784950+998308953
804+996200361+991621613+990244038+990649474+987447166+980700652+975328963
794+973654080+973951985+974355390+975144685+977130564+979170956+978174310
784+971852240+961600490+951303434+943359079+936928642+930036402+922469690
774+915836982+911915612+911916508+915758979+921423493+926655195+931026652
764+934617899+937763364+942818796+951046890+958326276+958577081+952946219
754+949391134+951942879+957070577+959970317+959802595+958121077+956120016
744+955007292+956044284+958658969+960590994+960719624+960954231+963538073
734+966992382+967082459+962102399+955231738+950533385+949539250+951979699
724+957340629+964066940+969024585+969578974+964980860+958083122+954132582
714+955660844+961652552+969068578+974590833+976080960+973334058+969257100
704+967316767+967848562+967387597+963136642+958313246+956622821+957589222
694+959024597+960328533+962623256+966421974+969688836+968863259+961892837
684+950196747+937585421+929056134+929481534+937973404+945051237+944536716
674+940482830+936846933+930318827+917042891+904239756+904592413+916064536
664+929175141+939583494+943123158+935895415+922476026+912183930+909816464
654+913676089+917383295+915382951+910890276+913131802+922271365+928067378
644+926170680+921005325+914580924+906451037+900360883+900684073+907161791
634+914153791+914374590+906832863+897440821+893797571+898466934+902762121
624+894690870+876377374+861012571+857828673+867605530+885873659+903149745
614+906526768+893730686+876134279+863142920+856305492+852454593+849839968
604+850240443+853062718+854681116+853163674
##END=
