##TITLE=<SNM>
##JCAMP-DX=4.24
##DATA TYPE=INFRARED SPECTRUM
##DATE=29/4/2025
##SAMPLING PROCEDURE=Instrument type and / or accessory
##ORIGIN=Admin
##XUNITS=1/CM
##YUNITS=ABSORBANCE
##RESOLUTION=4
##FIRSTX=4497.3318
##LASTX=599.83466
##DELTAX=-1.4281778
##MAXY=2.1230299
##MINY=0.38705832
##XFACTOR=1
##YFACTOR=1.9772257e-09
##NPOINTS=2730
##FIRSTY=0.40526944
##XYDATA=(X++(Y..Y))
4497+204968730+203706745+201615409+199336372+198102000+198439511+199540624
4487+200374119+200777874+201126176+201563634+202032262+202631075+203431787
4477+204139681+204426923+204484200+204753204+205263403+205704644+205947738
4467+206002920+205735121+205099351+204360588+203755792+203260454+202821956
4457+202496444+202348867+202507282+203133602+204077626+204854267+205183593
4447+205285650+205477467+205675719+205365898+204073406+202094935+200628412
4437+200679675+201909464+202930646+202790696+201845405+201112671+201139727
4427+201596191+201815350+201476001+200669862+199640511+198763440+198560515
4417+199337985+200717402+201673198+201352057+200002831+198700617+198106854
4407+198083431+198452684+199299263+200393216+201074959+200893980+199994089
4397+198891740+198077974+197748136+197783542+197957181+198097433+198142079
4387+198187448+198394518+198765068+199182147+199640074+200136873+200388875
4377+200102115+199457452+198828570+198229848+197588681+197190579+197305705
4367+197823365+198600111+199558907+200313557+200411424+199993923+199687071
4357+199918046+200578823+201165547+201221542+200803905+200410475+200426512
4347+200789224+201126071+201221150+201380439+201995877+202738634+202808376
4337+201968022+200634065+199147585+197628896+196349622+195758286+196166608
4327+197527682+199400205+201116017+202066659+202031509+201401104+200883323
4317+200844752+201147685+201510955+201693215+201583364+201389619+201452095
4307+201829172+202338512+202758530+202776075+202214839+201449066+201135868
4297+201460521+202018667+202393814+202595623+203024022+203975282+205160531
4287+205948190+206017661+205488862+204597185+203618162+202927948+202758666
4277+202993666+203371405+203725661+203948060+203949085+203796081+203728269
4267+203877384+204032935+203874128+203496178+203432118+204028006+204971277
4257+205604681+205740020+205865139+206363476+206956425+207271883+207477582
4247+207820398+207930308+207264166+206037361+205121357+205136867+205996453
4237+207053961+207468674+206908961+206061749+205856382+206229645+206410594
4227+206301240+206536979+207200438+207548499+207128240+206449753+206372294
4217+207121186+208090155+208618382+208754067+208909618+209000356+208539038
4207+207544158+206796291+207012058+208031281+209008616+209333978+209177688
4197+209086437+209274787+209502009+209500577+209324150+209164047+208996468
4187+208728895+208560743+208835581+209493101+209981550+209885446+209441100
4177+209276927+209765421+210699709+211461804+211486644+210785202+210040922
4167+209988680+210675818+211438607+211639211+211350160+211224483+211743394
4157+212689378+213413114+213567851+213451022+213621751+214269218+214968023
4147+215088395+214437446+213424373+212686590+212606493+213055210+213575493
4137+213915339+214219523+214596735+214896081+215071121+215291591+215560460
4127+215633925+215326997+214534681+213210988+211783699+211240898+212287131
4117+214484895+216577241+217733701+218192019+218478161+218433878+217542804
4107+216010292+214914530+215169954+216635663+218326077+219388965+219737569
4097+219696074+219365663+218700681+217989682+217707384+217860961+218010272
4087+218039377+218282893+218747136+218961742+218793108+218719763+219058735
4077+219496751+219592373+219295017+218866256+218570528+218468862+218466691
4067+218563654+218815762+219063936+219189763+219521109+220302271+221005915
4057+220992018+220536563+220407660+220845299+221566578+222302221+222901545
4047+223296558+223555524+223658772+223295201+222264900+220979417+220245010
4037+220539984+221583595+222626768+223142921+223168680+223052183+223088207
4027+223379458+223813208+224128908+224160305+223970086+223717421+223464710
4017+223149086+222791710+222578791+222533377+222352473+221968343+221950135
4007+222729806+223736669+224043159+223672745+223535612+224134364+224934428
3997+225171026+224880317+224760549+225238733+226138715+227060748+227569545
3987+227222223+225999216+224604605+223874931+223958329+224418863+225056639
3977+226118155+227583126+228810428+229205110+228842609+228231678+227833123
3967+227859938+228227533+228670070+228982861+229075800+228916857+228645472
3957+228563762+228822426+229246379+229566435+229779579+230162277+230769967
3947+231168733+231098147+230972365+231253473+231769233+232034771+231889032
3937+231551010+231584818+232648460+234619816+236222898+236217713+234823917
3927+233394925+233045688+233776840+234702792+235262776+235837623+236889297
3917+237959239+238016019+236699139+234668471+232869925+231943535+232252920
3907+234212639+238197194+243673126+248699708+251235224+250683213+247592596
3897+243096441+238957044+236987240+237858900+240121538+241176211+240679593
3887+240843449+242788745+244983871+246118461+246936040+247226402+245263713
3878+241805757+239995996+241283967+244545811+248525255+252383002+254096824
3868+252797640+250909018+250503756+250507479+248972827+246275580+244075524
3858+243734276+246949651+255216824+264608171+265708395+258626109+250694668
3848+245973340+245147396+247208692+250401351+253500725+256669962+260104058
3838+262152270+260958806+257568753+254398039+252392166+251079130+250222708
3828+250153615+250854892+252503464+256255400+261987253+265770857+264753443
3818+261761914+259464398+256906333+253154443+249771173+248749131+250920157
3808+255192315+258790915+260824718+263468457+267168708+268322410+265308845
3798+261338610+258639585+256550103+254411122+252905923+252520556+252856830
3788+253701646+255330261+257433972+259221575+260788996+262742671+264537389
3778+264800952+263441567+262057824+262730281+266741424+273141093+278715706
3768+281157168+281099982+280213129+280028095+282008057+286463215+291632672
3758+295428695+298209596+302194603+309342093+319831222+330125400+335569785
3748+337168738+338852701+341351017+341921794+340105160+339237479+342219753
3738+349964126+360746723+370086973+374171219+373669506+372103291+372322932
3728+375301016+380071556+384514504+387467175+389472279+391459868+394108882
3718+397790624+402373478+407851445+414873137+423299585+430653271+434733477
3708+436375930+437959086+441772082+448522132+455720900+459700993+460540789
3698+461333045+463745115+467164650+471008545+475977836+481927280+485505351
3688+483545827+478307246+474089546+472780081+474257969+477742800+483201504
3678+491671421+501452491+505384803+501147900+496202666+495859337+497707775
3668+497347716+495556314+495339447+497005413+498518571+498895511+499744743
3658+502735216+506865193+510116696+513221029+518468714+526028506+532372405
3648+533551580+530302006+525800907+522179577+520838037+522857370+528207550
3638+535448160+542597248+547890754+550656552+552558799+556375895+561713715
3628+563743900+560885555+557179456+556153179+558484760+562474590+565822560
3618+568314214+571622451+576105523+580028430+581839215+581703199+580287200
3608+577865966+575119461+573340991+573543449+575740098+578950423+581556992
3598+582259927+581438460+581213755+583422703+587871711+593085753+597530841
3588+599600939+598374315+594773002+590732769+588041491+587904991+590179899
3578+592874975+594126077+594601594+595983408+598317400+601057755+604956425
3568+610463181+615628870+618265283+618210297+615550913+610302565+604725871
3558+602466700+604745165+609106509+612115099+612841307+612993361+614023798
3548+615704716+617028530+617319133+616378530+614057139+611099494+610214178
3538+613574267+619882112+625457660+627790748+627056281+625056121+623831908
3528+624279510+625221258+624754001+622749139+621112052+621369013+622870022
3518+623557402+622122110+619328337+617163582+617051018+618604481+620009025
3508+620464344+621355387+623865912+626967050+629338905+631648600+634615047
3498+636905811+637302829+636966163+637499619+638091618+636717582+633611380
3488+630954287+629633066+629015986+629082547+630060470+630645174+629610216
3478+628484820+629514292+632223417+633987899+633291174+631286733+629872120
3468+629397388+629393650+630016940+631067032+631613270+632081009+634022988
3458+636728254+636673690+632302941+626961865+624245807+623622396+622622527
3448+621234925+621660762+624149944+626469768+627681320+628956478+630822671
3438+632511066+633515336+634014909+634018587+633160161+631241454+628761316
3428+626955896+626800767+628062179+629963823+632067323+633790746+633845129
3418+631649203+629101720+628781091+630534238+631397608+629442124+626522101
3408+625714259+627432799+629442063+630146747+630731511+632621338+634250346
3398+633111807+630174481+629195231+631690804+635033348+636044310+634907882
3388+633585756+632352440+630586089+629334203+630329670+633201641+635599723
3378+635494033+632812823+629811648+629559812+632887584+637193762+639466378
3368+639854291+640508029+642275164+644233060+645530526+645943159+645661539
3358+645760296+647331122+649326520+648955427+645667990+642486545+642327436
3348+645010032+648123530+649651971+649341351+648250442+647439044+646818828
3338+645944063+645576769+646818346+648776182+649051773+646996386+644410858
3328+642614000+641256243+640109203+639654848+639716888+639518711+638974100
3318+638579796+638709482+640001161+643295652+647654886+649922016+648490040
3308+646108176+646636387+650425085+654333522+655623814+654405329+652323414
3298+650663778+649781537+649743252+650618258+652100758+653996012+656225942
3288+657751249+657396616+656050917+655869621+657469809+659779324+661960418
3278+663741419+664298631+662441843+658370138+654531699+653951577+657083584
3268+660692916+661289799+659327200+658079896+659376458+661893494+662907050
3258+661124420+657491695+653558961+650321264+648618520+649330258+652679252
3248+657813107+662724669+664958699+664279398+663583276+664864403+666094585
3238+664465999+661040796+659225187+660028989+661286121+660656802+657963293
3228+654706242+652232917+651019737+651215623+652678710+654543516+656041933
3218+657466915+658827507+658341801+654845213+650822344+649745242+651686377
3208+653891467+654491907+653745562+652300563+650504429+649225954+649106638
3198+649097715+647424333+644180606+641829793+642318995+644777730+646785306
3188+646972450+645396197+642569686+639506170+637510291+636963872+637306446
3178+638143288+638841098+637786424+634518099+631695869+632390604+636088805
3168+639177945+639071531+636263589+632566835+629294109+626926715+625512525
3158+625063054+625326707+625609232+625424138+625176884+625460554+625682727
3148+624387974+621309988+618029183+616014191+615077627+614403692+614146731
3138+614836704+615797564+615636105+614290707+613155544+612790240+611864770
3128+609191760+605871766+604277184+605443276+608202322+610574117+611333605
3118+610173421+607320020+603650216+600521706+598784235+598267238+598417243
3108+598914223+599407405+599342712+598670888+597959452+597250427+595907260
3098+593846507+591791723+590451751+590434207+592339408+595857339+599426638
3088+601404611+600969971+598306608+594937778+593009545+593120842+593694272
3078+593288753+592296903+591751027+591779786+591839413+591456986+590442587
3068+589128420+588399982+588783313+589513199+589193414+587329994+584614660
3058+581950694+579973866+579260019+580017698+581501947+582301468+581465289
3048+579236445+576715308+575082502+575029506+576433869+578330208+579494973
3038+579427568+578719026+578189971+577853727+577330881+576932839+577316713
3028+578265877+578733013+577887731+575597751+572676763+570826065+571060296
3018+572257800+572421189+571191490+569707000+568530599+567170007+565187814
3008+562879988+560892670+559554205+558765235+558306600+557963663+557619521
2998+557496407+557954258+558884370+559637106+559510796+558132961+555786307
2988+553475889+552121568+551701700+551614941+551612770+551888060+552428510
2978+552766141+552482712+551707608+550868355+550232404+549919372+549847324
2968+549476232+548215724+546229792+544268821+542767510+541751001+541367428
2958+541715851+542297721+542312010+541592616+540818176+540626028+540952203
2948+541289532+541031124+539770556+537860652+536370555+535970041+536221696
2938+536326603+536022132+535339937+534116267+532441378+531163506+530976242
2928+531210111+530561318+528847842+527071905+526095308+526002339+526497451
2918+527358710+528398372+529195059+529052350+527590530+525393881+523452927
2908+522116934+521092285+520067757+518957374+517945568+517439544+517489465
2898+517415246+516561885+515113630+513778482+513075547+513126734+513747130
2888+514554731+515176333+515437876+515348103+514891156+513856438+512073869
2878+509876979+508030862+506995783+506511766+506175703+506188725+507083688
2868+508550271+509111160+507511876+504217565+501115162+499798221+500296256
2858+501384934+501952666+501866179+501628541+501634600+501759855+501420084
2848+500170459+498384121+497039899+496684241+496923206+496995193+496555460
2838+495761093+494840205+493867407+492817647+491598861+490164865+488724237
2828+487667694+487317975+487797652+488793934+489423464+488944722+487607071
2818+486141604+484815228+483673915+483060422+483183236+483567592+483429465
2808+482498448+481254279+480276025+479502157+478547928+477641752+477381897
2798+477513573+476987411+475508981+474050899+473461854+473426674+473174295
2788+472590496+472099876+471791698+471243078+470170437+468858170+467826617
2778+467285564+467035145+466748852+466206533+465378222+464448532+463659200
2768+463063372+462582188+462209860+461895411+461400752+460653684+460034825
2758+459949363+460288892+460524480+460163336+459057505+457535786+456219539
2748+455444978+454925479+454198096+453296079+452590311+452053206+451278736
2738+450245646+449375162+448777646+448154266+447460827+446974397+446771427
2728+446718250+446744628+446680086+446189768+445208921+444084219+443178856
2718+442664994+442583842+442772734+442885268+442656282+441990456+440877993
2708+439428895+437884596+436528225+435646437+435425469+435695423+435916420
2698+435610473+434745264+433654114+432677970+431959299+431513023+431294347
2688+431125291+430792453+430395315+430288901+430450060+430323237+429601793
2678+428714909+428226008+428173344+428215306+428056469+427623970+427085238
2668+426644450+426203269+425497560+424610918+423924684+423523868+423128991
2658+422611120+422112481+421732074+421455880+421260175+421060069+420733320
2648+420300822+419862535+419347708+418594762+417692564+416978446+416625953
2638+416454726+416198097+415773104+415272295+414856768+414672127+414742547
2628+414952149+415173659+415325864+415330838+415181497+414978918+414714180
2618+414194289+413392235+412604953+412052565+411595467+411043984+410508236
2608+410268307+410427537+410782501+410993008+410857051+410386177+409639591
2598+408707278+407888584+407524636+407579260+407716483+407792721+407912942
2588+408029545+407859614+407258330+406478946+405997762+406087747+406571342
2578+407024883+407163733+406973032+406595489+406202420+405912239+405722623
2568+405467411+404920238+404110527+403484433+403485519+403993502+404449183
2558+404490965+404234727+404011469+404017588+404160117+404155022+403819170
2548+403275675+402890203+403038309+403768978+404594816+404866579+404471521
2538+403844251+403298164+402842001+402621817+402919565+403614994+404167141
2528+404233581+403959829+403689815+403671125+403926820+404236174+404345934
2518+404190202+403811784+403290446+402861897+402794642+403064927+403435145
2508+403801414+404159966+404356756+404211063+403823119+403515815+403480846
2498+403596304+403575503+403259909+402798923+402532797+402640206+402943983
2488+403181440+403344648+403533118+403648697+403529712+403251860+403092510
2478+403316311+403989824+404814728+405289099+405248976+405000576+404768455
2468+404427568+403931312+403563023+403577945+403890917+404227462+404407190
2458+404457714+404505887+404550532+404465311+404277473+404215434+404368212
2448+404535459+404538595+404472817+404535399+404740902+404897026+404831399
2438+404622158+404555235+404797184+405176355+405381315+405325455+405194020
2428+405156971+405172918+405107774+404895428+404513212+404018824+403687102
2418+403825169+404354345+404845236+405056164+405147415+405291089+405427257
2408+405517965+405679545+405894785+405943138+405805493+405810256+406194824
2398+406811783+407402728+407902903+408353188+408717437+408928999+409016391
2388+409049973+408952784+408468193+407366884+405586425+403148672+400070535
2378+396409714+392351846+388239987+384455539+381178773+378275632+375425487
2368+372429376+369587732+367572680+366588758+366124847+365939663+366635333
2358+368850039+372551858+377453622+383452173+390073020+395854975+398975044
2348+398440503+394769915+389959130+386244741+384357355+383641849+383516383
2338+383909572+384684887+385371815+385672215+385847331+386325048+387254106
2328+388519467+389743770+390419875+390579979+391065534+392594789+394825352
2318+396769562+397920250+398633495+399556824+400984218+402751443+404485569
2308+405855113+406762857+407374963+407896211+408421016+409079908+410062413
2298+411357196+412697017+413834501+414675804+415165339+415297678+415289448
2288+415515239+416144649+416926957+417422701+417415888+417051760+416599666
2278+416162856+415691892+415215320+414865752+414636675+414289338+413613172
2268+412723154+412036919+411957245+412583097+413682929+414833918+415611885
2258+415908970+416113207+416680155+417527035+418172151+418387119+418369635
2248+418406774+418648602+419022980+419179586+418755709+417830119+416882794
2238+416243707+415821729+415429384+415066431+414732991+414293046+413771859
2228+413482370+413585589+413812284+413853252+413753440+413740959+413923642
2218+414280143+414708904+415028448+415163138+415331803+415821488+416594330
2208+417344956+417910216+418375694+418838760+419347105+420023030+420970295
2198+422057255+422995838+423660759+424197079+424797911+425502414+426268685
2188+427104260+427968866+428640329+428882247+428717230+428358739+427962867
2178+427669008+427762308+428450321+429473644+430278712+430662676+430920964
2168+431273095+431541451+431573405+431601862+431909649+432400540+432824266
2158+433267708+434067471+435250354+436404598+437196312+437730733+438294787
2148+439002937+439849968+440914861+442295922+443877993+445326338+446423758
2138+447366712+448585167+450251465+452116000+453865017+455473465+457112481
2128+458873014+460754371+462836225+465242658+467887210+470390319+472360063
2118+473688639+474472606+474821933+475005067+475550070+476740881+478156277
2108+479208780+480035553+481315264+483297728+485533748+487542288+489298239
2098+490947233+492365915+493217257+493309985+492681931+491358510+489287568
2088+486571239+483522615+480353318+476983402+473353601+469782313+466740622
2078+464345193+462330714+460494938+458922031+457715634+456723211+455710530
2068+454760492+454211782+454103740+454047760+453850728+453782448+453969803
2058+454090898+453952439+453823145+453934322+454124480+454204487+454353165
2048+454935819+456044182+457383701+458641315+459829926+461183885+462909690
2038+465200966+468277113+472166799+476568659+481096919+485580232+489996683
2028+494240549+498136928+501596918+504572499+506970521+508775700+510071719
2018+510782793+510684097+509873904+508908883+508226869+507679907+506792421
2008+505308956+503379337+501326000+499368857+497581224+495988783+494573598
1998+493266816+492189413+491791521+492365945+493524561+494603140+495456442
1988+496319631+497159698+497775361+498308456+499162873+500506040+502093446
1978+503562833+504819151+506067661+507520317+509276840+511437073+513978709
1968+516511542+518515380+519931680+521256036+522943767+524903593+526702200
1958+528200134+529727611+531627025+533940338+536507898+539067440+541347773
1948+543379285+545628508+548570537+552094618+555420702+557839222+559521347
1938+561232893+563440636+566031047+568630682+570942909+572966101+574951429
1928+577076332+579351480+581734188+583917875+585396335+586339470+587700001
1918+589750022+591342554+591529698+591021322+591205874+592593958+594578503
1908+596310487+597450775+598092695+598386735+598491702+598680655+599238891
1898+600230681+601352519+602117132+602460671+602953009+603980733+604975718
1888+605014968+604075088+602963620+602244889+601809406+601301754+600631316
1878+599985718+599507307+599248055+599537573+601020254+603839892+606586035
1868+606750872+603514320+598907470+595257683+593167749+591900790+590662529
1858+589259734+587828602+586339772+584635943+582960330+581977403+582091534
1848+583262630+585330859+587456546+587594733+584689542+580486583+577118536
1838+575016062+573403875+571791267+570870138+571617447+573426303+574052307
1828+572572882+570460218+568566713+566127693+563100955+560830690+560074277
1818+560114009+559854938+559123184+558725443+559364710+560571378+561029772
1808+560238450+559194267+559296460+561184178+564286400+566988591+567883855
1798+567380363+567364748+569311912+572976290+576121862+576407823+574544946
1788+573270873+574036933+576295079+578887178+581316973+583439585+585003900
1778+586335250+588670267+593214354+599728455+605502362+607391707+605887321
1768+603653412+602173504+602133230+604057664+607107494+609127369+609572318
1758+609957820+611007791+612525320+615320902+620604521+627461136+632515708
1748+633759154+632793470+632111456+632879988+635085982+638066537+640830044
1738+643430524+647732662+654780521+661017886+661337429+657404092+653547144
1728+651253366+650558027+651356765+653360905+656753429+662633629+671594467
1718+681429468+687162496+686624578+682860901+679373779+678113693+679958001
1708+684660412+690566597+695620386+700138487+706852212+716485960+724225902
1698+725529156+722486079+718224577+714557125+713251700+714904764+718601880
1688+723878685+732195674+743738723+751860791+750001772+743401575+739333065
1678+740228811+745307560+751705722+756719537+760746747+765178572+768725864
1668+769107085+767666427+767693920+770257803+773323489+774307863+773986150
1658+775732966+782307359+794388507+807699837+811854563+807701947+806288420
1648+810393587+815156109+814623255+809459435+803616918+799347940+798378940
1638+801821386+807538799+809291344+804408963+798260709+795452767+796106927
1628+797728699+798136690+797344524+795701649+792583148+788622378+785986870
1618+785446721+785112768+783005531+780171061+778308485+777250375+775871455
1608+773877264+772119836+771161990+770468159+769358379+768023110+767012871
1598+766438537+766214555+766342312+766608257+766640693+766390786+765990634
1588+765208958+763723263+761892039+760527287+759977130+760226977+761800095
1578+765367705+769557702+770753457+768705787+767143582+767581356+767915550
1568+766424790+764779384+764561853+765397730+767916877+774867426+786126986
1558+792120172+787477027+780046379+774188427+769758170+766985318+766493161
1548+768166543+771994852+778552062+787800911+798338967+806597533+806438304
1538+798398112+791423989+790465359+793991671+796898128+796847302+796872323
1528+799876754+805382726+811487450+818089998+825601738+831816494+834652712
1518+835829535+837123987+838047528+838566816+840329248+845209819+854713158
1508+868831244+880939041+880896837+873132417+868257091+870025914+877055264
1498+884507616+887291924+886150431+886400519+890662563+896928867+900921109
1488+900536632+897969192+896448829+897893346+902651767+909119565+914927054
1478+919690479+925087566+932190290+939765034+944490898+944058430+940573659
1468+938220735+939208667+942333559+944755577+946193883+949099255+955136574
1458+962891227+967668761+967459550+965476754+963281431+960700064+959232034
1448+960700064+963505714+964228606+962847154+962235078+963858960+967160084
1438+971923932+978020155+982827714+984025760+983539030+984426576+987072154
1428+989587924+991119923+992503787+994177289+995944786+998441384+1002012310
1418+1004177065+1002105882+997461350+994327053+994759039+997382731+999436490
1408+1000153774+1000580575+1000600049+999186824+997445614+997733324+999927019
1398+1001686376+1002405409+1002910106+1001901374+997999690+993575885+991915827
1388+992818446+993254955+992350828+992695030+995716644+999647750+1002534432
1378+1005140519+1009433613+1014741589+1017604335+1016619298+1014486798
1370+1013961903+1015072949+1016501850+1017884207+1020179010+1024733406
1361+1031586706+1038075364+1040853341+1039409608+1036104566+1033723546
1352+1033983040+1037010984+1041662931+1046212384+1048495008+1047823847
1344+1047680957+1052928702+1063489306+1072583509+1073309053+1066007910
1335+1056241341+1049569277+1049330162+1055174910+1062952956+1068834482
1327+1072331492+1073741823+1072373213+1068708715+1066427899+1068476232
1318+1072446165+1072560598+1066552219+1058466206+1053616745+1053016244
1310+1053464208+1052750963+1052982843+1056989675+1063261888+1066524124
1301+1063973324+1058418214+1053377871+1049164602+1044953383+1041062190
1293+1038055348+1036188612+1035623683+1035264589+1032592966+1026413601
1284+1018210985+1009726628+1001611253+995016965+991686600+991587120+991877180
1274+989255599+983639294+977524561+972003577+965928757+958590415+951074334
1264+944455447+938375925+932090508+925860197+920518217+916193892+912082153
1254+907297686+901687591+895880102+890558199+885282057+878218401+868076881
1244+856219714+845480828+837159800+830467599+824594272+819859183+816526648
1234+813823372+810876278+807884871+805577346+803965401+802553803+801565811
1224+801699055+802558868+802808473+802291778+802413807+803730808+804993426
1214+805371391+805868794+807684402+810657904+814071410+817990277+822946936
1204+828592060+833664177+837582683+841116409+845062588+849269587+853332670
1194+857037323+859887830+861602150+862995961+865048997+867529618+869694071
1184+871896870+875483472+881322131+888911647+896792790+903930302+910742966
1174+918422918+927027555+934735362+939709867+942476811+945472258+950058850
1164+954852904+957678872+958254714+957856430+957139327+955478968+952544776
1154+949437971+948245954+950962253+957624188+964924487+968779505+968845826
1144+968289820+969097843+970362631+971262055+973293446+978795922+987835621
1134+996704274+1000449382+998156689+994192483+993602413+997400878+1001541617
1124+1000697600+994528485+988922731+989352788+994935330+1000125015+1001498388
1114+1000482783+999428712+998623704+998047622+998730239+1000507322+1001246431
1104+1000000333+998905083+999858227+1001360864+1001066040+998892422+995784110
1094+992892062+991037324+990158761+989268441+987217998+984242929+982211418
1084+982638339+984804783+986381337+986041596+983704227+978605341+970354492
1074+961220377+954769039+952918943+955177270+959229080+961689141+959894574
1064+954192354+947751024+943051808+940252790+938962920+939426438+941607713
1054+944452613+946705394+947666737+946715221+943801830+940246941+937549634
1044+936333320+936617351+938423434+942110482+947871546+953970603+956489267
1034+953615548+948039819+944166833+945256717+951020916+956678099+957004877
1024+952334420+947385840+945524108+946399235+948123322+949977336+952029528
1014+953295944+952059613+948087268+942653343+935936483+926789888+915779330
1004+905767978+899197504+896022992+893715468+889097464+881285233+872961974
994+867369484+864696896+862763298+860209061+857623896+855648515+853466879
984+850044088+845604365+841154996+837405848+834438859+832050182+829959465
974+827901907+826044637+824707318+823094770+819613919+814154732+808570321
964+804463406+801797390+799801812+798288021+798005496+799953987+803976193
954+808320655+811412870+813605238+816417521+820699461+826188733+832321975
944+838593464+844290801+848659199+851617446+854037716+857328770+862795071
934+870954579+880805858+890271092+898521399+906859610+915477814+920628912
924+918090894+909233937+900172111+895536865+895139485+895569844+894503654
914+892943620+892850530+894083485+894654021+893347269+891410536+891431276
904+894476765+898882543+902228825+903903895+905256648+907876120+911760560
894+915058006+916621959+917717089+919190183+918854844+914928923+910737298
884+911640581+918316021+925555908+928524345+928272749+928292404+928715407
874+927527309+925505384+926136813+930664863+935210879+934355105+928334367
864+923301259+923566057+927433496+931020038+933310199+935382769+938080920
854+942280985+948015582+952088432+950360668+944128609+939365605+939603875
844+943130367+946263520+947795579+949853317+953931896+957875120+958923041
834+957505174+956705592+959047904+964667526+971681983+976814030+977390474
824+974417154+971730880+972516896+977204717+983091126+986872771+988235773
814+988916642+989177522+988357321+987387838+987682481+989332772+992108397
804+995579662+997953447+997756235+996246061+994672461+991677797+987015902
794+982631346+979401306+976985679+974363796+969791553+963160186+956477812
784+950383699+943438455+935421234+927874526+921966773+918016434+915367842
774+912360216+908741358+907384505+910950970+918400610+926658151+933590191
764+937888953+938984263+938658449+939544368+941938411+944962617+948388603
754+952333878+957115512+962551305+966495977+965391201+959042297+953236075
744+953238426+956460086+956716565+954557356+955785367+962354756+970903986
734+978679198+985563306+989694700+986452903+975068479+961842100+953489780
724+952525061+959313186+971954017+983149368+983516963+973036847+962113531
714+959580095+965281290+971120311+969406594+962133366+958357329+962477569
704+969787152+973143683+969637328+962333232+956085015+951822910+948594015
694+947087821+946796735+944854515+941461688+940219750+941723593+942883656
684+941645275+938035581+931041803+920429830+909567709+901730397+898506447
674+901122421+908337287+915370797+918201709+919004547+924455051+933911664
664+940013976+938582302+930767237+921562280+916476416+917229514+920127470
654+919810580+914797247+907301364+900606208+898899244+903843543+911188578
644+916813685+921331184+923855395+920061331+910677791+902236060+897177388
634+891908902+885501577+882688812+887423720+896627110+902559582+900298964
624+890220990+878702600+873982523+879992711+891839809+900702493+905214444
614+909647113+913260123+910590429+899240130+881931253+864484611+857715719
604+872300821+908722728+949925124+967205966
##END=
