##TITLE=<SNM>
##JCAMP-DX=4.24
##DATA TYPE=INFRARED SPECTRUM
##DATE=29/4/2025
##SAMPLING PROCEDURE=Instrument type and / or accessory
##ORIGIN=Admin
##XUNITS=1/CM
##YUNITS=ABSORBANCE
##RESOLUTION=4
##FIRSTX=4497.3318
##LASTX=599.83466
##DELTAX=-1.4281778
##MAXY=2.2548883
##MINY=0.673518
##XFACTOR=1
##YFACTOR=2.1000284e-09
##NPOINTS=2730
##FIRSTY=0.68199629
##XYDATA=(X++(Y..Y))
4497+324755748+325460010+325844937+325143230+323946782+323040321+322581854
4487+322555969+322995533+323572158+323837452+323846222+323845824+323705472
4477+323400442+323674023+325271066+327528235+328535682+327228087+324814018
4467+323232955+323060331+323641099+324574240+326306157+329222431+332664468
4457+335021402+334790111+331996905+328697974+327464743+329148806+332112650
4447+333724735+332874160+330650028+328629912+327415385+326854428+326703374
4437+326704765+326419830+325598064+324660126+324418674+325297320+326624300
4427+327123582+326626088+326419206+327220991+327995955+327652097+326552520
4417+325411475+324127438+322571665+321306417+320974736+321757590+323426128
4407+325386442+326884144+327514072+327420125+327094631+327010732+327090544
4397+326770471+325861711+324745786+323628866+322517283+321992599+322860715
4387+324873565+326545793+326380747+324228737+321696198+321058919+323132508
4377+326328665+328458225+329067433+329106062+329201088+329408225+329691088
4367+329742716+329165496+328223216+327514498+326972103+326117128+325097931
4357+324447823+324098062+323581269+322965930+322900791+323793572+325293318
4347+326497599+326586097+325464069+323902590+322844565+322681449+323360394
4337+324618574+325814908+326250726+325911438+325358031+324958798+324613863
4327+324140012+323745945+323859704+324281812+324240515+323801831+324018505
4317+325161395+326182976+326219391+325356924+324128574+323371718+323911814
4307+325570050+327102777+327464884+326597932+325126910+323820053+323197448
4297+323410660+324413253+325930738+327203365+327555794+327273074+327113392
4287+327136496+326899499+326519397+326521100+326929557+327214974+326875374
4277+325759931+324310224+323521636+323905826+324778880+325091601+324433462
4267+323069953+321746038+321340334+322145582+323599746+324842997+325576010
4257+326399537+327935215+329589023+329957034+328449455+325696666+322946034
4247+321784440+323056329+325386328+326267018+325087429+323457548+322690163
4237+322732907+323074295+323421275+323791613+324429601+325281227+325670894
4227+325140221+324301567+324148101+324785294+325529633+326060902+326582095
4217+326923738+326597563+325969680+326303404+328041310+329836493+330126395
4207+329089884+328086354+327873795+328104065+328061462+327499710+326913662
4197+326950106+327545236+327982672+327675485+326547525+325125292+324387992
4187+324804964+325593977+325478601+324006783+321945285+320828110+321764941
4177+323945817+325033559+323922288+322079138+321472173+322465683+324218632
4167+326026615+327601973+328566221+328387098+326953824+324995355+323707175
4157+323771462+324715955+325273053+324530644+322830459+321428747+321295461
4147+322324621+323610787+324292428+324138621+323723693+324030767+325362856
4137+326644452+326469160+324847169+323148658+322633766+323649586+325553843
4127+327011129+327099598+326181869+325263431+325003388+325509141+326382450
4117+326921837+326713592+325874966+324679938+323420423+322425550+321772320
4107+321389522+321589081+322834631+324855684+326603297+327235353+326798911
4097+325892734+325033843+324487247+324339117+324320754+323859846+322869485
4087+322119215+322223720+322757856+322964936+322787941+322712784+323100095
4077+323949932+324912535+325507807+325702995+325958412+326341835+326087213
4067+324519376+322198999+320718525+321333409+323717137+326043617+326685295
4057+325776506+324727110+324516141+325013918+325569681+325618244+325051071
4047+324389667+324197033+324254707+323939658+323284498+322818652+322624088
4037+322504625+322704837+323458400+324382458+325081639+325624744+326047108
4027+326149598+325907266+325476784+324880689+324192123+323773562+323852409
4017+324142283+324170467+323750771+323031636+322336684+322043348+322455182
4007+323704649+325647223+327707983+329038426+329204181+328559495+327743830
3997+327113534+326621575+326031327+325389592+325265673+325970077+326773991
3987+326821135+326306725+325823139+325357037+324780924+324501836+324882903
3977+325707962+326635227+327492870+327934392+327499909+326222911+324631857
3967+323204033+322426969+322937121+324688623+326402801+326869811+326488148
3957+326488829+327200556+327904449+327873086+327041357+326003512+325557647
3947+326018186+326957031+327662315+327685702+327028783+326032207+325072244
3937+324454692+324461674+325206722+326539152+328097196+329279793+329464707
3927+328695193+327888185+327940920+328738448+329394403+329291941+328582797
3917+327868828+327440844+327043031+326588850+326443048+326662049+326738938
3907+326619588+327184377+329006836+331114087+331998551+331466771+330424584
3897+329612212+329193907+328990175+328793000+328642798+328577319+328453513
3887+328575474+329632619+331490528+333010681+333485156+332785662+330851092
3878+328354770+326663071+326687139+328260851+330580604+332680589+333603030
3868+333376961+333242171+333918760+334542670+333922308+332315275+330876779
3858+330171410+330199395+331215499+333272654+334924163+334941902+333874766
3848+332482307+331127086+330205043+330084331+330656386+331436175+332028296
3838+332273524+332165045+331768168+331294374+331070605+331263153+331912835
3828+332935637+333754934+333774774+333534145+334260119+335909443+337156951
3818+337604888+337653196+337192117+336152116+334978317+334069785+333695671
3808+333920122+334110798+333671375+333380651+334416282+336605956+338904224
3798+340895418+342230402+342109775+340635942+339182687+338808347+339430753
3788+340606850+342197024+343984599+345485680+346604699+347830438+349656018
3778+352267461+355681597+359683115+363759479+367485343+370867407+374218306
3768+377629264+380587402+382498784+383625779+385017500+387401711+390283329
3758+392159488+392291581+391833398+392565333+394971256+397782003+400098038
3748+403099091+408426255+415719864+421691686+424377208+426021025+429150539
3738+434043446+439396268+444166960+448406240+452285372+455416645+457523300
3728+458972099+460284235+461792950+463904431+466512780+468293033+468055980
3718+466238716+464164190+463209535+464738771+468497133+471037988+469721907
3708+466537813+464337438+463557366+463399245+463562390+464201797+465610917
3698+468255710+472004110+475664978+477882127+478267338+477697525+477316855
3688+477211215+476860460+476477974+476713948+477429195+477720856+477574231
3678+478286411+480183005+481226924+480114887+478069680+476469743+475967623
3668+476799267+478563087+480318732+481052427+480583316+480149684+481433948
3658+484646992+487299477+486267536+481695240+476947652+475966431+479457712
3648+482480705+481273415+478061620+475979260+475860223+476691469+477325314
3638+477879516+479246033+481279830+482339189+481382291+479530372+478777774
3628+479451127+480214397+480761844+481659762+482650604+483012315+483134644
3618+484196104+486016575+487235218+487379516+487350225+488149825+489619145
3608+490762403+491137226+491250700+491938586+493734818+496217460+497866443
3598+497446491+495676995+494816202+496308682+499356709+502191695+503975836
3588+505140212+506195143+506752353+506529549+506336659+507333406+509608399
3578+511784053+512317025+510961293+508742384+507093344+507219648+509367146
3568+512235566+513935979+514104970+513824888+513784698+513830735+513452904
3558+512342399+510941538+510271024+510853268+511905588+512002430+510963961
3548+510560641+512478523+515959160+518342689+518034849+516056399+514731888
3538+515347057+516720159+516510297+514218557+511474340+509685430+509239366
3528+509937299+510676500+510068825+508485349+507531291+507096580+505386517
3518+502144296+499648257+499806236+501969060+504035270+504996651+505798635
3508+507429056+509045966+509035578+507443928+506061744+506078944+507090109
3498+508284683+509172099+509472446+509468075+509867364+510741837+511427111
3488+511588666+511349342+510377062+508140158+505101270+502552156+501264089
3478+500982418+501116839+500996099+499772971+497387966+495266240+494870356
3468+496047334+497574441+498593723+498821183+498262666+497439282+497065027
3458+497198142+497204329+496375666+494745018+493196681+492125174+490892680
3448+489403322+488953852+490439407+492728422+493663521+492342359+489924203
3438+488174177+487890860+488947722+490865944+492676878+493183057+492204475
3428+490742762+489481602+488147043+486565158+485386307+485347196+486303298
3418+487295276+487464267+486943614+486632936+487008156+487478402+486988174
3408+485153171+482611947+480512246+479913880+481060033+482965313+484310146
3398+484661581+484241346+483227399+482123877+481842376+482548256+483190956
3388+482806596+481800540+481656923+483325660+486081231+488333859+489373180
3378+489694302+489796196+489726488+489893606+491099818+493114825+494167712
3368+493171306+491593281+491302584+491773341+491469986+490921971+492078796
3358+495246655+498580213+500297485+500132013+498861089+497508706+496868050
3348+496950701+496944911+496239542+495277252+494983263+495762654+497304918
3338+498797568+499308515+498692949+498020334+498248248+498828676+498523164
3328+497221700+496058516+495926139+496628727+497284426+497134224+496257026
3318+495428248+494982014+494337158+493018721+491446542+490190206+489244265
3308+488547184+488395450+489059777+490414884+491872510+492691978+492669215
3298+492305405+492082600+492050981+492234448+492837128+493916809+495134203
3288+496083437+496824908+497566153+497970664+497565699+496555158+495350196
3278+493983849+492933345+493438218+495830830+498471961+499349386+498099295
3268+495942828+494367300+494167145+495290535+497189911+499017819+499676242
3258+498600308+496596030+495058023+494540208+494622348+494707950+494414018
3248+493617143+492716785+492506014+493342852+494721233+495780138+495867387
3238+494735254+492874877+491526922+491485540+491992910+491637842+490236357
3228+488905829+488418042+488526010+488812676+489070335+488787075+487543285
3218+486195727+486266627+487843518+489254369+489082767+487552254+485736040
3208+484370714+483597738+483146111+482606498+481922018+481481347+481600669
3198+482128986+482669734+483061417+483410014+483720862+483712177+483104842
3188+481891138+480302156+478762618+477626682+476716106+475435843+473644862
3178+472062578+471436028+471673081+472134756+472403910+472464223+472460902
3168+472484375+472341808+471621567+470211709+468522678+467131837+466397148
3158+466177976+465776928+464627340+463150158+462351580+462611794+463327125
3148+463618957+463104547+462054611+460992442+460181149+459442572+458490188
3138+457419476+456717258+456695119+457026318+456991123+456185932+454955567
3128+454078624+453982548+454406332+454892841+455334647+455789027+456053441
3118+455864753+455279017+454472350+453497884+452557846+452051526+451981307
3108+451770849+451058498+450116161+449225169+448370052+447718015+447639678
3098+448094115+448508049+448277297+447159981+445398886+443653544+442637241
3088+442653675+443369205+444090866+444470656+444725959+444930854+444629372
3078+443648860+442611810+442067854+441796998+441337707+440644912+440046092
3068+439919760+440352059+440911313+440982923+440417963+439599290+438825462
3058+438031539+437268780+436939710+437139128+437281893+436918821+436286282
3048+435614887+434718360+433603173+432715359+432354728+432426394+432736731
3038+433104629+433373215+433565736+433798077+433960767+433737764+433016955
3028+432057645+431119537+430152423+429099734+428256765+427906067+427869595
3018+427921508+428263009+428989552+429570661+429468256+428850533+428234882
3008+427794835+427363814+426844097+426284275+425698824+425112662+424714282
2998+424657459+424749505+424650420+424339572+424114525+424170922+424383253
2988+424504561+424394975+423991401+423273998+422390470+421611050+420981918
2978+420244789+419325186+418596600+418408110+418618569+418769310+418593280
2968+418234351+417929378+417569456+416833859+415746316+414775569+414369070
2958+414608451+415244509+415842335+416068972+416025717+416036474+416056228
2948+415642918+414647278+413620673+413265151+413659245+414281879+414590740
2938+414283212+413341841+412177295+411318858+410837770+410586895+410773795
2928+411546885+412312426+412261677+411387403+410379672+409740378+409402623
2918+409049655+408527071+407893312+407269969+406879110+407035215+407717850
2908+408340596+408392849+408100251+407997392+408064290+407761616+406905818
2898+406037702+405675680+405586132+405119122+404101855+403085297+402738488
2888+403197636+403965788+404380262+404221034+403813656+403527444+403394471
2878+403293769+403199623+403079195+402812085+402401045+402064142+401989523
2868+402086763+402019581+401473326+400471158+399394968+398593467+398173544
2858+398173913+398557080+399003286+399132654+398959832+398767141+398598774
2848+398247481+397698671+397282239+397326346+397802041+398344635+398548565
2838+398287415+397816062+397472347+397278180+397027390+396699512+396449857
2828+396231083+395817120+395181857+394527804+394030736+393753635+393656282
2818+393611012+393534406+393461888+393440261+393458539+393457432+393325850
2808+392981822+392474906+391927373+391459540+391186583+391123630+391152779
2798+391227568+391397751+391508699+391234465+390524044+389663591+388910057
2788+388371806+388106114+388036548+387923869+387616029+387184668+386800932
2778+386689445+387049764+387708670+388077164+387806875+387212994+386742350
2768+386382400+385909514+385394764+385119423+385133416+385142470+384834573
2758+384220427+383612155+383264353+383091218+382801969+382264740+381618208
2748+381037780+380558537+380192201+380065415+380268124+380615814+380753101
2738+380540713+380181529+379902242+379718492+379591763+379532982+379437048
2728+379143315+378757309+378560162+378594250+378651640+378561553+378261944
2718+377802115+377414775+377304423+377329286+377174997+376785415+376337109
2708+375892862+375360713+374728998+374120357+373675542+373535417+373807522
2698+374362519+374799529+374829757+374578626+374338053+374184048+374010686
2688+373760634+373426342+372941507+372298154+371736374+371536531+371577686
2678+371439235+371033418+370720696+370681329+370639067+370364237+370058157
2668+370056880+370418278+370952243+371479595+371875365+371953020+371540277
2658+370706562+369775748+369097939+368871246+369096605+369583938+370039964
2648+370214802+370015753+369549225+369040379+368648129+368381019+368194572
2638+368091968+368133464+368363279+368687553+368863072+368671488+368109878
2628+367413591+366885700+366654437+366620832+366656282+366706775+366702887
2618+366598750+366497140+366514907+366595827+366628212+366618675+366637777
2608+366724486+366870459+367023640+367134106+367192007+367179150+367066555
2598+366891689+366711032+366492315+366193189+365885037+365684456+365615344
2588+365590537+365501585+365335291+365219830+365292149+365511065+365719196
2578+365907743+366252196+366797430+367277070+367420772+367324867+367292908
2568+367397470+367481142+367508135+367544521+367413932+366829133+365997575
2558+365618409+366009439+366641438+366832028+366532136+366059988+365470790
2548+364712402+364089400+364014895+364420258+364823634+364942558+364925188
2538+364995095+365141266+365195931+365063100+364794031+364452757+364007970
2528+363489757+363200253+363493759+364277209+365000260+365271770+365256387
2518+365336483+365610320+365849076+365836048+365650567+365534822+365467271
2508+365135646+364511026+364073052+364182808+364634094+365078143+365450610
2498+365746018+365800343+365537490+365168315+364981272+365028501+365102041
2488+365062135+365083223+365363475+365711391+365778403+365615996+365590821
2478+365809595+366021331+366050679+365972371+365856058+365642137+365334553
2468+365128323+365255166+365743407+366329738+366615468+366387809+365818053
2458+365297485+365077660+365102893+365178079+365227010+365307476+365424725
2448+365518218+365626157+365832869+366086441+366302235+366517462+366710777
2438+366701411+366454991+366219386+366181325+366226964+366133301+365858158
2428+365638050+365796085+366351281+366901935+367042884+366779889+366453657
2418+366431661+366876107+367606481+368217023+368478144+368515922+368511210
2408+368444482+368258405+368049394+367946279+367966573+368118790+368496480
2398+369152803+369979764+370825202+371729874+373002133+375034255+378123550
2388+382614217+389134877+398369952+410491756+425035802+441372164+459026793
2378+477519225+496339506+515254302+534183289+552584073+569394059+583739397
2368+595384852+604437199+610797724+614185663+614470796+611364244+604234433
2358+593010973+578888553+562837182+544896937+526483608+511203568+502240400
2348+500769945+506280461+516366510+526846170+534700821+540205150+544633772
2338+548061845+550211273+551853614+554185146+557245831+559597231+559957806
2328+558962819+558201423+557661696+555462882+550498563+543909103+537124994
2318+530351500+523626314+517618417+512705131+508201465+502946450+496333886
2308+488654471+480693044+473163092+466364707+460163807+454249432+448450574
2298+442833679+437565636+432789779+428535768+424622861+420809549+417138378
2288+413933679+411397762+409412642+407731700+406147884+404520160+402844356
2278+401270871+399954648+398939964+398187394+397606087+397090428+396616606
2268+396244934+395991050+395784764+395536471+395138403+394483072+393594748
2258+392666007+391902624+391386653+391069589+390827455+390576694+390356443
2248+390228834+390192448+390292043+390611264+391023637+391183773+390918138
2238+390443635+390123591+390175134+390607319+391237473+391747739+391888858
2228+391653792+391194814+390666241+390217141+389963001+389865109+389754331
2218+389476776+388955895+388258587+387664450+387441503+387531477+387667146
2208+387702142+387621223+387416441+387154667+386961210+386837291+386708773
2198+386651610+386841747+387290876+387797083+388164129+388366583+388492149
2188+388638320+388905005+389347606+389867692+390289318+390587025+390890579
2178+391272270+391701163+392171096+392687464+393175875+393569544+393915644
2168+394256578+394509327+394599470+394577133+394469449+394196009+393783976
2158+393496090+393592676+394068514+394692537+395219293+395543623+395719171
2148+395849760+395971097+396061240+396142018+396285464+396486698+396632103
2138+396665112+396668064+396704564+396767262+396961230+397468459+398231331
2128+398942348+399400503+399625096+399677490+399668777+399857522+400429350
2118+401221343+401905482+402397980+402874811+403447887+404049318+404573974
2108+404942014+405113843+405205888+405467833+405997371+406580126+406942574
2098+407095869+407288645+407649986+408064034+408434997+408849216+409366321
2088+409861005+410189479+410359861+410454177+410479579+410388953+410263359
2078+410375159+410910118+411689821+412349408+412703058+412816078+412876221
2068+413055203+413382002+413779390+414218642+414680146+415030787+415201793
2058+415417048+415974259+416822336+417575729+417989181+418247095+418670311
2048+419307788+420006004+420709897+421444358+422135649+422696380+423204800
2038+423813157+424525451+425202636+425779601+426359064+427072749+427971319
2028+429044018+430211232+431362948+432531921+433865458+435335629+436727038
2018+437940033+439052070+440157637+441386072+442901655+444679099+446449844
2008+448007973+449451294+451015810+452712504+454276566+455586346+456914064
1998+458517492+460242058+461813670+463248675+464670936+465974671+466968040
1988+467702558+468469403+469538526+470947703+472492123+473925113+475201742
1978+476512942+478099880+480042851+482149932+484073603+485683759+487275124
1968+489185342+491261770+493056981+494546112+496211046+498396293+500938084
1958+503448938+505701850+507708967+509612316+511539961+513538676+515682655
1948+518148437+520994379+523960550+526688362+529049298+531110910+532942224
1938+534645020+536450335+538606291+541125206+543669382+545794344+547354659
1928+548627457+550139010+552375516+555334194+558329145+560761720+562953495
1918+565484217+568065972+570018877+571485359+573145411+575150711+577029027
1908+578441127+579583363+580871998+582527509+584445674+586252125+587497504
1898+588080487+588541707+589598966+591282235+592905105+593968949+594631516
1888+595153930+595384455+595205757+595102103+595795778+597450097+599485937
1878+601034558+601519563+601193502+601085988+601993896+603582253+604726420
1868+604743109+604030815+603334301+602998136+602982639+603052176+602930187
1858+602461474+601686397+600763446+599853324+599085286+598464838+597817597
1848+597113080+596674622+596610704+596330169+595404777+594322201+593490529
1838+592544076+591069704+589361175+588041602+587313527+586829090+586155396
1828+585366752+584818965+584324537+583278801+581712299+580323984+579366576
1818+578364096+576973964+575494937+574364792+573661069+573171523+572647690
1808+572015833+571474460+571310805+571532758+571737682+571519588+571036513
1798+570833066+571140394+571848374+572921187+574233720+575250051+575669832
1788+575901549+576384624+577106058+577882667+578760603+579926057+581352405
1778+582750144+584034748+585672321+588036664+590275725+590979334+590554443
1768+590683301+591887185+593461010+595045394+596849574+598635135+599921158
1758+600976941+602298500+603754253+605141547+606827824+609068475+611203654
1748+612400499+612866431+613529737+614966303+616852793+618332557+618956468
1738+619236719+620063737+621810129+623875374+625256253+625985236+626647009
1728+627330921+627973166+628818689+630063104+631590268+633427826+635866020
1718+638717979+640949206+641971383+642400190+642862262+643446607+644164350
1708+645237787+646713067+648178754+649555603+651640602+654895312+657905874
1698+659037609+658883150+658444465+657916659+657704072+658491297+660269592
1688+662257578+664145544+666538383+669383586+671228070+671707114+671959437
1678+672859682+674447415+676336346+678416577+680959106+683904047+686356489
1668+687285401+686904731+686338438+686617611+688330001+691080803+693588138
1658+694944267+695369328+695957362+697973675+701012449+702837973+703205700
1648+703342108+704122123+705551537+707087272+708583896+710155848+711688462
1638+713171746+715129590+717793654+720250014+722099379+724309433+727755045
1628+732218862+736827317+741118113+745004907+748269268+751194057+755032601
1618+760978736+768311655+773950462+776329790+777261938+778692884+780610595
1608+781954917+782733173+784054051+786368950+789133603+791589963+792732029
1598+791788358+789762906+788952408+790314554+792493160+793795872+794398439
1588+795983277+799224874+802444219+803257897+801537503+799762784+800189548
1578+803205275+807639574+811265587+812725768+812649872+811950975+811205813
1568+811076728+812050201+814212799+817345860+820824511+823735562+825254268
1558+825823740+827234932+830100685+833628210+836800156+839276043+841320171
1548+843124237+844346002+844351168+843259169+842163934+841771684+841501083
1538+840675427+839479093+837857982+835875332+834821876+835693398+837471068
1528+838461173+838131933+837572906+838471618+841937439+847573578+853348396
1518+857764302+860938122+863546215+866017731+868117319+869410211+870375964
1508+872487472+876199883+879149365+880130671+881144050+884120723+889497727
1498+896000222+901052584+902629134+901245303+898582942+895875622+894317521
1488+894992406+897819331+901915875+906768990+912056758+916872976+919831597
1478+920471458+920153344+921092473+924212309+927267658+926993651+924485805
1468+923771921+927069036+933373873+939087270+941203944+939732240+936239058
1458+932158125+928127940+924100310+921020892+919950010+921012491+923246329
1448+924410477+922806793+920141196+919561677+921504989+923472313+923295999
1438+921649457+920921552+922104944+924055465+925701496+926457160+925381339
1428+922238116+918718992+917016933+917579423+919122481+920828911+922895064
1418+924592014+924381640+922454393+920418553+919425496+919544817+920101460
1408+920440010+920669059+921510665+922930429+923743255+923671106+924449305
1398+927488874+931161208+932418565+930922452+929325750+929379678+930038272
1388+928943605+925349153+921875895+921675002+924591162+927812154+929631433
1378+931355403+935231469+941391952+947147242+949673536+949745515+951096479
1368+956022537+962751754+967586817+969032069+968438301+967627689+967620082
1358+968808526+970702111+972409847+974409016+978326862+984356045+990407027
1348+993946700+994180802+993067856+993645957+996268866+998389741+998991115
1338+999911626+1001944741+1003762601+1004661654+1005905501+1009124676
1330+1014261165+1019218501+1022057234+1023461500+1024183217+1023185052
1321+1020486644+1019245976+1022675183+1030377816+1038558869+1044159700
1312+1048169732+1052767402+1057563638+1060313248+1060680067+1060576640
1304+1060659632+1060052013+1058965066+1059533289+1063970086+1070770827
1295+1073741823+1068950015+1060330846+1053335966+1049219668+1047189959
1287+1046233232+1044434899+1040435311+1035533151+1032168315+1031506429
1278+1033038758+1034814158+1034409420+1030896767+1025251886+1019006539
1270+1013699753+1010783593+1010444476+1010575263+1008550322+1003874543
1261+998470007+994788647+992752467+990504323+987822037+986085919+985441971
1251+984504090+981951229+977116393+970412721+963716314+958401582+953467519
1241+947002433+939127573+931962227+926722141+922872585+919393537+915288025
1231+909758207+902781777+894809508+886008972+877069702+870206178+867400086
1221+867712524+867906378+866157601+863515051+860944706+857676259+853534360
1211+850335791+849763424+851100025+852471084+853691544+856092784+859598114
1201+862307818+863844802+866234689+870467243+874643258+876488934+876206922
1191+875638302+876215835+878538681+882317621+886557384+891142112+897521653
1181+906439920+915787164+922065605+924091285+923628645+922913967+923706130
1171+927345143+933518228+939942557+945259957+950895472+957779999+963586548
1161+966012708+966631112+968997328+974217376+979449230+980941370+978930734
1151+977524310+979940025+985789262+992707281+999155963+1004213774+1006552856
1141+1005889493+1004932767+1005956023+1006550585+1003379774+998859760+998046650
1131+1000782069+1002855942+1002546570+1002381268+1005391659+1012540260
1123+1022407704+1029681075+1028660658+1021693593+1016898266+1017830697
1114+1021411809+1023774392+1024686387+1026288766+1029980230+1035276343
1105+1040367647+1043288689+1043169595+1040966069+1038715088+1037955678
1097+1038118481+1037297538+1035303591+1033004699+1030118851+1026143105
1088+1021668276+1018289363+1017065838+1017771547+1018729523+1017940368
1080+1015571428+1013745279+1013069088+1012269148+1011551404+1012452614
1071+1015046914+1017578658+1017837282+1014944055+1011377474+1011393142
1063+1015299180+1017707175+1014311459+1006380061+999320923+999014730+1005641655
1053+1010746695+1005460119+992502130+981407756+977554850+980661743+988299095
1043+997899287+1006899580+1013741419+1017378389+1017468646+1015781006
1034+1014093706+1012036523+1008541921+1005327741+1005064349+1005775962
1025+1002313150+993895044+985041660+979640190+977765677+977609004+978783030
1015+981431370+984442215+987474518+991921419+997645999+1000196929+995273539
1005+984219240+971533727+960792320+953648488+949575786+946665245+943940498
995+942407090+942555021+942140065+938253668+930934146+922629174+914911612
985+908070113+902983976+900450529+899266853+897667654+895820162+894618151
975+893774217+892671887+890972212+887680434+882133304+875894655+871526432
965+869964130+870478255+871986289+873092310+871777676+867333897+862294705
955+860080337+861219452+863150049+863795530+863872731+865415903+869449266
945+874747537+878371280+879271979+880451681+884693601+890423346+894355837
935+896401555+898936591+903171359+908655650+914665420+920653846+926337498
925+931756963+936566822+939629211+940465424+940421317+941168750+942752338
915+944382986+946067674+947532453+947655293+946805399+946526794+945747744
905+941515133+934340307+928412733+925937755+924996695+923962370+925099838
895+931275477+940051433+944580473+941838981+935574106+930725078+930196818
885+934660351+941863446+947921524+951159942+953225130+956130959+960001008
875+963272067+964897038+966010097+967497695+967640858+964826081+960633150
865+957597327+956237338+956740735+960508947+966970911+972156786+973969878
855+975544214+980681156+988489486+993452840+991714565+985828998+980592375
845+978061880+976807020+974004164+969495048+966845119+968833957+973586029
835+975989029+974104866+972909611+978242508+988307950+994029578+991897464
825+988574635+988687598+990243996+989385701+985971480+983923265+988233360
815+1000354965+1015284194+1024158127+1023460819+1019103608+1018137344
807+1022078464+1027128215+1029622607+1029374882+1027393083+1023896211
798+1018246334+1011749516+1008261272+1008614808+1008683948+1005219773+999699663
788+996583007+999195471+1005625534+1009116616+1005546629+998650863+994032644
778+992085812+990167931+988142876+986959314+984593325+978415416+969135722
768+959622269+952870005+951430260+956506975+966337067+974913662+976385366
758+971669964+967033013+967921621+974691027+983755920+989766030+988889343
748+984184386+982985271+988094625+994790577+996282376+992348636+989442807
738+993549569+1005958974+1021367532+1028881135+1023182781+1010985111+1001738114
728+999084438+1000476670+1002353907+1003079258+1001143098+996422928+992508488
718+992497362+995320200+997983867+998071513+995064982+994260501+1003181549
708+1020490618+1035567664+1040818024+1038937268+1035225936+1031240880
700+1025700561+1018045952+1010867493+1006563982+1003555975+998617257+991811067
690+987828735+990555526+998919023+1007762076+1012091926+1009877388+1002779422
680+996351290+994244720+994094177+991137600+987145505+983930985+973571838
670+952063423+933443808+933878235+944910281+950107509+950523828+957473238
660+975766848+996895104+1006234969+996947215+975581452+954164600+940798979
650+937960644+945828691+962095544+979416647+986654029+980182528+970873543
640+970316787+974040381+977053610+987191031+1001588821+1004780976+996840268
630+989768642+984075056+973854076+960614871+955407880+959795176+961267107
620+949294456+927743524+907970319+899113756+904241276+915834393+919644384
610+910160221+897826143+895561595+906599601+928254073+959569817+997970357
600+1019383576
##END=
