##TITLE=<SNM>
##JCAMP-DX=4.24
##DATA TYPE=INFRARED SPECTRUM
##DATE=29/4/2025
##SAMPLING PROCEDURE=Instrument type and / or accessory
##ORIGIN=Admin
##XUNITS=1/CM
##YUNITS=ABSORBANCE
##RESOLUTION=4
##FIRSTX=4497.3318
##LASTX=599.83466
##DELTAX=-1.4281778
##MAXY=2.1505129
##MINY=0.58441406
##XFACTOR=1
##YFACTOR=2.0028212e-09
##NPOINTS=2730
##FIRSTY=0.60326886
##XYDATA=(X++(Y..Y))
4497+301209538+300002637+299862168+300828844+301898579+302031787+301307717
4487+300656531+300686946+301374291+302497804+303584562+303708752+302266834
4477+299979930+298363497+298133985+298740263+299349368+299579862+299305025
4467+298709431+298277311+297983725+297318403+296447139+296241168+297016187
4457+298230915+299318387+299959693+299881007+299132266+298232938+297731893
4447+297971851+299048491+300465113+301205342+300674804+299382580+298230111
4437+297388786+296432259+295336335+294634526+294524859+294749223+295570251
4427+297565563+299905053+300376338+298261598+295743575+295181819+296381101
4417+297568598+297983190+298212940+298501734+298261360+297177101+295725421
4407+294782078+295070069+296516511+298360878+300042278+301253048+301319175
4397+299711016+297260341+295770121+296237508+298013873+299546292+299604831
4387+298014021+295538467+293223618+291865624+291795419+292800218+294250558
4377+295645872+296978242+298183001+298765619+298530036+298087857+298091071
4367+298483104+298891803+299104976+298761185+297365752+295174141+293417537
4357+293157431+294329542+296099181+297689782+298705681+299106434+299054830
4347+298631132+297856440+297047644+296653170+296632487+296580615+296498178
4337+296718167+297133710+297301083+297249389+297511310+298190828+298540333
4327+297864238+296572549+295837796+296228460+297142103+297627881+297463396
4317+297134454+296942203+296715399+296288576+295666109+294949331+294580273
4307+295093728+296198760+296871314+296763283+296690133+297342896+298304542
4297+298696515+298239902+297431701+296953095+297224241+298391472+300161468
4287+301655586+302043601+301375898+300344881+299455017+298843234+298505930
4277+298266330+297804181+297052435+296361162+296050851+295914280+295431270
4267+294585690+294140326+294809904+296356400+297775939+298415875+298628989
4257+298977185+299159170+298494234+297258793+296607815+297130169+298096458
4247+298275287+297197040+295611945+294818743+295342346+296381667+296988659
4237+297411761+298366592+299398651+299285800+297959887+296715965+296470531
4227+296965951+297693770+298504978+299161015+299224345+298739251+298349629
4217+298308500+298004290+296996932+295876098+295471357+295829880+296454312
4207+296998985+297385602+297637374+297880665+298355194+299238808+300373659
4197+301194360+301158975+300294408+299138040+298246152+297785611+297495061
4187+297238140+297468366+298491020+299482843+299344309+298431113+298139015
4177+298825229+299451892+299363891+299203304+299805981+301011513+301818018
4167+301422235+300026535+298692349+298355551+299057151+300140844+300858991
4157+300719594+299769941+298701128+298272788+298605836+299232678+299640722
4147+299517782+298703747+297332510+296049809+295636795+296070641+296336729
4137+295679769+294625092+294363886+295446448+297366407+299134498+299989543
4127+299732503+298607234+297130229+296055493+296009305+296872147+297914533
4117+298691813+299352255+300000256+300298485+299910440+299040991+298214785
4107+297671063+297183202+296371786+295226876+294373469+294610391+296081295
4097+297981285+299109113+298819187+297683176+297028031+297544909+298716068
4087+299739080+300344584+300591803+300629836+300584035+300136767+298824038
4077+297141091+296338931+296899943+298143032+299138665+299298656+298538518
4067+297492174+297129604+297780998+298819039+299296871+298856328+298136158
4057+298058037+298640774+298950490+298374419+297419886+297039608+297677283
4047+299074144+300547043+301417176+301428068+300772894+299778988+298815884
4037+298297429+298325434+298448255+298212672+297838792+297867005+298380133
4027+299031170+299572065+300039064+300538889+301018864+301272779+301151833
4017+300671709+299896214+298950163+298174578+297951882+298324541+298989327
4007+299630603+300117899+300401932+300417853+300222834+300056533+300022517
3997+299785565+298891981+297461104+296299320+296215187+297308820+298929479
3987+300279379+300940862+300865538+300259886+299601825+299312644+299328387
3977+299436119+299874638+300888186+301818643+301587167+300161915+298683064
3967+298124075+298555154+299544923+300601832+301290814+301414259+301088473
3957+300582934+300261939+300507075+301455001+302921859+304500496+305528270
3947+305467231+304710128+304226433+304181495+303860976+303124765+302693240
3937+302866921+303277257+303871630+305008535+306352512+306759961+305850931
3927+304666172+304235510+304300745+304072007+303751905+304207416+305483837
3917+306513218+306268409+304789975+302971678+301706119+301237959+301408724
3907+302680681+306177730+311854068+317085639+318830785+316860561+313082010
3897+309239027+306518218+305846170+307360048+309526601+310096274+309378722
3887+309980625+312689590+315120921+315587979+315469742+315319124+313432378
3878+310026605+307947369+308653611+311090418+314125437+317108257+318340751
3868+317062396+315306982+314887242+314885457+313451544+310781982+308499215
3858+307973915+310422358+316692773+323760586+324732291+319391738+313075076
3848+309254562+308801401+311008607+314416404+317737241+320474866+322294830
3838+322367058+320637089+318491577+316895768+315484830+313810483+312280475
3828+311389242+311163063+311989597+314607525+318041630+319096813+317059866
3818+315123897+314847006+314249776+311818862+309107219+308518232+311287491
3808+316226726+319986260+321377199+322787780+325262293+326196410+324143334
3798+321235927+319049911+317436722+316281663+315823830+315953466+316520014
3788+317822416+320031704+322488778+324424777+326285989+329275624+333404573
3778+337143544+339669602+342012068+345689345+351145368+357110233+361598569
3768+364186201+365843822+366931473+367545935+368576744+370719608+373412740
3758+376008229+379261004+384625395+392864486+402741825+410559390+414339073
3748+417219219+422708365+430145237+434810795+435118428+435103101+438285910
3738+445407292+454465418+461796194+465235924+465711732+465542604+466426605
3728+468564767+470692601+471237483+469966419+467679426+464789608+461460348
3718+458276378+456062269+455714489+457991304+462039633+464469059+462947562
3708+459466643+457555256+459015566+463155527+467053685+467768529+465870384
3698+464419419+465285445+468429446+473253390+479167513+484434945+485965430
3688+482951065+478587187+475727069+474766048+474949491+475550709+476965010
3678+480745942+486822260+491154562+491347112+490693753+491032813+489329748
3668+483955446+478296190+475528121+475543448+476423044+476986765+477706608
3658+479335540+481178330+482046946+482882229+485695177+490318446+492816648
3648+489649255+483187094+477939751+475949349+476602737+477893086+478294494
3638+477991891+477954125+478455795+479497764+482087777+487551835+494655867
3628+498578875+497030623+492889203+489562950+489608602+494046286+500568711
3618+505011573+505998783+504768252+502226838+499451746+498303919+499335026
3608+500710192+500502821+499213008+499014775+501361050+505558211+509301526
3598+510876086+510432598+509110286+508155931+508967436+512796402+519426768
3588+525713343+527298379+523894034+519331476+516601440+516191998+516992253
3578+517346104+516396094+515091401+515197764+517142007+519856448+522477917
3568+524448528+524545309+522518213+520539686+520615337+522194123+523185440
3558+522302748+519688600+516254375+513372086+512446718+514137522+518117254
3548+523219307+527290462+527818292+524066763+518382835+514391199+514002946
3538+516389130+519090060+519867578+518318910+515986413+514647733+514652793
3528+515018904+514909148+514202281+512775689+510602946+508654834+508321875
3518+509578357+510724666+510315759+508755483+507587211+507445612+507347879
3508+506535183+506219426+508045997+511273327+513020021+511761218+508946545
3498+506857369+506598692+507709229+508729651+508657869+508079626+507945526
3488+507671374+506257222+504645461+504644092+506066815+506865344+505748975
3478+503150837+500293309+498592922+498804280+499837083+499690007+498125446
3468+497153712+498492987+501503424+503753722+503237142+500009157+495883005
3458+492928368+492111536+492904232+494297195+495909729+497387301+497553006
3448+495747357+493255672+491700308+491090191+490567867+489840137+489218563
3438+489072440+489364151+489415070+488569192+487114388+485960728+485604169
3428+485890077+486476118+487218251+488036780+488593834+488508719+487847712
3418+486982996+486007065+484822008+483626327+482832678+482569210+482498202
3408+482199824+481786959+481826957+482384190+482823661+482833839+482785300
3398+483078915+483676503+484232962+484314892+483560408+482065695+480379295
3388+479134569+478856667+479737722+481311657+482739558+483697841+484556159
3378+485429476+485827908+485544619+485018248+484668177+484787189+485996024
3368+488687609+492095049+494828983+496230367+496618889+496555201+496368991
3358+496067697+495425499+494417099+493392004+492717843+492627164+493277487
3348+494584948+496006331+496737126+496270097+494780265+493091425+492396104
3338+493490928+495776969+497571458+497922213+497365605+496500532+495020103
3328+492761948+490687861+490090839+491324196+493637617+495964131+497696421
3318+498834606+499503945+499481744+498473285+496670225+494663158+493062260
3308+492277212+492179776+491894583+490744286+489427332+489321444+490727799
3298+492537436+493533336+493605594+493526730+493742819+493713059+492845605
3288+491831045+492154302+494621315+498836838+503393920+506228295+505830101
3278+502696873+498878948+496250842+495594984+496658142+498521497+500143971
3268+500831376+500301404+498673572+496486842+494581406+493742373+494145745
3258+495208695+496105969+496399347+496264235+496183019+496268103+496090434
3248+495501447+495139353+495435230+495707359+495073910+493695768+492420835
3238+491753668+491676618+492074246+492788405+493394534+493552294+493553067
3228+493872515+494209134+493691989+492237541+490927699+490603163+490709080
3218+490174197+489052530+488285993+488113294+487995681+487938571+488428813
3208+489104105+488916704+487623141+485858858+484057792+482390350+481117679
3198+480271205+479448421+478233098+476686453+475443304+475197395+475900185
3188+476657288+476704756+476300938+476297932+476989503+477690686+477408439
3178+475841765+473685153+471856320+470595166+469557720+468673809+468402930
3168+468887994+469401062+469006410+467423696+465061617+462678975+461099325
3158+460703751+461103284+461579062+461693758+461304850+460395553+459211954
3148+458215370+457703551+457703551+458043087+458158795+457268664+455395696
3138+453827148+453707511+454446639+454429200+453205276+451880167+451403525
3128+451672678+452185180+452625336+452788393+452465225+451677796+450811830
3118+450185494+449611744+448717803+447661966+447004322+446780167+446267902
3108+444964191+443454032+442848468+443467632+444538499+445143765+444970857
3098+444105129+442703833+441112994+439973947+439890915+440784857+441701029
3088+441776233+441274027+441037641+441222036+441326673+441093948+440632394
3078+440096678+439707413+439575218+439383740+438704222+437587465+436551508
3068+436072664+436232358+436633735+436581744+435592391+433897331+432310093
3058+431394993+430977991+430762347+431002394+432047310+433556814+434657619
3048+434750084+433947924+432816376+431788395+430862848+429910755+429113118
3038+428786737+428872744+429013064+429141361+429518157+430049022+430099882
3028+429262426+427889998+426656313+425876830+425332037+424580053+423446928
3018+422226129+421332634+420908966+420925840+421408166+422280382+423184293
3008+423694564+423659298+423227058+422577926+421725143+420608178+419303693
2998+418042688+417082947+416605918+416608091+416899444+417314482+417814962
2988+418242261+418219137+417595152+416725317+415986605+415389672+414936690
2978+414849314+415100819+415237686+414971480+414463174+413899542+413251362
2968+412504735+411792510+411208225+410645279+409976534+409448973+409596227
2958+410495703+411462706+411751917+411227302+410249020+409347609+408988759
2948+409209848+409518522+409413379+408900936+408373642+408096633+407897149
2938+407458006+406863156+406511210+406504336+406526150+406340683+406010433
2928+405571379+404937126+404282756+404106247+404608512+405246872+405256038
2918+404520303+403549997+402726558+401972550+401055515+400002028+399266650
2908+399367091+400221749+401083460+401300174+400903409+400335671+399913372
2898+399617197+399259895+398793133+398362293+398107961+398032608+398022430
2888+397907733+397562246+397013941+396436620+396080538+396140862+396458821
2878+396494236+395952717+395229630+394867000+394895362+395048122+395262605
2868+395592766+395888345+395894357+395542947+394942086+394200726+393465199
2858+392983468+392869308+392926566+392930048+392920376+393037424+393264108
2848+393488769+393598674+393421302+392828000+391975813+391241119+390853461
2838+390722754+390627431+390383873+389843484+389027932+388323326+388192827
2828+388570486+388849608+388614352+388097594+387753416+387656189+387561878
2818+387392482+387369239+387648302+388012539+388017003+387417778+386438217
2808+385553382+384993352+384577838+384085067+383607502+383415251+383587027
2798+383896059+384031498+383866834+383452272+382832097+382075618+381440979
2788+381250067+381555884+382056721+382322986+382098683+381465918+380717505
2778+380090544+379671757+379420996+379143034+378603509+377828639+377154359
2768+376896218+377067548+377400626+377566897+377435505+377133795+376807919
2758+376417939+375884337+375286630+374742254+374225882+373687369+373238106
2748+373058771+373173050+373379855+373358041+372882292+372069567+371349783
2738+371038490+371012122+370932156+370686425+370475097+370521344+370808502
2728+371100778+371175209+370976856+370528963+369842065+369054874+368509902
2718+368458477+368714148+368764115+368281432+367436566+366697111+366425369
2708+366643869+367049771+367254314+367130481+366911266+366856269+366906921
2698+366782642+366330463+365669337+365030680+364556717+364290868+364277000
2688+364505262+364747779+364669568+364229413+363804673+363772889+364061862
2678+364237865+364019513+363560519+363170153+362937695+362774727+362632711
2668+362450756+362064437+361443190+360921968+360912176+361366676+361760673
2658+361667077+361150616+360527405+360026300+359823989+360069006+360617489
2648+360994374+360856822+360345837+359862291+359648642+359655070+359685753
2638+359590162+359358716+359108402+358972219+358948708+358866956+358585543
2628+358214848+358021673+358100360+358264637+358279517+358071701+357719576
2618+357407599+357347274+357549645+357759901+357770556+357641187+357502653
2608+357400278+357402926+357592559+357898466+358132025+358118067+357719219
2598+356970211+356247957+356012017+356311376+356773822+357062379+357122762
2588+357025833+356823582+356587493+356407621+356314114+356272539+356262450
2578+356340899+356604486+357021815+357327722+357234572+356765222+356253106
2568+356038891+356222661+356589546+356747008+356490057+356035587+355795570
2558+355975084+356433156+356848402+356982115+356792155+356354797+355800332
2548+355326309+355134861+355309733+355739978+356116684+356152367+355935682
2538+355843544+356022642+356267837+356409437+356461339+356423722+356245398
2528+355923956+355542042+355297442+355364343+355621829+355807385+355951990
2518+356257004+356634842+356817302+356755430+356561512+356325959+356210935
2508+356363814+356616569+356619723+356315126+355955353+355704682+355534840
2498+355432881+355429548+355468117+355440053+355325892+355205571+355170276
2488+355251015+355370146+355420798+355479753+355756763+356180907+356303073
2478+355873661+355271937+355061918+355348361+355827086+356262123+356646359
2468+356971877+357068866+356782215+356241350+355786493+355596473+355539691
2458+355422762+355232713+355118314+355264229+355740097+356348547+356711980
2448+356652311+356391819+356258909+356325364+356438751+356486784+356499611
2438+356521514+356493688+356345660+356180371+356237124+356605885+357082348
2428+357387540+357431556+357313109+357176658+357115739+357163623+357339656
2418+357642586+357968254+358157887+358204878+358265649+358411683+358569829
2408+358733124+358979748+359246103+359348925+359315742+359448295+359944727
2398+360638947+361217726+361583004+361954354+362766335+364532373+367677327
2388+372455767+379144909+388314279+400712378+416790670+436421633+459088300
2378+484172310+510977629+538674507+566388945+593202774+617946654+639422609
2368+657457971+673099293+686710780+695991126+697280106+690569209+679917089
2358+666841645+648491776+623349346+593918154+565008719+542287413+530160907
2348+530534875+542924582+563506120+584806965+600267106+608411261+611052135
2338+610834408+610285746+611060468+613329694+615919439+617208597+615934378
2328+611516872+604453731+596169285+587808951+579464984+570870674+562131311
2318+553314155+544137137+534450027+524481026+514460898+504413985+494409749
2308+484660499+475263909+466138882+457288633+448918001+441226738+434224398
2298+427838185+422118843+417191215+413006554+409303474+405839638+402521807
2288+399348551+396421859+393960024+392105598+390796797+389926724+389439517
2278+389164859+388789194+388135866+387335580+386672252+386367982+386435657
2268+386565978+386266232+385339733+384163485+383304959+382950037+382834716
2258+382598389+382063327+381296999+380563049+380153190+380166969+380457430
2248+380768574+380894341+380797471+380625010+380511623+380403534+380224704
2238+380097776+380166225+380315205+380313866+380108400+379779727+379361386
2228+378862246+378335845+377816170+377274621+376709263+376231759+375971326
2218+375863296+375680062+375367399+375132650+375078932+375043399+374920548
2208+374836028+374909209+375108187+375363292+375631284+375880855+376125127
2198+376426124+376841102+377394376+378046515+378677672+379199371+379675328
2188+380239138+380892764+381436366+381643498+381541182+381436099+381581091
2178+381928156+382301321+382636750+382937061+383203059+383533369+384063877
2168+384674262+384993203+384876543+384673905+384806398+385215662+385458090
2158+385285093+384896542+384618104+384566678+384697296+384990406+385476958
2148+386167933+387056964+388136639+389330565+390463214+391425068+392382488
2138+393688759+395485450+397492130+399360752+401167532+403321586+406014867
2128+408992776+411861524+414428652+416763588+419086740+421540748+423944640
2118+425915727+427374251+428686177+430099793+431290861+431727922+431290028
2108+430263951+428931521+427438147+425873914+424232214+422433439+420509017
2098+418618937+416861024+415230217+413746455+412419323+411138765+409806573
2088+408514141+407416788+406523085+405776814+405239967+405018253+405060721
2078+405134497+404984862+404541165+403999259+403641510+403590084+403812602
2068+404240377+404724727+405061822+405230861+405398590+405626227+405851632
2058+406128254+406575016+407134064+407620973+407965717+408291057+408810613
2048+409631969+410605906+411484788+412250938+413095507+414070605+415001776
2038+415760546+416411018+417093273+417921950+418946212+420078176+421129579
2028+422009593+422828597+423791434+425039672+426561675+428236498+429986703
2018+431781490+433465360+434836955+435971240+437169481+438576104+440131260
2008+441820189+443652087+445456665+446969651+448129233+449170041+450380424
1998+451812581+453361250+455059226+456941449+458649514+459696066+460169315
1988+460660628+461581205+462935211+464529681+466146441+467695854+469278271
1978+470975801+472738536+474582873+476604315+478741524+480880072+483125907
1968+485562148+487894942+489820704+491547161+493487416+495722805+498157379
1958+500838518+503661941+506100504+507732561+508847621+510187134+512270180
1948+515183360+518824062+523015865+527208562+530387085+532025333+532950403
1938+534404374+536674374+539218407+541616377+543882984+546186137+548632675
1928+551175934+553738657+556435598+559324197+562083635+564432024+566524949
1918+568549188+570432899+572150309+573806769+575445790+577074574+578712107
1908+580303750+581740638+582931588+583837552+584565609+585334795+586326767
1898+587678303+589328573+590744570+591409773+591647856+592161817+592962311
1888+593617455+594182366+594933636+595657467+595943821+595776270+595411825
1878+595041666+594843462+595138566+596305469+598516900+601369310+603564195
1868+603613240+601621499+599251623+597657243+596707233+595813233+594604129
1858+592970287+591176869+589868247+589464459+589636890+589604571+589020970
1848+588573910+589276433+590761177+590901229+588471416+584870057+581793612
1838+579608072+577961194+576731080+576421156+577520622+579212676+579517124
1828+577847748+575739942+574053602+571901036+568728226+565520538+563379698
1818+562269161+561549556+561146482+561532116+562675330+563715930+563920681
1808+563465824+562986623+562981445+563717894+565019909+566060033+566005572
1798+565150319+564880333+566359720+569287661+571576172+571296008+569369621
1788+568090939+568321284+569507352+571127089+573190016+575341272+576704177
1778+577262362+578469024+581897832+587536227+592957549+595192432+594213436
1768+592097297+590561544+590793675+593188668+596417725+598301316+598649274
1758+598983661+599766834+600687381+602575497+606691947+612386053+616719039
1748+617683691+616419055+615183584+615296912+616864567+619028859+620577765
1738+621683005+624418635+630035007+635609416+636487346+633666245+630748481
1728+629009882+628477589+629117972+630665450+633027766+636903813+642944388
1718+649858847+653924228+653034513+649231915+645317478+643016884+643380794
1708+646723773+651738807+655689731+657635402+659847370+664118633+668449120
1698+670084034+669513826+667357511+663846921+661056592+661078436+663960308
1688+668677382+675478930+684666840+691581834+690497486+684718504+680123567
1678+678950235+680937274+684454351+687750130+690916690+694818985+698008699
1668+697919656+695844170+695399014+697620743+700269473+701108298+701034968
1658+702402694+706849008+715166786+725081503+728681314+725194176+723331119
1648+726111032+729228250+727084612+721462348+717506663+717076388+719780234
1638+724927226+731109758+734731532+733295417+729754710+728456802+731517118
1628+738254383+745907433+752233053+756677879+759607547+762407817+767099237
1618+774441530+781929232+785415775+785000142+783857523+783574265+783860559
1608+784073167+784190066+784518679+785071626+785693975+786504170+787920941
1598+790362003+793841344+797633526+800525755+801865328+802316078+803190258
1588+805174678+807799540+810081860+811502798+812291268+813315084+815888579
1578+820841236+826562424+829225736+828583032+828479347+831018856+835017753
1568+838298593+840638351+842974895+845926109+851055244+861682543+878569037
1558+890234556+886280478+875765375+867459264+863095802+861654628+861927888
1548+863488282+866439972+870668381+875575088+880408584+883294206+880649464
1538+873405499+867252906+864847318+865245571+866003150+865914345+865940951
1528+866848403+868108634+869377020+871541014+874940597+877752176+878462734
1518+878202688+877971569+877634563+877743426+879529701+884001669+892424381
1508+905452209+917445091+918162910+910743598+905211805+905316859+909843407
1498+914619049+915269015+912232210+910119226+911909072+917137905+922779573
1488+925181411+923631671+920875506+919988350+921941522+925301405+928184527
1478+930528928+933612873+938041450+942730251+945314580+944203507+940492750
1468+936645095+934591631+934923697+936488674+937983774+940340972+945676049
1458+953234938+956230792+950259380+941237353+934934768+932450077+932267765
1448+931715115+929409522+926730734+925273489+924918627+925831020+929651712
1438+936554325+942151174+941201581+934897448+927944540+923394362+922536133
1428+924872796+928611885+932225803+934515266+934500088+932913148+932095095
1418+932659351+932130629+929313694+926389026+925851852+927785679+930185017
1408+931424952+931558755+931239128+930666718+930289238+931284364+934092312
1398+937261848+939099073+939109489+936960435+933184324+930603150+931735352
1388+935211598+936648011+934953636+934158975+937156556+942564605+947339473
1378+949780655+950028915+949387699+949416269+950738700+953065839+956353643
1368+960389502+963637486+964961346+966062776+969380399+973960873+976487585
1358+976235337+975774290+977121719+979851933+982670773+985278017+988532846
1348+993117605+998311082+1002563894+1005204708+1006790934+1008275023+1010578593
1338+1013890442+1017057300+1018782567+1019094574+1019066361+1019666330
1330+1021195535+1023556363+1026440617+1029493552+1032928371+1037196242
1321+1041556251+1044677397+1047189289+1050956115+1055198749+1056759024
1312+1055362431+1055076494+1058900698+1065063112+1069960593+1072536172
1304+1073716824+1073741823+1072194880+1069683346+1068059621+1068597093
1295+1070334978+1070294623+1066579223+1061426517+1058879627+1060176464
1287+1063025243+1064306009+1062775970+1058870937+1053367298+1047009894
1278+1040771055+1036059992+1033787612+1033058007+1031601536+1027906016
1270+1022582367+1017539179+1014349942+1013157386+1012540632+1010984524
1261+1008041345+1003807163+998809330+994576159+992275744+990554942+986810198
1251+980718256+974192706+968271350+962432133+956029493+948595300+940110329
1241+931669463+924407463+917519075+909183561+899485439+890572217+883876556
1231+878514874+873052303+867698120+863566075+860573792+857451873+853633740
1221+850086605+848080460+847691909+847749942+846972066+845163173+843299104
1211+842389152+842597831+843619682+845328521+847587093+849791025+851180416
1201+852011385+854179545+859615211+867570865+874492287+877914786+879411374
1191+881952074+885901569+889234370+890881129+892153860+894486951+897358944
1181+899608528+901526879+904130790+907745184+912026149+916891430+923368232
1171+932816248+944947754+956843677+964844983+968407415+970693544+974164553
1161+978405878+982433285+985679365+987110718+986728952+987004652+989644037
1151+992233782+991677145+989434227+989405597+992457699+996176075+998803854
1141+1000799344+1001807268+999359896+994065055+991610125+994833467+999517983
1131+1000938385+1000606854+1003769426+1012237434+1021483734+1024593928
1123+1019542527+1011670321+1007686721+1009533409+1015436076+1023978960
1114+1034012600+1041744932+1042412278+1036308789+1029740681+1027341998
1105+1028107553+1028650501+1026886546+1023472677+1021590038+1023163408
1097+1026153013+1027511989+1027831853+1030837767+1037196957+1042031822
1088+1040068115+1032724691+1027747810+1030557662+1037833828+1040410835
1080+1034529954+1026754291+1024160498+1025360078+1024336561+1020922573
1071+1019447770+1018713880+1013227739+1003609316+996461120+994318851+994005058
1061+992558349+990661246+990830939+994370991+999707259+1002865664+1000590189
1051+994274508+989918725+992978565+1002832690+1011883286+1012307430+1004286780
1041+993852150+985656032+981581127+982781719+988392555+993516393+992903985
1031+987054471+981606067+980963422+984563590+988016980+987392786+983232231
1021+979164707+977324803+977507294+979508855+984074568+990971408+996987164
1011+998067464+993814533+988067632+984181348+980642903+973476732+963097931
1001+954576950+950321162+946860391+940027536+930627077+922249541+916209263
991+911454572+907236460+903329642+898825533+893163509+887761293+884426646
981+882917142+881732026+880432511+879822245+879848673+878750040+875674547
971+872734582+872091401+872290677+870308876+866509968+863347099+860360887
961+855229311+848788042+845003479+846084255+850207015+853954616+855726249
951+856256400+856797681+858028033+860502010+864878268+870958485+877503439
941+883623653+889398171+894716880+898811546+901728119+905023065+910070002
931+916787566+924467758+932788214+940965820+946701412+948089196+946416308
921+944813297+944428019+944651400+945719737+947695883+948408465+945854016
911+941166345+936645392+933189621+930571425+928920798+929327741+932126879
901+935657289+938102637+939452388+940635659+941812740+942812449+943766209
891+943646096+941010163+937454695+937095666+941265030+946737898+950019749
881+950510438+948912903+946269291+945092687+948673153+957475191+967039391
871+971365771+968724660+963256733+960183442+960883226+963120490+964143412
861+963432200+962965319+964174065+966082001+967735545+968963100+969889063
851+971369461+974169195+977867394+980899139+981898551+981762725+983247766
841+987277852+991739761+995213745+997829560+997171797+990390962+980908425
831+975745958+977895190+985155999+992825477+996855623+997615345+999805825
821+1007231387+1017257528+1023838849+1025661967+1025495785+1025698275
813+1026701555+1026823216+1024961409+1023478748+1025649706+1031713435
804+1037298023+1036451996+1028345517+1018114744+1010424791+1005332321
795+1001025642+998442504+1000382700+1006168110+1010553118+1009635547+1005655875
785+1002417355+999586313+994753650+988772476+985266351+984845658+983001529
776+976464968+969732524+969525213+975333717+980070016+978295526+971191018
766+964485656+964441670+973773621+988079477+998591484+1001620968+1000956122
756+1000392818+1000375676+1001527877+1004327611+1005615639+1002277838+997985087
746+997284469+999578575+1003311117+1008078843+1012012565+1011386645+1004872940
736+996366779+991330973+992621917+998763261+1004687831+1005624329+1000852556
726+993004694+985789299+982812194+985143559+991128424+998285548+1004048936
716+1007520777+1008722738+1008887372+1009827084+1010615853+1008985700
707+1005963835+1005478384+1008555961+1010433124+1006705582+999888559+994605146
697+990915875+986692526+984141410+986291594+990642973+990657258+982136277
687+968678769+958193070+955562732+958802919+963306373+967481511+972358457
677+977541756+979359518+971654327+952982510+929228341+909338433+905869747
667+924422165+949211220+963270541+966552691+967253725+970118694+973619819
657+975796074+977828765+982540601+989953842+996248452+997560050+990632795
647+978040956+970420880+974779342+986172851+994951973+997846583+993723644
637+984722332+972619753+960136837+954245718+955565410+957656491+958045875
627+959018681+959831555+955916225+946626594+938320661+934951433+937990738
617+944612355+946303754+938662905+928759913+924074624+922033481+916984818
607+910153688+905396200+903171614+902895557+907604417+921156206
##END=
