##TITLE=<SNM>
##JCAMP-DX=4.24
##DATA TYPE=INFRARED SPECTRUM
##DATE=29/4/2025
##SAMPLING PROCEDURE=Instrument type and / or accessory
##ORIGIN=Admin
##XUNITS=1/CM
##YUNITS=ABSORBANCE
##RESOLUTION=4
##FIRSTX=4497.3318
##LASTX=599.83466
##DELTAX=-1.4281778
##MAXY=2.2640686
##MINY=0.68953651
##XFACTOR=1
##YFACTOR=2.1085782e-09
##NPOINTS=2730
##FIRSTY=0.68953651
##XYDATA=(X++(Y..Y))
4497+327014910+328803888+332207940+334775608+335403094+334631839+333411013
4487+332729310+333302692+334611627+335147498+334174185+332428570+331000881
4477+330494805+331064993+332265776+333000538+332546078+331601570+331421081
4467+332116070+332750595+332947932+333637692+335726872+338583012+340670921
4457+341446162+341545721+341184460+339670075+336841750+334085198+333153919
4447+334329035+336171269+337064274+336785526+336179353+335774701+335670705
4437+335985833+336260340+335436846+333696743+333198299+335447220+338865095
4427+340374251+339010024+336762149+335819760+336271167+336745160+336400265
4417+335592064+334768230+333829827+333038389+333291893+334671413+335938145
4407+336284905+336336070+336783604+337507681+338305565+338901843+338253693
4397+335530384+331964527+330268381+331699772+334530753+336071286+335779507
4387+335336891+336177092+338043891+339465529+339017600+336529364+333364004
4377+331425660+331701355+333315384+334163810+333111121+331231687+330251053
4367+330704862+332265889+334532478+336631015+337339742+336514410+335445354
4357+335138848+334999262+333925909+332293422+331765720+333025951+334629294
4347+334823437+333951039+333857134+335245389+336769583+336843192+335465368
4337+333873331+333096026+333383537+334592462+336249599+337210700+336280043
4327+333737675+331400106+330585092+330858101+331111069+330932785+330465576
4317+329862541+329426880+329635213+330665909+332065217+333080960+333429529
4307+333547179+333807355+333939534+333586414+332854083+332063634+331539748
4297+331569401+332032822+332406860+332395666+332066941+331619294+331708931
4287+333188942+335710929+337519327+337451993+336259860+335229418+334588080
4277+333788302+332626924+331619774+331428769+332262186+333832230+335525889
4267+336507937+336237330+335197390+334559643+334942783+335979784+336975457
4257+337310740+336425904+334344610+332183913+331596001+333303002+336065887
4247+337606731+336886328+334870248+333120619+332577314+333468142+335385908
4237+337344180+338386184+338357408+337766274+336896166+335544489+333863296
4227+332817194+333094359+333948524+334000536+333066232+332308432+332698554
4217+334055319+335496830+336159679+335638423+334138030+332296644+330685838
4207+329479966+328758236+328780850+329813412+331753905+333876384+334988605
4197+334334462+332446406+330740168+330288140+331082321+332286072+333070331
4187+333250481+333096648+332644535+331645498+330375657+329957408+331373506
4177+334234734+336836266+337607494+336350006+334019164+331825139+330693414
4167+331030195+332621384+334696091+336034651+335529451+333340203+331034068
4157+329936461+329846683+329929140+330163253+331034605+332360614+333408102
4147+333986035+334560491+335302772+335925566+336368323+336735860+336693656
4137+335777952+334204968+332785364+332268263+332967945+334344215+334972690
4127+333857106+331748364+330229513+329905310+330357480+331130121+331891936
4117+332165030+331797833+331477277+331929164+332696293+332642415+331752293
4107+331265297+331824545+332647503+332782142+332250427+331757608+331932387
4097+332694342+333125227+332585455+331807783+332045147+333411155+334754096
4087+335124347+334825048+334633421+334474472+333756105+332797463+332738751
4077+333897189+335229955+335621547+334958443+333837177+332872485+332263599
4067+331783501+331320702+331048173+330856773+330373310+329844280+330161161
4057+331633597+333448468+334622623+334987050+335000930+335011558+334761785
4047+333703923+332095802+331086448+331297466+332056878+332535365+332813180
4037+333290112+333932722+334481200+334795339+334814589+334462967+333800966
4027+333274735+333449910+334432721+335888931+337533404+339139009+340207076
4017+340177395+338931496+336879855+334693377+332965147+331912232+331385916
4007+331349592+332160055+333979844+336052912+337137346+336818232+335887433
3997+335363915+335610805+336260906+336605376+336179580+335054780+333520381
3987+331920316+330931767+331224818+332478547+333389954+333120732+332275076
3977+331986237+332511224+333242312+333805800+334440862+335209800+335670507
3967+335653405+335587598+335722802+335727607+335287903+334569734+333877232
3957+333267413+332864373+333193861+334590455+336316961+336882117+335663270
3947+333873642+333247569+334155584+335589294+336576175+336933790+336729895
3937+336111002+335812608+336718531+338646925+340258156+340465499+339432061
3927+337946282+336549491+335475827+334913837+335006159+335587145+336110465
3917+336048191+335446542+334989594+335313570+336283209+337065970+337081687
3907+336738771+336903261+337754090+338594743+339165920+340141212+341657604
3897+342585718+342075033+340824273+340118372+340218016+340209733+339732461
3887+339670527+340467619+341139147+340883324+340367128+340312967+340396413
3878+340286763+340325348+340627558+340744954+340476637+340007393+339371596
3868+338892685+339463946+341233193+342636910+342142932+340305391+338603478
3858+337796181+338253015+340522826+343891629+345368418+344116809+342081592
3848+340668376+340287611+340727739+341398079+341861414+342208881+342604629
3838+342566835+341442459+339677848+338518477+338696026+339872358+341279665
3828+342285995+342332835+341643329+341745800+343653106+345587973+345318808
3818+343907402+343429734+343859319+343782544+342732201+341361670+340554769
3808+340538091+340540324+340531646+342179652+346488893+351276536+353468582
3798+353051634+351517122+349661065+347838166+346401319+345622601+345665568
3788+346612338+348346843+350417282+352379852+354375975+356907913+359953107
3778+362916833+365563452+368206510+371134393+374312360+377482893+380649327
3768+384219283+387992144+390705673+391734758+392365015+394010110+396120463
3758+397068363+396910941+397530229+400490055+405621065+410943392+414790682
3748+417558061+420462255+423490715+425050357+425110256+426048037+429923566
3738+436733366+444050148+449153881+452021440+454326756+456573952+458322592
3728+459824115+461741174+463943793+465744049+466827352+466936691+465708771
3718+463767968+462776083+463822609+466498486+469391345+471149002+471030900
3708+468951952+465785207+463221497+462742812+464541174+467499162+470492796
3698+473315353+476326598+479617070+482797865+485502122+487111345+486310521
3688+482940503+479326196+477443794+477365379+478707246+481302843+484493361
3678+486981257+487538922+486211754+484738838+484555493+485473628+486175232
3668+485904597+484840771+483456841+482601743+483085743+484545487+485648718
3658+485589865+484441009+482682476+481262646+481449948+483872885+487025129
3648+487995276+486092464+483006197+480588405+479830605+480441017+481056292
3638+480744669+480224713+480737545+482389001+484434564+486304246+487300230
3628+486342238+483679364+481046568+479905571+480937794+483906693+487210452
3618+488962483+489277725+489608683+490357268+490855458+491168947+492337646
3608+494772173+497394680+498714555+498202854+496540770+495299931+495910004
3598+498310723+500848088+501805119+501156997+500619289+501939786+505140763
3588+507911167+507720078+505312688+503345426+502956801+503718277+505179264
3578+507247555+509323195+510231945+509552672+508374983+508294025+509704413
3568+511229060+511159747+509631143+508002246+507150936+507373685+508410318
3558+509311153+509176373+508169647+507277010+507151953+507507957+507800584
3548+508365655+510180667+513057188+515068434+514766196+512908274+511083255
3538+509652174+508006034+506200972+505054151+504908177+505399074+506204251
3528+507082189+507480367+506904046+505516385+503917620+502515656+501395577
3518+500393317+499251698+497993503+497015045+496971739+498488527+501194367
3508+503251803+503206970+502009890+501761134+503004743+504639803+505628042
3498+505433730+503911854+501872453+500773857+501361655+503177572+505079310
3488+505820884+504809975+502684131+500726706+499777986+499658301+499391227
3478+498330058+497165316+496978184+497210601+496153220+493765221+492119759
3468+492729832+494885131+496752608+497207661+496491584+495698901+495645306
3458+495995655+495538397+493539362+490990069+490072838+491661087+493783313
3448+493794620+491717566+489518226+488086354+487045312+486293108+486244771
3438+487144305+488692470+490017434+490293440+489605573+488508843+487007998
3428+484899115+482684398+481248286+481070652+482097843+483667605+484699545
3418+484735728+484234146+483528245+482550918+481744045+481952943+483055327
3408+483900700+483853719+483384872+483014339+482515357+481519091+480445201
3398+480130016+480715892+481547867+482157036+482691804+483392334+484136792
3388+484465828+484091847+483302443+482575850+482001903+481468378+481127583
3378+481180557+481647878+482541024+483724140+484861632+485883057+486922404
3368+487890346+488887970+490384179+492214908+493376880+493334591+492622698
3358+492015507+491853816+492019804+492186753+492591038+494152432+496875798
3348+499005713+499048510+497748026+496804960+496909607+497828759+499073385
3338+499769393+499073329+497441944+496348662+496257414+495962639+494580518
3328+493111276+492907353+493564351+493448736+491995381+490309326+489474016
3318+489410187+489527272+489762290+490385479+491024046+490801975+489722376
3308+488829738+488610833+488517437+488428167+489055710+490387062+491278343
3298+491075663+490561304+490972599+492598727+494382588+495092785+494977510
3288+495324015+496507866+497797664+498690584+499168704+499146938+498731007
3278+498580962+499295230+500720431+502192160+503162194+503275322+502162253
3268+499833447+497129020+495121166+494114158+493525963+492601779+491115916
3258+489514608+488522582+488584827+489588104+490866256+491589174+491541232
3248+491392770+491884006+493014997+494175046+494680981+494168545+492803498
3238+491156735+489846866+489347602+489780607+490626037+490942353+490284790
3228+489276311+488843476+489077929+489287731+489142492+489138535+489667593
3218+490254656+490160808+489378753+488562665+488063514+487339748+485524227
3208+482641431+479940679+478811893+479473075+480856439+481927389+482688525
3198+483371699+483418001+482351235+480940055+480217872+480016380+479536734
3188+478892400+479063250+480274464+481121477+479940849+476956628+474107499
3178+472626130+471839158+470728746+469675577+469669754+470491411+470822199
3168+470064682+469051256+468663791+468568868+467729742+465748233+463339627
3158+461587567+460921100+460902867+460994115+461232723+461927486+462922255
3148+463571281+463387993+462311079+460484308+458271286+456397364+455476120
3138+455264706+454937253+454181855+453448139+453130665+453254986+453707863
3128+454045916+453630324+452533877+451587107+451227401+451125778+450967084
3118+450768503+450421658+449594037+448244509+446923164+446302631+446451772
3108+446761812+446579655+445789318+444884187+444546812+444863184+445135345
3098+444825531+444170795+443533726+442936740+442514138+442535452+442785847
3088+442746781+442463483+442547890+443250907+443997146+444074967+443564905
3078+443141398+443036186+442725863+441683860+440043485+438454784+437483704
3068+437144831+437010842+436754878+436337930+435745495+435017178+434513985
3058+434659366+435341607+435902353+435821648+435218020+434625925+434523200
3048+435117076+436176776+436919679+436580721+435356334+434259887+433859192
3038+433734786+433341102+432805853+432546666+432518088+432242195+431466841
3028+430499294+429853886+429729706+429912033+430023860+429743585+428981093
3018+427972982+427049448+426303152+425699044+425409893+425654776+426216625
3008+426515810+426219226+425509085+424752217+424173493+423892851+424044507
2998+424617719+425206875+425245234+424609578+423699076+422844798+421996767
2988+421040443+420090479+419413552+419248214+419655919+420451740+421322045
2978+421960047+422070913+421415612+420062889+418575556+417681845+417629041
2968+417986429+418151089+417878616+417286352+416619545+416101285+415846367
2958+415841674+415963960+415971254+415646401+415115308+414766004+414715207
2948+414704267+414589557+414509192+414495849+414376079+414118334+413867487
2938+413601573+413163989+412643157+412285570+412070227+411817485+411612121
2928+411630919+411690959+411471828+410970585+410321813+409542530+408772772
2918+408347174+408354749+408454139+408261212+407744591+407222402+407012062
2908+407094067+407197385+407182742+407137118+407116370+407021617+406749173
2898+406331772+405937551+405743606+405681191+405375702+404609506+403743808
2888+403272472+403064083+402609312+401973459+401803683+402357193+403177210
2878+403735441+403845656+403517723+402852471+402061371+401449941+401332036
2868+401748335+402274397+402380429+401977020+401430323+401150530+401271572
2858+401592947+401775359+401684308+401542942+401677157+402053767+402154768
2848+401597413+400762471+400258966+399971625+399348040+398437340+397873597
2838+397880551+397992463+397858530+397696443+397720132+397698818+397363733
2828+396745631+395963294+395210215+394874790+395063166+395217112+394814015
2818+394138360+393866058+394250555+395007111+395647629+395790918+395388754
2808+394707530+394045105+393539255+393194446+392949789+392749201+392602944
2798+392536232+392478227+392302006+391979076+391582848+391151850+390683709
2788+390251185+389927972+389583756+389026006+388411693+388202795+388593454
2778+389250367+389696177+389710085+389321036+388665198+387923510+387272561
2768+386848687+386679788+386606207+386447823+386292096+386319855+386382723
2758+386196919+385866357+385705937+385677981+385455090+384922781+384301825
2748+383869244+383712019+383661759+383483757+383180191+382948593+382815594
2738+382583658+382166313+381694328+381290665+381009034+380971325+381311442
2728+381961372+382596152+382785969+382290522+381353476+380547592+380159618
2718+379965560+379715532+379475935+379325608+379087650+378599382+378007683
2708+377583837+377345428+377057154+376647329+376409541+376643965+377270914
2698+377937438+378322670+378253386+377770545+377135399+376581832+376162396
2688+375975151+376219158+376782929+377155214+377018286+376580815+376141280
2678+375697336+375113213+374380966+373681793+373336418+373534207+374004327
2668+374211501+373977982+373634501+373514392+373627886+373865448+374155022
2658+374313972+374096000+373573867+373187250+373233241+373554390+373794920
2648+373731544+373354877+372851684+372471568+372253313+371969619+371473832
2638+370958512+370689318+370624274+370513663+370291394+370133604+370159695
2628+370301910+370440139+370469820+370317853+370074750+370021890+370329216
2618+370780623+370980815+370817343+370572177+370547273+370693361+370691919
2608+370355138+369813924+369296032+368873232+368503604+368202242+368090782
2598+368322040+368928241+369653703+370031670+369790462+369119104+368473696
2588+368217054+368418094+368880497+369342561+369639795+369675667+369393471
2578+368911817+368540663+368490007+368656419+368815453+368888186+368879338
2568+368740176+368529497+368501116+368729434+368902885+368800527+368638497
2558+368640476+368646723+368419649+368030459+367762990+367800840+368057963
2548+368281646+368349912+368369473+368447068+368569128+368721491+368882815
2538+368912411+368673436+368253802+367924851+367896809+368167275+368562655
2528+368871140+368983589+369008238+369174933+369465468+369492181+368998656
2518+368292218+367906194+368044960+368558726+369225108+369889540+370441495
2508+370695085+370392423+369556830+368713576+368386604+368486162+368523024
2498+368282409+367975846+367859948+367982234+368222086+368393360+368366364
2488+368220729+368236898+368625466+369270337+369807819+369952464+369698960
2478+369261941+368933612+368975448+369468493+370143017+370450061+370030483
2468+369173774+368615233+368761688+369259312+369452041+369131486+368620632
2458+368252813+368099884+368142653+368342478+368554796+368671542+368786676
2448+368963152+369004790+368776556+368577128+368837134+369536760+370203312
2438+370444690+370251989+369789642+369156757+368436298+367768163+367293661
2428+367161425+367502531+368161734+368612180+368486643+368088351+368054797
2418+368605593+369379252+369952238+370276751+370531952+370730222+370723098
2408+370590410+370729967+371378230+372220042+372716479+372767163+372787544
2398+373114347+373626190+374108918+374751867+376044124+378368266+381933020
2388+386963482+393765114+402689875+414072937+427992147+444047463+461627707
2378+480387874+500022954+519507424+537347109+552987398+566941180+579200371
2368+589140480+596900357+602842736+605875972+604495944+599019360+590829983
2358+580586053+568268745+553843288+537617292+521264883+507858702+500106174
2348+499349730+505485347+516155666+526900726+534754283+540140240+543956153
2338+546067806+546790385+547542136+549382137+551668484+552927584+552832378
2328+552225019+551522114+550326391+548201904+545098111+541293110+537178577
2318+532955610+528596901+524113927+519523253+514523829+508558441+501321741
2308+493153339+484925800+477465220+470980979+465116846+459490387+453966993
2298+448506692+443105951+437943648+433302742+429248731+425544674+421956373
2288+418523091+415448612+412865171+410778450+409080607+407606334+406333016
2278+405415672+404872169+404432211+403831946+403027448+402065103+401004894
2268+400007130+399283250+398920265+398818162+398756765+398501903+397930217
2258+397133520+396401529+396015872+395989103+396055221+395959591+395671713
2248+395298382+394959367+394811329+394990433+395393842+395657919+395494333
2238+394965671+394369618+393979948+393941476+394253042+394740999+395112324
2228+395129567+394775966+394258357+393846185+393681074+393697497+393703603
2218+393563452+393290584+392930906+392464715+391934922+391518030+391302828
2208+391149334+390916267+390655243+390472125+390397555+390457341+390654989
2198+390866997+390962739+391007289+391168924+391471049+391788184+392054720
2188+392377000+392916885+393643930+394270455+394599887+394838042+395291484
2178+395911932+396466148+396959787+397507022+397960351+398032970+397683242
2168+397171965+396840271+396898927+397296569+397761063+398038228+398068164
2158+397935023+397777459+397771692+398049535+398545153+399001732+399204355
2148+399190702+399192059+399364520+399632356+399837693+399979484+400191039
2138+400530760+400950733+401402479+401818778+402105808+402296078+402539858
2128+402834323+402990870+402944624+402847467+402831072+402914603+403138596
2118+403554951+404076660+404549239+404994088+405597801+406432263+407336377
2108+408097400+408648592+409084536+409519915+409928101+410179175+410272175
2098+410366646+410544337+410771694+411090695+411571698+412115512+412562057
2088+412923091+413326245+413814598+414260804+414434848+414250769+413971258
2078+414011369+414545177+415401688+416206582+416552466+416299724+415833138
2068+415792828+416473768+417608321+418704570+419484023+419999457+420422567
2058+420782500+420964007+420985010+421162757+421824560+422866197+423821927
2048+424427591+424857147+425349768+425920634+426513549+427152936+427854342
2038+428580200+429331866+430161665+431058570+431897866+432556475+433043726
2028+433472094+433994623+434827445+436100029+437562288+438754083+439607569
2018+440569264+442026492+443866097+445657986+447139412+448465590+449926437
2008+451473358+452809148+453926118+455145925+456630460+458255569+459913130
1998+461613574+463388276+465271950+467201362+468900957+470167887+471196068
1988+472237252+473183371+473918982+474768426+476113290+477848644+479626060
1978+481341683+483039101+484601796+485849475+486844781+487959941+489570408
1968+491647575+493764769+495598381+497223717+498845604+500555291+502450470
1958+504714543+507403819+510270954+512986971+515479729+517848336+520052085
1948+522026414+524041505+526488866+529267071+531766275+533583209+534951026
1938+536353047+538054536+540092468+542424044+544934102+547486053+550126877
1928+553071806+556335650+559516670+562068395+563837388+565319915+567192085
1918+569557808+571876098+573836858+575880839+578458853+581258768+583539292
1908+585032901+586071117+586966863+587747221+588381153+588952782+589622444
1898+590518586+591579247+592575739+593514566+594722727+596229000+597558542
1888+598511786+599495049+600669459+601579792+601902891+601899047+601966550
1878+602274555+602881462+603802480+604959760+606304963+607823277+609181540
1868+609695899+609081642+607804790+606457608+605433018+604989384+604978303
1858+604825545+604301462+603838946+603749846+603810678+603795640+603733168
1848+603629595+603441728+603074305+602145541+600391135+598321657+596709437
1838+595734315+594947116+594022763+593290177+593199834+593558042+593661897
1828+593168174+592285430+591132391+589613963+587837508+586227098+585183568
1818+584616800+583911239+582663163+581200084+580066210+579424308+579175213
1808+579210830+579343462+579314459+579038284+578689121+578422727+578164247
1798+577957553+578314292+579697430+581669045+582853009+582328813+580845438
1788+579782233+579944998+581430692+583653042+585691538+587004007+587710304
1778+588264916+589091237+590522261+592643412+594859260+596216336+596602812
1768+596649397+596874012+597781405+599960279+603340473+606729374+608969532
1758+610037769+610470321+610906604+612014528+613946625+615948770+617015649
1748+617211035+617565682+618720078+620446951+622311206+624189368+625916185
1738+627207962+628284792+629682516+631352967+632713887+633655993+634245318
1728+634384960+634572036+635723718+637861434+640025439+641751408+643547764
1718+645641835+647140814+647481666+647529890+648115314+649153361+650278980
1708+651580594+653311821+655132770+656522579+657846977+660005781+662853864
1698+664895640+665250399+664308689+663334698+663513463+665039240+667444934
1688+670471782+674445654+679013883+681584491+680355694+677536896+675671737
1678+675739240+677855134+681345912+684813962+687379368+689186692+690533025
1668+691616357+692799755+694235415+695504634+696116065+696415872+697188541
1658+698531087+700362834+703340609+707643970+710418896+709953384+709406743
1648+711099469+714250469+716119360+715719711+714657694+714566502+716128801
1638+719085093+722356118+724477439+725112727+725623015+727335698+730660488
1628+735131815+740008558+745301232+751504181+758046344+763445869+767463783
1618+771421995+776268321+780827279+783385731+784111646+784408061+785763610
1608+788707916+791964411+793414205+792393797+790487198+789705709+790601060
1598+792497992+794708017+797014491+799267314+801034214+802081363+802853353
1588+803828984+804930690+806130371+807861088+810232918+812694525+815031641
1578+817609203+820328612+822432859+823667366+824393958+824503524+823974296
1568+824222204+826779808+831071692+835049183+837429493+838744280+840251626
1558+842228952+843958086+845360221+846790396+848313234+849985042+851735321
1548+852608397+851878129+850697444+851058762+853693311+857191947+858777878
1538+857754304+856598551+857115511+858596908+858700650+856938612+855598045
1528+856180020+857773187+859021432+860411242+862955673+865965561+868112210
1518+869278987+869670268+869424453+869468776+870947233+873754894+876769474
1508+879203322+880940542+882444440+884548404+887635067+890847012+892516841
1498+892369793+892471387+894310879+897095416+899994890+903316966+907395260
1488+911653901+915319147+918114256+919844296+920350966+920050989+919804099
1478+919873638+919678082+919025663+919085478+921213639+924875380+928224706
1468+930424159+931957399+932918218+932026937+928954974+925875152+925067035
1458+927025534+930126444+931799439+931115530+929057303+926754673+923956850
1448+920029280+916270468+914517814+914352561+914817395+916538898+919451544
1438+920892123+918717432+915445277+915099337+918381329+923623573+927972615
1428+928456049+925096490+921400602+920809242+923831341+928629952+933317753
1418+936358283+935696706+930625538+924223866+921110236+922476188+925089197
1408+926069916+926030002+926368988+926927615+927253824+927287858+926504334
1398+924872384+924334619+926392055+928788364+927931853+924609551+923288036
1388+926450908+931412397+933252794+931294465+929459891+931105693+935887174
1378+940761655+943645016+945529736+948436560+952688813+957302327+961628415
1368+965358620+967860311+968264426+966185167+962863035+961280948+963399216
1358+967800609+971374211+972400329+971531153+970908812+973032168+978494278
1348+984023665+985271175+982456391+979942941+980645789+984061431+988622593
1338+993651190+998895978+1003472857+1006370070+1007326196+1007132732+1007952156
1328+1011993079+1018880107+1025846059+1031399756+1035580209+1036796285
1320+1033914677+1030279451+1030636415+1034634146+1037314263+1036998230
1311+1037914895+1043248556+1051037324+1058046694+1064157378+1070047235
1302+1073741823+1073632144+1071619258+1069534799+1066037406+1059848590
1294+1053105162+1049321475+1049485767+1050876763+1050687483+1050015503
1285+1050691779+1050579048+1045700948+1035536451+1024204384+1017015344
1277+1016948180+1022261602+1027621383+1029080562+1026951552+1023148755
1268+1018487413+1013166980+1008265475+1005690853+1005638388+1006691304
1260+1007906023+1008538993+1007326196+1003724100+999230441+995538454+992336516
1250+989014836+986292317+983959441+979935139+973634609+967312822+962614618
1240+958631587+953746364+947525775+940458795+932995332+925202268+916660788
1230+907094717+897560759+889901627+884902768+881608451+878643452+875872709
1220+874300460+874549216+875577312+874934505+871104854+865491512+860761648
1210+858128173+857511598+859077741+862847691+866984668+868597001+867253324
1200+865742416+866677398+870308610+875325899+880052597+882923577+883725645
1190+884462131+887194317+891906033+896686552+899864237+901942139+904694225
1180+908827697+913394286+917230834+920114026+922494392+924935816+928272139
1170+933183199+939224344+945321517+951034927+956651831+961988771+965698510
1160+966743398+966472367+967800157+972075250+977576935+981521409+983381197
1150+985171447+988261897+992085838+995561747+998244916+1000767639+1003220935
1140+1003685769+1001403549+999619631+1002093846+1008604348+1014946488
1131+1016983571+1014599926+1012028810+1013540114+1017881919+1019053784
1123+1014539886+1009548602+1009375943+1012816122+1015767156+1017837482
1114+1022052195+1028796754+1034606783+1037993479+1038882667+1035629508
1105+1029060096+1023874218+1023286702+1024614605+1021498148+1012987989
1097+1005480994+1004897210+1012875031+1026624664+1040135378+1046563565
1088+1043661038+1037225163+1034299683+1035677902+1037314036+1037532602
1080+1038121927+1038717358+1036242804+1029149987+1018983906+1008672643
1071+1001315240+999780870+1004484388+1011502013+1015785926+1016588502
1063+1016342234+1015823352+1013577540+1009870175+1007842703+1008845754
1054+1009239241+1004774641+996607538+989734870+987589126+989468476+992686809
1044+995597364+997838314+998412940+995633999+990163409+985106544+983541758
1034+987345233+995797386+1004088753+1006837278+1005210303+1004955215+1007402066
1024+1007412695+1001481907+993777603+989842740+989213049+988721756+988153689
1014+988995501+991900515+995801570+997438043+994503404+989493012+985947339
1004+982559964+975888901+967099684+960004944+955026890+950229976+945704770
994+942465745+939119641+934252905+930000200+929116948+930141086+928302781
984+921678473+913901578+909281224+907560569+904810744+898444464+890183795
974+883873089+881722144+883328710+886773354+889797376+890577225+888215403
964+883115854+877173023+872828731+871221260+870923093+869004395+864627651
954+860828529+861354478+866727828+874058602+879708183+881753068+880907751
944+879775460+880751092+883924536+887500400+890296866+892845764+895983309
934+899861523+904351790+909430986+915381844+922617978+931033950+939651017
924+946760342+950266724+949857181+948081009+947767294+949385224+950600056
914+948938707+945342152+943483551+945040988+947294658+946798108+944540989
904+944401347+947239819+949296124+946979530+942048287+938983786+939345330
894+941090521+942013914+942117091+942610758+945061963+951180336+960711750
884+969275165+971675545+968450540+964712646+962726784+960731311+958039435
874+956444120+956857619+959077538+964074362+972181084+980564943+985490080
864+985949600+984469956+983757497+983351347+982660145+983715208+986630173
854+987022416+982721768+978559181+979746311+985639221+991128694+991022634
844+984538477+976396363+973017582+976458778+981563245+981641829+976622731
834+973560435+979146018+992768107+1006469120+1011170489+1005684408+996318982
824+987659343+982005465+980373515+981035657+981492576+980974146+981385046
814+985994828+996506340+1010249302+1020141864+1021755384+1019755162+1020506970
804+1021118570+1014184052+1002671750+996511768+999506899+1008544081+1020225310
794+1031711605+1037592982+1033721552+1023070397+1011263999+999845546+989096021
784+981983529+982178689+989270376+996961563+998269679+992755443+985688859
774+982217586+983316634+985640917+985455481+981951304+977155633+974355322
764+975057605+977421915+978319923+976013392+970554787+963442861+958719669
754+960861795+968696469+975734560+979727202+985278977+994079163+1001435661
744+1003323717+1000276911+994500804+987715992+981766547+978550474+978386296
734+980589932+984258174+988332340+993524438+1000638512+1008979404+1018781849
724+1028349220+1030064390+1021012396+1008367126+996770473+989113773+988869766
714+994247638+996577236+989555201+976854073+967072886+965635643+973454714
704+987157874+999250794+1006460752+1014466955+1024029916+1022741248+1006334113
694+986641480+972837912+966964451+969089277+978367752+991917023+1004469350
684+1008524746+1001993326+990759631+979941132+973588137+976409140+987790958
674+999291386+1003017408+993575659+968767478+942558519+934867219+946647385
664+967263636+987778859+999591250+994356299+973722804+949197300+932801302
654+929679362+934382767+939023248+940891177+941019965+941671083+943850805
644+947948264+955881140+966687201+973437753+968927133+954886570+941263519
634+937142598+943586615+952214481+953290462+947987443+943667348+942001532
624+939465751+935525799+932338504+929372431+922529727+906758784+886022734
614+870544645+866387767+872857112+882866307+886383147+880771275+873006139
604+870946781+875869996+883775622+893115268
##END=
