##TITLE=<SNM>
##JCAMP-DX=4.24
##DATA TYPE=INFRARED SPECTRUM
##DATE=29/4/2025
##SAMPLING PROCEDURE=Instrument type and / or accessory
##ORIGIN=Admin
##XUNITS=1/CM
##YUNITS=ABSORBANCE
##RESOLUTION=4
##FIRSTX=4497.3318
##LASTX=599.83466
##DELTAX=-1.4281778
##MAXY=2.2654517
##MINY=0.70123953
##XFACTOR=1
##YFACTOR=2.1098663e-09
##NPOINTS=2730
##FIRSTY=0.71254873
##XYDATA=(X++(Y..Y))
4497+337722224+338328647+341139594+344675927+346109185+344475378+341163890
4487+338172281+336917058+337942012+340736432+343609417+344675532+343524298
4477+341436196+339763826+338684998+337842881+337434380+337971534+339428070
4467+341287824+343030904+344273556+345133726+346188004+347198183+346712332
4457+343983029+340223178+337163176+335534086+335294183+336267128+337858475
4447+338950440+339078019+338878909+338956259+339181782+339196812+338951485
4437+338683388+338689208+339011630+339159069+338707740+338198808+338476199
4427+339358602+339910898+339697296+339045926+338319099+337638037+337423984
4417+338422043+340599248+342584661+343052375+342155169+340829800+339638733
4407+338935100+339058639+339814084+340596084+341149651+341515156+341533773
4397+341032638+340409942+340597242+342035387+343737730+343981899+342455697
4387+340876667+340749625+341381220+341037949+339486944+338298928+338680478
4377+339964461+340722505+340538679+340230636+340702560+341932527+342811653
4367+342117201+340028250+338052556+337236147+337185013+337035173+336706281
4357+336760579+337360222+337951335+338130414+338309578+338921059+339490277
4347+339258087+338162507+336853579+336161359+336446999+337044015+336806147
4337+335780317+335440662+336656561+338479053+339547004+339769589+339687719
4327+339270800+338278672+336751087+334828051+333029459+332362070+333058444
4317+333864259+333780723+333651788+334758696+336797389+338303194+338477273
4307+337669621+336627406+336143024+336732865+338065636+339195427+339594747
4297+339454399+339095788+338595332+337874550+337048846+336571386+336847590
4287+337655016+338253473+338374357+338436677+338589738+338500099+338054110
4277+337490033+336941410+336422082+336122091+336278570+336784789+337463450
4267+338479816+339732638+340456499+340159361+339279077+338474504+338074676
4257+338224460+338622961+338438626+337371155+336336172+336454994+337619703
4247+338483488+337973765+336652803+335982194+336284898+336610060+336716452
4237+337681373+340102690+342782979+343801576+342616640+340569416+339242803
4227+338964508+339177884+339530421+339910248+339985733+339483017+338683303
4217+338283532+338888882+340466923+342190878+343013220+342565761+341432777
4207+340458872+339992344+339785777+339469654+338992900+338523293+338180417
4197+338111373+338568946+339571780+340550516+340665072+339657209+338163947
4187+336878298+335880860+335098690+334681234+334705501+335115612+335976657
4177+337248040+338405828+338743901+338184824+337655807+338288701+340047235
4167+341624739+341946342+341385062+341319973+342567626+344297908+344696437
4157+342946605+340124584+337882658+337036670+337446245+338415687+339009624
4147+338521485+337136875+336067991+336333573+337274087+337186680+335740681
4137+334469581+334562214+335589626+336604721+337396581+338353932+339664356
4127+340929637+341507556+341135780+340039494+338599908+337227078+336301707
4117+335936909+336102457+337007233+338636436+339993559+339927989+338802520
4107+338188130+338812916+339889738+340532662+340835676+341292344+342018804
4097+342697691+342770944+341887977+340430649+339202998+338549538+338272514
4087+338162394+337980546+337366748+336416686+335835320+336110084+337143457
4077+338745313+340524667+341315001+339974970+337086052+334772398+334489865
4067+335655704+336635542+336740238+336754646+337610098+339228085+340810900
4057+341856336+342457957+342585734+341654995+339512228+337443816+336931748
4047+337713918+338328676+338240506+338056596+337987862+337690216+337290472
4037+337203404+337349120+337549133+338091683+339052367+339618986+339013184
4027+337777312+337266205+337967127+339126609+340059806+340920456+341923996
4017+342667943+342587683+341518348+339757555+338026876+337058169+336827928
4007+336671618+336396289+336604834+337486530+338205221+338014220+337240271
3997+336849398+337418418+338592789+339459512+339614494+339700658+340415648
3987+341239459+340954384+339385073+337679142+336709784+336115706+335286612
3977+334599449+334928453+336209639+337313242+337610719+337904552+339061407
3967+340553878+341341387+341458061+341632197+342000724+342137089+341795174
3957+341017100+339914203+338683840+337579813+336847986+336703400+337065260
3947+337435284+337377681+337065457+337141253+337998230+339264528+340063931
3937+339737469+338485240+337322254+337117240+337706714+338285481+338558860
3927+338878796+339499261+340338836+341200361+341859783+342262041+342586751
3917+342539658+341289830+339074572+337557128+337800421+339063667+340022233
3907+340440283+341001252+342078441+343373102+344514589+345291081+345250259
3897+343958140+341818989+339963105+339309898+339794845+340464296+340780220
3887+341338110+342739303+344462637+345510558+345647432+344949928+343272446
3878+341224120+340229648+340997918+342843830+344964506+347225727+348883237
3868+348781563+347257622+345688451+344886506+344773589+345081434+345477957
3858+345557228+345451515+345948440+347377347+348558978+348440129+347244598
3848+345399139+343574076+342769560+343341518+344488316+345320376+345996212
3838+347066649+348239099+348988639+349391264+349322588+348183784+346208175
3828+344724490+344460942+344910858+345721476+347106397+348376932+348380774
3818+347683610+347526284+347654258+346846041+344891281+342709245+341688472
3808+342953385+345926179+348679664+350454187+351673871+352121019+351368145
3798+350221121+349721003+349908163+350234964+350532639+351203134+352695690
3788+354782550+356509527+357283532+357745766+359017431+361540873+364957029
3778+368594669+371887539+374494914+376341616+377885588+380175935+383917367
3768+388392434+392156946+394598942+396205035+397496758+398341588+398538917
3758+398573015+399101638+400274398+402281761+405836485+410917976+415549099
3748+418347163+420531854+423816900+427703199+430329727+432081396+434981840
3738+440093163+446474965+452171214+456342617+459239417+460857686+461412977
3728+462065647+464029250+467096485+469485455+469566816+467497500+464851140
3718+463070091+462665149+463565180+465596415+468160198+469678123+468946860
3708+466938904+465830441+466946136+469990403+473543517+476000316+476451532
3698+475141559+473542980+473509334+475801094+479750166+484054516+487217774
3688+488133031+487214045+485593091+483636805+481359820+479619480+479914640
3678+483031285+487924543+491735301+492767685+492524562+492615754+492163465
3668+489721384+486048206+483010380+481681818+482044384+483235931+483995190
3658+483651382+482898169+482879128+483615447+484441547+485039609+485298326
3648+484823945+483498208+482101902+481482935+481725041+482411696+483175588
3638+483645901+483513972+482945404+482289767+481607067+481114041+481550906
3628+483086995+484520761+484832250+484191474+483715285+484753827+487502256
3618+490446460+492039841+492233074+491940456+491997522+492511906+492886958
3608+492738248+492635586+493461007+495386218+497778917+499820068+501218634
3598+502256272+502969370+502591266+500611249+498317427+498135099+501137273
3588+505214093+506845443+505577789+503838014+503312500+504057972+505496202
3578+507043648+508301414+509284981+510442628+511845488+512613900+512006628
3568+510896047+510678801+510665693+509239724+506945619+506021491+507471360
3558+509653084+510162779+508729239+507613685+509102031+513111390+517408620
3548+519705042+519543562+518444790+517825823+517574676+517116680+516435619
3538+515375493+513129018+509751226+506886971+505826732+506240827+506993532
3528+507163317+506517173+505504677+504513652+503487935+502493237+501907945
3518+502025014+502905015+504313017+505491738+505476088+504052774+502245085
3508+501644029+503008469+505307037+506598308+506285011+505731246+506288401
3498+507611199+508084225+506751086+504598855+503496749+504125604+505431848
3488+506030248+505644065+504972439+504421329+503337191+501299656+499372468
3478+498723668+499289638+500328689+501357513+502266951+502766306+502223615
3468+500334904+497714337+495396784+493928044+493393489+493875328+495285816
3458+497091810+498468680+498452747+496329952+492704122+489771783+489549734
3448+491826381+494132068+493939231+490982766+487397333+485577214+485961364
3438+486969000+487008551+486054816+484923386+484057567+483648726+483814331
3428+484155144+484045815+483473291+482825735+482252533+482000200+482587923
3418+483849644+484566301+483808285+482151340+480903406+480554400+480634405
3408+480809332+481368860+482488707+483557817+483753931+482983881+481803521
3398+480677120+479854806+479821357+480878206+482372146+483311642+483686017
3388+484046775+484164805+483603017+483060948+483665451+485334882+486914703
3378+487648028+487653000+487274727+486783734+486468968+486538238+487194213
3368+488896358+491829827+495037664+496939992+496881175+495573971+494220888
3358+493691813+494015789+494334793+493943751+493411061+493988556+495985353
3348+498186514+499122169+498802939+498541735+499031203+499585024+499410097
3338+498582190+497569355+496675173+496119373+496115249+496504201+496561436
3328+495793533+494796575+494565543+495028681+495184284+494576052+493804194
3318+493543329+493557850+492970410+491517038+490177742+490031291+490774843
3308+491194927+490952821+490924627+491749313+492851589+493155677+492401333
3298+491373978+490874510+490894625+490924909+490694894+490517538+491129894
3288+492944024+495250334+496684269+496865693+496818628+497407367+498098147
3278+497688685+496156721+495247113+496600591+499677064+502232034+502767775
3268+501644311+499854872+498103628+496856145+496100389+495209709+493787243
3258+492383592+491924071+492786669+494322081+495198692+494814260+493957141
3248+493479201+493316591+493182967+493249299+493724132+494409318+494964439
3238+495071226+494311571+492465405+489973943+487752950+486487782+486140189
3228+486100864+485743327+484936212+484214470+484245771+484970225+485745869
3218+486302573+486712260+486728533+486222059+485728241+485534782+485027404
3208+483864108+482784715+482469610+482477237+481939010+480831536+479929895
3198+479626712+479505235+479232279+479049781+479049838+478875024+478391377
3188+477742634+476785565+475379711+473966511+473102273+472784908+472706343
3178+472655945+472352083+471515785+470436647+469817990+469788243+469629080
3168+468748881+467528942+466838784+466953481+467305679+467239121+466704792
3158+466091447+465654441+465244103+464412128+462915674+461275369+460451163
3148+460657193+460978146+460547214+459566048+458804558+458670170+459089491
3138+459766513+460216995+459918077+458689013+456805980+454863961+453586561
3128+453405052+453981134+454302257+453506668+451744265+450179275+449953696
3118+451146034+452762128+453527122+452718029+450695806+448795767+448207875
3108+448787941+449319191+448960297+447972069+446970873+446097596+445204119
3098+444453025+444213405+444347199+444182386+443494572+442944734+443155962
3088+443903158+444492717+444580039+444411242+444376155+444497971+444511418
3078+444339458+444115376+443807954+443265179+442514960+441677561+440833466
3068+440159100+439835350+439782804+439799359+439832807+439798059+439420181
3058+438552384+437420333+436368851+435511592+434744564+434093900+433858970
3048+434230887+434937882+435564392+436088974+436715202+437358295+437672863
3038+437403411+436542422+435363192+434291371+433463153+432625471+431743520
3028+431190462+431137068+431355501+431615715+431623682+430812358+429033597
3018+427223083+426571656+427199918+428159190+428568002+428314850+427757214
3008+427255373+427011290+426939986+426738306+426346048+426080805+426096540
2998+426061397+425579812+424667520+423692993+423075806+423021989+423343648
2988+423577901+423357858+422686148+422011669+422001753+422889720+424005161
2978+424305689+423467159+422158288+421232182+420947362+420938011+420661919
2968+419827740+418569212+417335826+416597698+416546508+416879892+416986114
2958+416686913+416562668+417049536+417635054+417586492+417024873+416517891
2948+416086874+415391518+414474508+413696859+413321778+413571059+414539258
2938+415642071+415834852+414907729+413842490+413434638+413354492+412959098
2928+412268121+411639097+411104401+410548630+410100747+409908758+409833498
2918+409721740+409719649+409987039+410293444+410222959+409746996+409311063
2908+409324538+409688178+409891723+409606534+408980618+408231840+407355822
2898+406464888+405952369+406014887+406363441+406679959+407016647+407452297
2888+407702144+407436308+406804712+406261711+405956239+405613815+405000018
2878+404325963+404082472+404435038+404946173+405078272+404747742+404144115
2868+403417542+402849510+402838238+403396778+404018231+404229855+404024220
2858+403673914+403377511+403184334+403095091+403082322+403035567+402763261
2848+402125338+401267909+400654988+400652163+401115526+401539114+401484703
2838+400824038+399828550+399019824+398711160+398848203+399333319+400036812
2828+400485429+400159729+399115311+397897999+397058735+396901833+397253494
2818+397472124+397167076+396700096+396536357+396501835+396143026+395490412
2808+395028235+395078973+395521940+396013243+396255576+396098588+395553722
2798+394771721+394018084+393618030+393719760+394042945+394114277+393806941
2788+393368748+392995927+392683675+392385746+392098382+391840399+391626233
2778+391460064+391366696+391344378+391251321+390918277+390384061+389797610
2768+389180310+388531058+387996108+387714649+387635124+387579104+387418528
2758+387209447+387116898+387138086+387040509+386663168+386139461+385800795
2748+385945720+386507197+386885273+386510672+385634400+385050153+385015913
2738+384988086+384488449+383777781+383511549+383943555+384545543+384497574
2728+383659327+382764664+382472865+382692767+383003550+383107540+382714661
2718+381723381+380632943+380067115+379979990+379954395+379960328+380186388
2708+380488187+380566074+380379367+380027197+379542080+379036736+378727959
2698+378665639+378713212+378817569+379007271+379114566+378875003+378392005
2688+378135406+378363980+378819208+379061512+378900174+378442658+377896125
2678+377422817+377106977+376927954+376745259+376395688+375836951+375181908
2668+374652523+374497908+374789707+375295135+375719401+375989898+376103211
2658+375915459+375407657+374945734+374921721+375260190+375523512+375427037
2648+375063595+374651534+374263797+373901541+373685369+373749187+374014232
2638+374267695+374353209+374178452+373756758+373319102+373112478+373084793
2628+373035016+372962553+372982724+373037700+372945066+372654059+372310138
2618+372065489+371875194+371582972+371245887+371171165+371512769+372040742
2608+372407800+372456616+372234257+371896523+371643258+371620347+371832677
2598+372159789+372452915+372626119+372667393+372589139+372410681+372171033
2588+371871832+371417791+370777184+370230030+370200875+370714468+371279082
2578+371471015+371380840+371359708+371584441+371950199+372187559+372087637
2568+371744818+371497740+371548478+371722670+371674249+371312191+370924991
2558+370793315+370817498+370743821+370601071+370583867+370654747+370626157
2548+370516178+370511771+370693704+371021551+371432453+371757446+371721229
2538+371237101+370566464+370059284+369882945+370012445+370258309+370323059
2528+370092761+369864215+370036204+370597851+371131756+371291003+371099183
2518+370845183+370839081+371157520+371496723+371455336+371059745+370750262
2508+370788117+370983695+371042512+370899735+370692828+370620875+370823769
2498+371243401+371605741+371651620+371421012+371230067+371292444+371451494
2488+371439036+371299902+371306597+371520369+371694448+371626223+371426973
2478+371347645+371448725+371606928+371772306+371981529+372130154+371995343
2468+371558874+371113901+370948975+371045987+371181985+371229756+371228316
2458+371229191+371227101+371226027+371275239+371419571+371616448+371715975
2448+371620714+371430165+371275804+371108195+370852330+370637288+370637486
2438+370801480+370937703+370982367+371017906+371083306+371134100+371206534
2428+371458528+371943588+372461504+372761693+372828675+372858140+373009280
2418+373281105+373548044+373617257+373372693+372999194+372914132+373309666
2408+373916514+374337982+374449007+374398382+374387929+374498501+374664699
2398+374846688+375168884+375788755+376772266+378245611+380552570+384150941
2388+389411851+396529548+405602289+416807599+430389618+446303513+463877573
2378+482017377+499888208+517286352+534202884+550321792+565084284+577825344
2368+587878884+595143597+600254779+603467701+603945981+600763569+593598693
2358+582652270+569103982+554292222+538661085+523223295+510515796+502801958
2348+501050374+505496541+515198024+526729005+535671115+540325601+542036221
2338+542841585+544235970+546850830+550333827+553710150+556123302+557222074
2328+557097885+556218788+554917404+552657708+548716376+543629885+538729169
2318+534346226+529767848+524795545+520006135+515446006+510277984+503873045
2308+496480188+488826919+481561754+475010082+469097350+463475683+457821301
2298+452070021+446466349+441351833+436806479+432593661+428518592+424668255
2288+421252184+418369792+415927824+413703695+411542283+409504833+407778194
2278+406486613+405583390+404839075+404031226+403224393+402667069+402372727
2268+402104348+401821985+401776417+402015472+402112371+401638357+400739654
2258+399950591+399503698+399157291+398698193+398231920+397897463+397631457
2248+397336465+397071194+396959322+397009580+397123175+397258692+397484583
2238+397840001+398259040+398648981+398903376+398867244+398489790+397966026
2228+397530150+397207389+396952090+396825698+396792362+396587744+396055195
2218+395386112+394857122+394582387+394571934+394737510+394846557+394711520
2208+394352796+393869996+393342164+392898520+392674381+392695032+392933126
2198+393359482+393827874+394103937+394146680+394207758+394535124+395084962
2188+395602030+395905779+396054461+396277413+396721171+397220300+397490459
2178+397578882+397790083+398151688+398404954+398510723+398660394+398845011
2168+398903348+398896511+399042312+399399199+399853410+400272985+400565067
2158+400722987+400860764+401108379+401467160+401814866+402044542+402173223
2148+402294106+402454936+402658113+402921464+403201680+403322083+403164672
2138+402898327+402852448+403192075+403820760+404520156+405071774+405330096
2128+405309219+405222095+405353036+405778374+406254253+406546503+406796237
2118+407303446+408045104+408681050+408953045+408895838+408784475+408936773
2108+409411663+409964750+410426306+410906252+411512704+412154922+412726767
2098+413248496+413759659+414200620+414451767+414506940+414590363+414931290
2088+415424599+415749309+415824936+415927315+416325138+416956225+417508521
2078+417771617+417864391+418070987+418501721+419018450+419455569+419784037
2068+420070185+420379358+420732743+421102626+421435190+421695461+421900023
2058+422105912+422367031+422682701+423022271+423441960+424112230+425134359
2048+426365767+427483580+428189587+428399064+428353270+428480002+429004160
2038+429798337+430697209+431723689+432862012+433887051+434641535+435299233
2028+436158894+437266961+438398532+439383795+440316822+441382513+442590756
2018+443823097+445062471+446362811+447639081+448760990+449833349+451095917
2008+452573104+454112188+455721700+457556114+459587773+461575643+463347708
1998+464899589+466282109+467607563+469068365+470708134+472275666+473529618
1988+474505586+475300779+475927035+476553403+477520077+478961414+480719891
1978+482621767+484503415+486080750+487197772+488143880+489425376+491274593
1968+493510276+495792911+497977292+500215574+502626466+504977072+506949066
1958+508665619+510588400+512816003+514925859+516690607+518529259+520958514
1948+523879213+526727423+529168486+531286365+533201858+534988246+536941142
1938+539363787+542007293+544238286+545949246+547829765+550527512+553894116
1928+557207102+559977283+562304780+564421359+566286397+567908932+569610908
1918+571510750+573288324+574960298+577092810+579816944+582424685+584292717
1908+585633822+587030184+588697186+590363114+591576414+592183572+592612018
1898+593432637+594652435+595801662+596693924+597645399+598902769+600266079
1888+601342534+601912853+601995571+601841606+601935680+602699515+604076328
1878+605519361+606438630+606708026+606774810+607250321+608383164+609815235
1868+610822024+610988250+610457368+609493802+608305249+607252808+606705484
1858+606631411+606754244+607017255+607369482+607307048+606288055+604570655
1848+603159432+602812686+603268309+603495273+602897438+601889236+601013811
1838+600268847+599232226+597652179+595968170+594869002+594299756+593556431
1828+592594673+592107522+592152327+591995085+591235262+590059648+588566951
1818+586765591+584987847+583664145+582826011+582186025+581588641+581159630
1808+581042052+581172512+581345066+581448406+581661302+582230378+582877144
1798+582933532+582418809+582234333+582993988+584159883+584762578+584723310
1788+584562056+584579402+584965812+585928078+587338566+588684982+589574983
1778+590113211+590742348+591856150+593564228+595599163+597540759+599192336
1768+600368685+600857700+601026072+601684194+603065584+604511950+605522751
1758+606413770+607583959+609035015+610761625+612997251+615732967+618178382
1748+619436035+619753456+620182807+621216151+622421032+623374710+624314546
1738+625683901+627642787+630060176+632254557+633397062+633816976+634321416
1728+635116383+636174871+637714858+639820589+642002879+643689656+644947705
1718+646445317+648505113+650239746+650751249+650351731+649928991+650071995
1708+650992112+652740531+655009211+657264217+659521427+662105212+664338805
1698+665131738+664897542+664581420+664431579+664670182+665941509+668463538
1688+671431077+674042095+676336596+678277005+679317187+679523245+679546806
1678+680015707+681288615+683038108+684541314+685966096+688166466+690919585
1668+692662072+692859316+692750552+693551226+695223030+696588882+696945459
1658+697015577+698085986+700959168+704979319+707433152+707633560+708120202
1648+709905347+711799822+712419523+712343134+712764122+713826282+715093766
1638+716441538+718445285+721597638+724932376+727291909+729031458+731127867
1628+734174620+738288392+743381494+748973046+754024055+758042567+761937059
1618+766931341+772779351+777433158+779948012+781422967+782770287+784140829
1608+785656917+787601734+790135572+793085595+795592652+796523278+796007312
1598+795635706+796750864+799279165+802211391+804668557+806311885+807194090
1588+807629881+808047761+808692210+809456498+810318023+811554827+813137078
1578+814591749+815722558+816822799+818163452+820129230+823191013+826983069
1568+830273623+832583944+834177777+834876411+834822170+835463850+838383646
1558+842452839+845434616+848175812+851786557+855476403+857614509+857672423
1548+856585120+855641725+855471883+855608672+854747599+852262464+850199109
1538+851231832+854525889+857459697+857954588+855864282+853310555+852101267
1528+852296252+853313832+855119713+857877295+860856021+862851067+864111771
1518+866022461+868801287+871575254+873650644+874710374+875068533+876065491
1508+879040488+883279410+886458601+888585294+890919232+893723314+896442475
1498+898395541+899963214+902327663+905145926+906799255+907389633+909292808
1488+913390477+917268471+919251878+920190132+920918145+921179010+920779153
1478+920230304+920643495+923190159+927479479+931155765+933230985+935482376
1468+938529072+940324444+938668460+934199410+929949471+928041776+928493161
1458+929203490+926906504+921940472+917971286+916709000+917916988+920411389
1448+922278912+922127773+920280702+917877551+915538584+913671852+913051755
1438+914708078+918974120+923842518+926815594+927948436+928605033+929575831
1428+930881905+932161763+932739202+931945477+929840085+927332916+925431096
1418+924604658+924738791+925320354+925740099+925721567+925510875+925307020
1408+924997452+924868969+925671677+927455127+929032575+929298299+928244783
1398+926527722+924923775+924047503+923794605+923427632+922744084+922287557
1388+922352985+922655943+922995965+924054226+927386196+933761020+941387056
1378+947096300+949948295+952133748+955796361+960674308+965021824+966870193
1368+965322069+962127736+960726175+963480819+969822364+976967578+982367818
1358+984725600+983954024+981374759+978661700+976676033+975844792+976912546
1348+980498091+985578311+990043349+993265481+996208837+999248132+1001402850
1338+1001882994+1000562117+998186933+997658424+1002087866+1010140597+1015874306
1328+1016049006+1013804227+1013334252+1015739947+1019342216+1022590791
1320+1025934286+1029549890+1031768906+1031843487+1032781401+1038308091
1311+1047488127+1055734316+1060659837+1063892252+1067569102+1071148094
1302+1072582651+1072176862+1072465242+1073741823+1072905384+1069034170
1294+1066027872+1066059399+1065991824+1062634090+1057623141+1053881766
1285+1050804728+1046400824+1041262860+1036758724+1032356515+1027980635
1277+1025588727+1026001974+1027068372+1027056168+1026451382+1025687151
1268+1024586740+1023781038+1023789739+1022602430+1017789459+1010355865
1260+1004517517+1003346254+1006393911+1011376271+1015506259+1016687918
1251+1014464383+1009651525+1004267444+999492894+994017733+985780245+974806080
1241+963922317+955694998+949693928+943978299+938142889+932867120+927505582
1231+920476987+912015416+904545718+899713706+896167033+891031556+883296247
1221+874710600+867700480+863633095+862660715+863923001+865836517+867112419
1211+867678671+868041181+868014456+866912915+864658869+862013272+860281464
1201+861000437+864761192+870055493+874472167+877292973+879805793+883246583
1191+887627491+892308476+896654184+900333577+902838374+903968335+905688278
1181+909953755+915373941+918855129+919937573+920764011+923193153+928133816
1171+934826627+940436033+943561831+946555587+952188780+959513893+965205226
1161+967924839+968868516+969372052+969963164+970585691+970848307+971186634
1151+972936014+976531956+981205369+986559392+992928623+1000044456+1006143838
1141+1009131830+1008582190+1006423065+1005551370+1006578895+1007600318
1133+1008601739+1011790196+1016574125+1019774448+1019756707+1018397070
1124+1018247455+1018492330+1015616775+1008753048+1003189520+1004754030
1115+1013307132+1023215012+1028939907+1029644699+1028097140+1026852538
1107+1027148377+1030279430+1036748328+1043634767+1046001137+1042345304
1098+1036281969+1032285663+1032998704+1036828898+1038241872+1033639536
1090+1025914511+1022341509+1026162211+1030985351+1027915998+1019595679
1081+1018022695+1027396981+1038877281+1043528546+1044094797+1046468399
1073+1049139873+1047315799+1041950928+1037804329+1036064102+1033716830
1064+1028598189+1022061716+1016136131+1011684314+1009266189+1008581964
1055+1006871795+1001692247+996107023+995676486+1001321601+1008059783+1009934595
1045+1006738792+1003859621+1006229041+1013167123+1017668095+1014699313
1037+1008495291+1005284347+1005296438+1005395879+1005423226+1007334876
1028+1010742444+1013764224+1016442817+1019635908+1021746893+1019700545
1020+1012402553+1001984357+993251582+990128552+991419258+992851894+993166604
1010+994490985+997391740+997900135+992896530+985190263+978828038+975196501
1000+973145293+969775016+962488212+951894411+942143603+936645955+934026574
990+930363510+925004289+920978262+920142953+920759604+919294141+913657275
980+905615392+899656245+898582559+900859657+902617286+901343982+897116644
970+891869068+887888243+885869241+884801487+883856623+882933512+881779820
960+879901844+877522253+875858190+875367706+874818461+873504307+872902007
950+874617600+878055565+881310185+883890523+887075986+891360448+895227593
940+897246313+898296777+900269053+903816404+908915439+915167147+921021485
930+925816828+931327640+938806379+946373202+951497436+954496050+957507208
920+961086990+963263743+962179265+958071312+952802832+948633180+946480384
910+945902210+946120021+946473830+946750232+946905270+946124880+943718113
900+940959175+939980410+941134215+943287915+946701641+952732884+959850977
890+963242950+961290506+958544677+959370380+963883670+970565464+978227999
880+983753898+982889886+976303240+969469121+966258289+966230151+966791092
870+965572594+961717992+957603485+957769824+963467598+970715078+975610879
860+978011714+978700459+976684621+971750965+968086431+971053631+980868285
850+991697356+996431338+992952014+985134214+979712277+981939655+991031436
840+999760934+1002265957+1001941303+1003645708+1004921724+1002210473+999209599
830+1001424772+1007507543+1012236779+1014836159+1019124123+1026137689
821+1031729807+1032125313+1028002557+1023856862+1023702841+1027279007
813+1030833477+1030319206+1025882644+1022988896+1025418772+1030316833
804+1032935762+1032613933+1033371044+1038240064+1045038588+1049556511
795+1049731211+1045378497+1037207341+1027613718+1021272738+1020746150
787+1022290093+1020300358+1015465239+1012975924+1012940215+1010246141
778+1003851146+998074948+995558738+994144069+990126405+981458719+970845821
768+964370030+964410597+966527685+965504454+963074352+964018368+969564607
758+978573784+988634895+995658067+997996525+999058628+1001075145+1001285780
748+998035850+992701941+987297067+984565250+986113487+989645244+990017246
738+985379880+980719462+982568509+991790582+1002821813+1009539541+1011098739
728+1009576492+1006462164+1003943129+1003789899+1004574583+1005140157
720+1008625243+1017104217+1025979148+1029349199+1025064738+1014354319
711+1003712944+1000905416+1008349519+1021176235+1029650688+1026855138
703+1013320805+996129171+983594791+978845102+981050670+989727170+1004566786
693+1021576826+1032590767+1031818174+1022109177+1012330006+1011028000
684+1018346332+1022148502+1012253278+994475730+980098856+976670044+986733076
674+1004720807+1016675149+1010665603+991188961+976380986+979019237+989486250
664+989254823+975515279+961216942+959330717+969370922+977535976+972839737
654+960582889+949812014+940316252+931662069+929202417+932312903+933857524
644+933327206+938453418+952476370+966820021+968432556+958534845+949464760
634+945963966+944059434+942450855+944782872+949777662+955072924+962041742
624+967674314+966548025+960463785+959688254+969758066+982117519+984480386
614+977616886+974966317+975695291+964370256+940151156+921828939+921265626
604+930258361+931531778+922301569+920811415
##END=
