##TITLE=<SNM>
##JCAMP-DX=4.24
##DATA TYPE=INFRARED SPECTRUM
##DATE=29/4/2025
##SAMPLING PROCEDURE=Instrument type and / or accessory
##ORIGIN=Admin
##XUNITS=1/CM
##YUNITS=ABSORBANCE
##RESOLUTION=4
##FIRSTX=4497.3318
##LASTX=599.83466
##DELTAX=-1.4281778
##MAXY=2.1014612
##MINY=0.4231849
##XFACTOR=1
##YFACTOR=1.9571382e-09
##NPOINTS=2730
##FIRSTY=0.44151202
##XYDATA=(X++(Y..Y))
4497+225590616+225110066+224355300+223460319+222830235+222898607+223448091
4487+223633684+223002154+222285015+222717643+224454248+226071196+226062729
4477+224584215+223118461+222742769+223370340+224349681+225176687+225700056
4467+225991068+226095392+225938853+225555044+225187863+224916357+224478962
4457+223804156+223268681+223057430+222825454+222424742+222343671+222981155
4447+224003682+224694173+224505656+223278487+221517671+220496256+221344930
4437+223819505+226373126+227587641+227209177+225838991+224259519+223117502
4427+222633466+222550887+222630207+222878217+223034132+222343976+220476155
4417+218374319+217462009+218069312+219347904+220669118+222097564+223393592
4407+223713278+222658789+220895658+219507168+219119461+219598427+220380359
4397+221051998+221502260+221722770+221810876+221935452+222099361+222286233
4387+222746682+223546446+224004900+223257626+221335169+219278984+218183381
4377+218341047+219303607+220411758+221092214+220918758+219777045+218046684
4367+216557328+216226373+217316160+218982718+219958283+219798882+219160910
4357+218862101+219004783+219117862+218933259+218682356+218668956+218927518
4347+219255656+219329981+219034218+218735743+218782096+218899637+218698588
4337+218359015+218177671+218099721+218135049+218522025+219260392+219976648
4327+220237068+219803739+218844011+217958044+217720160+218196294+219048075
4317+219894769+220401891+220331585+219797831+219233957+218963166+219044603
4307+219485804+220238484+221094346+221919296+222593768+222644018+221739962
4297+220473125+219795669+219920123+220404586+220908631+221345036+221703644
4287+221984424+222012975+221490033+220494778+219602325+219317205+219644673
4277+220176600+220377070+219933066+219036867+218317566+218462379+219721724
4267+221543694+222832154+222875415+221976597+221014493+220619903+220845148
4257+221300526+221593534+221846158+222548070+223666393+224413865+224289334
4247+223694259+223099381+222480734+221949066+221999956+222740606+223580433
4237+223949746+223781817+223176128+222182046+221136313+220714146+221215070
4227+221993789+222117055+221579981+221296963+221919433+223161936+224205705
4217+224424798+223866025+223240281+223295481+224097925+224996941+225282487
4207+224879111+224357142+224152241+224037335+223705908+223429925+223521046
4197+223652048+223397460+222945995+222686549+222579317+222406287+222237566
4187+222356325+222890947+223570947+223892856+223661428+223228069+223094798
4177+223527046+224561770+225964314+227202782+227909749+228254667+228542055
4167+228784523+228923245+228972659+228762976+228102026+227321571+227053933
4157+227370117+227686453+227566125+227162566+226794365+226507296+226213085
4147+225870908+225456370+225122796+225256783+225930707+226556511+226577144
4137+226181488+225860645+225716105+225608675+225581921+225836357+226352874
4127+226616766+226016498+224703507+223596986+223362497+223899587+224830032
4117+225869431+226724212+227216623+227470329+227585342+227416302+227008479
4107+226805542+227014737+227240835+227153414+227010413+227187021+227681184
4097+228302177+228868320+229146222+229010651+228626522+228271463+228123771
4087+228174814+228124670+227643511+226973029+226818150+227463903+228454299
4077+229261677+229840794+230377578+230884136+231193742+231117239+230590870
4067+229799207+229051172+228452335+227887897+227418357+227366934+227855463
4057+228542147+228897161+228587509+227758905+227073881+227136923+227744759
4047+228112046+227870690+227367513+227031442+226986627+227190569+227412799
4037+227199096+226329621+225224912+224634420+225016341+226173037+227333677
4027+227797918+227650896+227577469+227891339+228181331+227993820+227433646
4017+226921393+226613264+226299654+225896399+225787477+226417713+227617563
4007+228591956+228637197+227833124+227078754+227298943+228426875+229462680
3997+229742135+229597017+229525341+229453528+229243099+229347940+230327069
3987+231895257+233031001+233073775+232302837+231378284+230707025+230471791
3977+230721522+231164429+231270336+230851580+230289274+230041781+230138324
3967+230281950+230360021+230638684+231327911+232130340+232507205+232317729
3957+231883639+231527529+231339103+231302801+231430986+231717583+231921296
3947+231564653+230534574+229536914+229430626+230155820+230918657+231379700
3937+231844398+232461020+233008921+233308278+233241962+232655841+231823901
3927+231579987+232443250+233837845+234671596+234677885+234516900+234653658
3917+234825028+234654511+234284117+234165678+234481450+234864498+234734364
3907+234067674+233678093+234467928+236398440+238433154+239446529+238959569
3897+237348667+235625097+234829871+235490501+237124929+238220670+237926368
3887+237209624+237245622+237665368+237549563+237350890+237732811+237843515
3878+236915444+236060816+236661495+238405227+240072958+241155633+241539260
3868+241120107+240445042+240233029+240298249+239862636+238737400+237317374
3858+236153552+236296462+239228136+244395558+247612672+246842343+244104271
3848+241461021+239902654+239713726+240471903+241452097+242619209+244456772
3838+246474980+247197037+246151883+244284488+242723045+242096175+242483593
3828+243481390+244332592+244656938+245161090+246586871+247818243+247238517
3818+245622453+244760561+244940504+245095216+244736913+244358997+244792173
3808+246349642+247946611+248457600+248715295+250147533+252155994+253043590
3798+252866799+252597942+252598399+252873331+253528875+254598196+256042281
3788+257934267+260289231+262801981+265077244+267179157+269632033+272733296
3778+276209856+279811891+283717501+288208121+293373411+298910038+304083094
3768+308475223+312569959+317009628+321918517+327249086+332811174+337655285
3758+340864694+343251940+346795562+353134496+362976334+375030362+385709621
3748+393192901+399233772+405779922+412060109+416262381+418937244+421845087
3738+426160256+431814927+437146532+440506053+442085571+442778545+442939164
3728+443041615+443852510+445162866+445497171+443826927+440820349+438033960
3718+436363625+435742191+435988755+437214599+439182875+441024885+442323821
3708+443544214+445116971+447024581+448886142+450151304+450766099+451468909
3698+452836034+454803975+457084111+459430547+461810148+464423553+467067960
3688+468841294+469176695+468481468+467866399+468350664+470042835+472266233
3678+474440172+475775837+474737047+471765888+469824199+470737635+473070458
3668+473658879+471213068+466749736+462083908+458908822+458040672+459128677
3658+461096161+462794606+463742000+464430618+465750568+468308606+471591045
3648+473514005+472697323+470480534+469077686+469025547+469110821+468699282
3638+468925319+470680471+473055992+475024451+477494899+482299511+489008412
3628+493676037+494022432+492112812+490303572+489479277+489629846+490563536
3618+492234784+494444721+496830048+499305887+501920906+504458934+506659186
3608+508597647+510307421+511321725+511351388+511055304+511505247+513087140
3598+515337338+517571456+519190566+519584227+518597363+517184251+517022962
3588+519060097+522366718+525430795+527799220+529308387+529674578+529482833
3578+529960063+531287718+532170121+531502609+529801331+528562788+528842913
3568+530448561+531871114+531685156+530358780+529557935+530043022+531120581
3558+532048180+532862607+533604369+534035429+534298439+534904310+535880880
3548+536325645+535280186+533313707+532403711+533684161+536262055+538232006
3538+538036059+535574808+532600268+531198850+531774937+533142610+534234909
3528+534843400+534891885+534043469+532281404+530311575+528939455+528282480
3518+528044200+528173146+528603354+528885671+528907964+529250096+530079325
3508+530744949+531126733+531937019+532886484+532281648+529818325+528011308
3498+529091060+532056646+534232168+534869043+535420523+536829980+538461820
3488+539332041+539060078+537814712+536193592+535008466+534667797+534844984
3478+534917223+534502609+533490894+531652143+528634905+524842283+521958194
3468+521738553+523922968+526054757+526095811+524554240+523279210+523121758
3458+523606297+523852556+523255577+522154325+521770470+522731995+524091994
3448+524312975+522791078+520241446+518233122+518235497+520280368+522685399
3438+523769171+523287068+521663268+519205489+516756054+515458062+514960549
3428+513512657+510668770+508197468+507843825+509535387+511734938+512753658
3418+512003369+510348139+509007906+508528697+509114681+510902390+513400157
3408+515707306+517432033+518266987+517304914+514255577+510641208+508523580
3398+508690930+510457260+512296894+512878158+512162953+511154953+510605454
3388+510475715+510414105+510272032+510052208+509595809+508824293+508368229
3378+509032879+510422937+511317887+511672140+512707245+514844515+517128945
3368+518803605+519972407+520680242+520927902+521274480+521989624+522166568
3358+521020119+519252268+518114530+518128356+519332791+521647492+524395813
3348+526423324+527172578+527014029+526550565+526239619+526393600+526890808
3338+527117759+526788236+526409193+526349623+526173227+525542992+524920613
3328+524692262+524486325+524144315+524359510+525435790+526468702+526471991
3318+525513633+524386372+523897873+524543824+526061823+527172456+526570604
3308+524634275+523434775+524357622+526403711+527767181+528136600+527887783
3298+526681826+524880473+524361338+526016993+528101272+528520760+527490893
3288+526677197+526946358+527967575+529175420+530347694+531331147+531888352
3278+532141311+532613729+533478346+534308854+534630154+534471484+534274684
3268+534324203+534534221+534811301+535178771+535312956+534589771+533006111
3258+531531785+531188739+531927030+532475646+531738574+530379672+530118733
3248+531327919+532482041+532387692+531471727+530315838+528696059+526743954
3238+525510100+525604084+526274155+526391102+525765313+525139706+525314396
3228+526512983+528218159+529334639+528909548+527188719+525564858+524997055
3218+525030921+524814021+524256024+523588755+522692038+521458245+520187358
3208+519258907+518757130+518481695+518059345+517142954+515875783+515013236
3198+515150527+515888939+516202504+515667897+514777575+514002008+513266703
3188+512560330+512409090+513220411+514364301+514562685+513409232+511811868
3178+510729070+510260703+510042036+509747110+509109717+508046472+506755241
3168+505357418+503692199+501730562+500022707+499421708+500102255+501072917
3158+501193031+500448072+499640801+499212664+498931078+498392237+497440366
3148+496262854+495044350+493748002+492471359+491521833+490928569+490368045
3138+489645927+488790659+487867964+487020919+486318840+485512513+484361741
3128+483096579+482224805+482040156+482471825+483229789+484049242+484793836
3118+485192309+484756803+483429300+482044755+481533902+481812748+481982901
3108+481452649+480269746+478663366+477018248+475967459+475766000+475817864
3098+475394357+474582061+474055038+474087381+474304464+474449765+474751026
3088+475157052+475031638+474249980+473610212+473467226+473127896+472174106
3078+471150849+470513426+470074508+469673812+469373891+469015862+468342654
3068+467385301+466340116+465472392+465259542+466092761+467727341+469333873
3058+470135175+469882276+468837609+467471915+466126566+464876632+463702470
3048+462701718+462029211+461672491+461443044+461298991+461456870+461864784
3038+461857567+460928689+459656492+459102303+459313904+459115063+457594597
3028+455273866+453460758+452876539+453187911+453583522+453565401+453268282
3018+453087471+453041636+452689972+451874844+451103419+450779438+450608890
3008+450142076+449477365+449037565+448945408+448919734+448630686+448025636
2998+447372407+446976919+446783286+446293722+445072476+443385330+442076892
2988+441689017+441977273+442394263+442761916+443206072+443615387+443605915
2978+443118392+442634218+442479659+442269002+441447052+440074719+438700011
2968+437733156+437188316+436796299+436244059+435458076+434699259+434316501
2958+434416393+434735470+434796350+434326734+433583906+433070617+432878873
2948+432594728+431998266+431532518+431661312+431984470+431587550+430316754
2938+429130837+428957791+429664287+430379400+430472775+429937712+429101752
2928+428345555+427985181+428083093+428273985+427930697+426745845+425183107
2918+424090108+423766402+423723369+423441447+422989403+422797994+423113477
2908+423699492+423985647+423643759+422914971+422160510+421404556+420592168
2898+419937782+419723165+419932818+420182305+419937203+418965689+417704303
2888+416946065+417020193+417480276+417704182+417569540+417336194+417079976
2878+416620471+415945253+415268299+414640987+413929376+413250321+413001168
2868+413257051+413493047+413178873+412381257+411561134+411017177+410727885
2858+410591721+410578382+410645017+410638804+410383165+409857573+409181045
2848+408455333+407801799+407435669+407406889+407384901+407020933+406432055
2838+406048414+406110633+406508528+406926827+407002325+406511056+405526872
2828+404316285+403119039+402122185+401514791+401362546+401477575+401580543
2818+401502974+401168274+400623069+400126469+399925984+399886697+399567864
2808+398756847+397790266+397215702+397173705+397266410+397095831+396736919
2798+396499979+396412787+396198475+395686374+395009877+394395112+393890412
2788+393337288+392584715+391747629+391212382+391255567+391698079+392106450
2778+392253913+392160903+391811798+391144072+390249121+389314335+388419293
2768+387585344+386944419+386641696+386595282+386495755+386092105+385481969
2758+385044514+384991126+385059224+384792164+384008465+382880564+381820121
2748+381334516+381506404+381621859+380925292+379683703+378862179+378870067
2738+379210950+379280540+379034768+378798620+378751018+378809523+378825846
2728+378612387+377934033+376845693+375926439+375776661+376302041+376752470
2718+376539011+375875396+375428013+375421891+375404075+374945270+374232623
2708+373766784+373700514+373667622+373223223+372380898+371601677+371224431
2698+371089089+370837256+370423616+370111818+370031234+369970994+369651735
2688+369034625+368309735+367739526+367510261+367556431+367575434+367360422
2678+367039731+366890441+366983450+367055233+366743465+365958487+364947472
2668+364054288+363593535+363741729+364256479+364564562+364395932+364026848
2658+363744287+363458710+362965096+362286771+361687112+361434610+361519975
2648+361639968+361525153+361175468+360752570+360412297+360249911+360251525
2638+360279086+360148922+359732480+359067038+358443777+358257819+358611249
2628+359114426+359238135+358876086+358425656+358255778+358264580+358107675
2618+357689467+357202309+356822078+356597351+356534644+356632405+356857498
2608+357097087+357134943+356858807+356506687+356417849+356515975+356360533
2598+355773665+355139287+354933198+355097777+355109015+354720348+354331347
2588+354373314+354671560+354777482+354638333+354571515+354762163+355044999
2578+355116933+354841773+354338169+353842483+353559800+353568540+353728642
2568+353747829+353468922+353051414+352821814+352994585+353464445+353774447
2558+353468648+352632354+351874237+351643693+351803460+351974891+352022279
2548+352050054+352155307+352344280+352570043+352745524+352775157+352633024
2538+352410398+352245880+352161885+352055475+351933168+351978972+352250204
2528+352530908+352632141+352631379+352728561+352997296+353282233+353310982
2518+352993976+352569464+352352807+352468719+352881049+353443949+353865477
2508+353900561+353643490+353403261+353306049+353227018+353067769+352900571
2498+352845721+352935929+353105685+353254214+353334585+353391688+353474983
2488+353539456+353510250+353417057+353360563+353357609+353311622+353139429
2478+352868258+352607411+352461562+352447949+352467562+352408479+352300242
2468+352295978+352484677+352768396+352920671+352764559+352339072+351880054
2458+351599564+351540176+351652830+351871283+352080692+352171387+352160210
2448+352176138+352343671+352693842+353105624+353340158+353217882+352785116
2438+352306455+352091382+352264457+352658210+352962699+352979297+352743910
2428+352511295+352596143+353084671+353709882+354094529+354103970+353938447
2418+353915423+354176940+354621613+355115928+355626842+356062622+356208349
2408+356011153+355733008+355634455+355718146+355924966+356313785+356873882
2398+357419149+357825906+358159936+358515529+358980698+359802923+361394318
2388+364174403+368517042+374802650+383457230+394955271+409750249+428148023
2378+450163242+475250305+502053020+528923862+555131181+580822106+605395088
2368+627267382+645546777+659835045+668428410+669286693+662973615+651897436
2358+636844687+616944903+591869230+562581814+532674091+508438428+495148049
2348+494922103+507169094+528027937+550156235+567090251+577383188+582901756
2338+585917227+587676734+588539951+588833720+588430556+586293042+581561553
2328+574640532+566631355+558294969+549903581+541504274+532898179+523597465
2318+513379874+502808608+492660363+483015355+473429370+463793012+454457946
2308+445667049+437406587+429773742+423067855+417436756+412629343+408195948
2298+403950886+400185735+397306641+395248949+393434836+391410736+389293047
2288+387416258+385850719+384540788+383606276+383143025+382935688+382686383
2278+382391091+382262632+382370900+382512120+382423496+382099911+381852251
2268+381968589+382383874+382790752+382986791+382992273+382900604+382747384
2258+382537519+382323725+382205103+382273017+382585851+383107363+383626559
2248+383889356+383906045+383983888+384343044+384800112+384949951+384651309
2238+384199113+383932114+383825948+383635757+383264632+382757739+382080877
2228+381152761+380037803+378968163+378183398+377746582+377493714+377205488
2218+376824131+376453097+376211254+376165663+376327623+376623676+376919363
2208+377132396+377303858+377571040+378110946+379040859+380273708+381535245
2198+382621605+383569334+384516546+385527743+386610997+387741700+388806894
2188+389663289+390279485+390745507+391168557+391622185+392140316+392685003
2178+393160984+393525409+393844121+394174314+394434856+394492721+394352354
2168+394140113+393930795+393731559+393580198+393482833+393305585+392908573
2158+392340009+391768430+391308468+390979828+390704667+390320416+389732513
2148+389023216+388353054+387911730+387993136+388867926+390489868+392465636
2138+394365906+396094958+398022821+400655503+404079467+407861765+411564758
2128+415198923+419123324+423626461+428617518+433710477+438659293+443577745
2118+448607388+453602343+458317995+462726295+467027181+471494869+476414965
2108+482146078+489100630+497540289+507516768+519078735+532199480+546281689
2098+560111975+572581348+583142777+591588374+598006948+602908924+606700755
2088+609030867+609117968+606603725+601733300+594877332+586101663+575259926
2078+562672022+549389927+536396179+523969504+512150649+501218583+491349092
2068+482423676+474492920+467867069+462519689+457903746+453596496+449766231
2058+446776555+444584952+442774890+441070019+439586343+438620858+438335343
2048+438563024+438916181+439293670+440189108+442228588+445633244+450458260
2038+457045311+465833162+476940923+490161652+505099921+521171176+537668589
2028+553839463+568874548+582199585+593884194+604339883+613635906+621579606
2018+628227323+633740226+637964396+640575607+641341733+640100022+637019316
2008+632827246+628106965+622614223+615919118+608279298+600285348+592065665
1998+583323557+573965650+564396506+555210730+546776461+539147423+532168720
1988+525607069+519435180+514020890+509754967+506521682+503839388+501467309
1978+499570602+498322648+497620903+497226207+497014666+497032909+497381679
1968+498121096+499261301+500742663+502422317+504157277+505889375+507605210
1958+509273261+510867671+512401476+513895111+515353662+516856616+518641767
1948+520965361+523841044+527005562+530076462+532644732+534502487+535987656
1938+537800764+540343878+543425863+546575458+549418920+551796115+553759671
1928+555535502+557396668+559451345+561505778+563335941+565168723+567491891
1918+570284249+572884741+574778372+576018438+576902913+577731228+578709808
1908+579811913+580861819+581764444+582504379+583128341+583892091+585081237
1898+586582303+588028185+589329405+590650726+591957489+592923583+593253654
1888+593053138+592842146+593002705+593343740+593539139+593803793+594545068
1878+595523648+596033891+595785317+595125418+594671090+594988127+596039007
1868+596708956+595893311+593966484+591979539+590314015+588939520+588041098
1858+587563259+586797438+585228213+583309853+581852581+581049848+580475345
1848+579833049+579354906+579222974+578873534+577654116+575918851+574376000
1838+573013261+571379411+569571115+568280006+567815323+567591418+566763042
1828+565255459+563631415+562118046+560533289+558905896+557509595+556402738
1818+555410393+554461476+553676346+553234383+553307536+553911641+554680265
1808+555035187+554733256+554107954+553768259+554079448+554853310+555590138
1798+556073764+556581327+557535177+559017239+560412809+560870365+560537309
1788+560428524+561193249+562744079+564741439+566989018+569221613+570977161
1778+572117518+573200133+575030783+577908902+581111002+583412608+584521596
1768+584970198+585170531+585601957+586927724+589129438+591063087+591835304
1758+591926790+592267947+593427735+595733056+599203891+603039211+605828219
1748+606983072+607160199+607225494+607808159+609422944+612127287+614953024
1738+616788547+618028614+619952700+622572195+624374583+625074561+625684879
1728+626603158+627661956+628757788+629857884+631222024+633688575+637806822
1718+642323846+644626975+644442418+644119290+644997491+646744024+648663968
1708+650536402+652421080+654152995+655738299+657995319+661735010+665965027
1698+668688740+669765689+669966997+669765750+670033267+671594817+674159737
1688+676811210+679762726+684168651+689197258+691806643+691703400+691162702
1678+691923346+694356945+697435945+699927103+702241500+705635040+710003140
1668+713805325+716540062+719248852+722392721+724943388+725767257+725295448
1658+724842339+725480249+727966352+732104942+735053352+734782972+733362734
1648+732463946+732092456+731679608+730955693+729998431+729068640+728664989
1638+729284383+730775521+731674857+730526643+728160106+726402122+726237665
1628+727454220+729196064+730863840+731951632+731750568+730398549+729182724
1618+729226458+730509283+731975448+733011222+733996746+735280912+736634697
1608+737451744+737436456+737101633+737290881+738189730+739197364+739869749
1598+740395585+741080092+742055139+743485428+745517812+747994778+750592468
1588+753132902+755345214+756777025+757475176+758276873+759959999+762577241
1578+765834281+769194381+771425515+771584368+769915495+766872249+763114102
1568+760069333+758626862+758195802+757913240+757880105+758968323+761471481
1558+763613442+763739465+762668728+761224673+759832210+759142343+759513833
1548+760659246+762200634+764144212+766898257+771249302+777329338+782216330
1538+782778895+781047711+780106043+780521814+781233608+781963919+783814487
1528+787343795+791534099+795089354+798411508+802721925+807534486+811075367
1518+813276654+815561571+818898342+823635069+829722049+836234912+841762677
1508+845846754+849111164+851500420+852687617+854098719+857574426+863565290
1498+870523953+875904499+878591300+879857070+881525822+884306241+887738946
1488+891406946+895430052+899543487+903530534+907886939+912463655+915832892
1478+917471554+918887955+921471148+924637920+926906634+928224239+929781221
1468+932165482+934957962+936725874+935820874+932585274+929242228+927733670
1458+929122601+933506355+938832508+942114643+942650407+941877094+941463332
1448+941622429+941411194+940491209+939193521+937533358+935473504+933851897
1438+934445830+938392555+944023623+948240484+949926594+949815799+949380232
1428+950047927+951766137+952986469+952635993+951268076+949751539+947858639
1418+945012132+941812408+939331604+937798500+936942775+936710221+936966956
1408+936711134+934827797+932201358+931765486+935253010+940864953+944667564
1398+944299546+941185522+938330792+937466357+938569559+940503208+941848101
1388+941897925+941292724+941726159+944833970+950797364+957382648+961228445
1378+961616868+961386811+963070180+966154176+969134075+972292259+976489262
1368+980985030+983952321+984337333+982629051+980666409+980501343+982589764
1358+985767866+988961864+992123580+995567310+999098811+1001977052+1003567595
1348+1003748558+1003286617+1003484574+1005132982+1008021943+1010928690
1340+1012725413+1013816799+1015730895+1019143805+1023002697+1025857305
1331+1027721029+1030076419+1033661338+1037052075+1038415119+1038023346
1322+1038159663+1040957868+1046030819+1050375651+1052107566+1053055934
1314+1055764358+1060524353+1066392422+1071809758+1073741823+1070784521
1305+1065971778+1062534505+1060691977+1059764318+1059602785+1059922075
1297+1060364403+1060556026+1059257303+1055013947+1048233933+1041291533
1288+1036617300+1035316628+1036124051+1035388258+1030743627+1024062896
1280+1018368968+1014316809+1011142971+1008874744+1008157163+1008502523
1271+1008177385+1005837467+1001349496+995121144+987324481+978424617+970370183
1261+965870152+965623954+967157911+967190925+964572891+960288908+955601396
1251+951327159+947791151+944247346+938996051+930780267+920056391+908649958
1241+898217963+889317368+881773786+875407960+870018765+864983701+859884620
1231+855411695+852460483+850394538+847782961+844730943+842383959+840610016
1221+838592616+836858874+836598545+837731410+839078800+839637710+838928718
1211+837228963+835949305+836841454+840499099+845910770+851476969+856382783
1201+860671943+863993061+865494188+865639032+866497436+869294363+873139063
1191+876656920+879412793+881635703+884171508+888277208+894109828+900095210
1181+904910693+908853398+912389649+915411821+918309431+921973838+926698383
1171+932283952+939040576+947485443+956814236+964308115+967225400+966279224
1161+965445853+967683626+972874071+979222477+984726305+987355241+985676379
1151+980500734+975581155+974926068+979204204+985446626+990667222+994283266
1141+996724722+998421248+1000292708+1002433024+1002893382+1000357151+996478706
1131+994229483+995955672+1002123114+1009590924+1013239494+1012384561+1012824514
1121+1019362411+1029728013+1037109453+1037261119+1032393679+1027669986
1113+1025786162+1025038553+1021774447+1015916366+1011225565+1010586071
1104+1012611024+1013621887+1013878805+1016136739+1019595087+1020984870
1095+1019193203+1016064926+1013424173+1012513325+1015158768+1021095605
1087+1025865345+1025392927+1021570520+1018609624+1015919229+1009398265
1078+998612140+988233807+983237908+985240568+991340765+997309336+1002070366
1068+1005328016+1004335244+997308605+988515333+984098201+984049412+983311974
1058+980682977+980721167+985467701+991042184+992652706+989952504+985872753
1048+982006368+977516083+971898049+966792147+964506134+965900303+970507474
1038+977421795+984235065+986867108+983310695+976486643+971109387+969334774
1028+969993942+971029168+972010002+973906191+977376051+981737390+984623184
1018+983826481+980545381+978284280+978884914+981254922+982835963+981153080
1008+974639974+964129405+953453466+946297881+943012700+941291871+938850537
998+934643179+928503695+921290550+914259769+907735760+901230694+894882958
988+890006443+887618649+886972028+885844462+882711252+878494696+875358989
978+874032734+873073341+870720997+866947744+862781683+858409076+853463062
968+848470269+844416282+841615336+840157638+839978197+839704650+837609285
958+834590586+833611031+835580495+838400628+840696813+843767469+848587582
948+853682582+857516866+860940495+865582203+871417137+877160767+881946222
938+886039192+890631806+897098803+905336881+912595891+915703945+915359195
928+915805726+919740573+926123880+932681572+937821402+939947526+938030567
918+933876748+931115333+931313473+933012923+933902026+932719763+929954266
908+927267100+925543469+924015846+921990588+920298630+920301493+922695865
898+927443861+933308945+937716210+938852060+938126987+938682121+941405529
888+943870130+943705430+942411701+943649088+948323382+953029289+953487454
878+949769934+946058931+945636094+948360172+952086706+955025675+957252423
868+959559633+961768656+963009088+963042223+963165870+965273661+969720273
858+974695524+977941357+977906882+975149912+973040173+973451620+974391827
848+973594515+972443255+973630025+976267794+977592464+977755338+978355362
838+978651628+977257338+975334104+974959021+976130746+977145324+976409105
828+974442504+974376234+978156430+984109895+990159233+996844288+1005175619
818+1013697841+1020147297+1024892003+1029088215+1031115665+1029734348
810+1027884146+1028983571+1032148090+1033392603+1030090915+1022974922
801+1015879333+1011925665+1010140271+1007805469+1005351831+1005909402
793+1010846949+1018000646+1023934498+1026425351+1024337235+1016673295
784+1005668807+995210195+984951550+973733511+964539147+960861767+961856914
774+963527493+963414687+962619142+962637354+962544953+960872669+958683869
764+958778218+961836631+965345961+967357331+969059887+971412353+972947894
754+973749835+976384802+980722020+983316969+983362164+983181140+982316035
744+977960544+971193930+966876507+967901623+973132634+980228406+987387523
734+992981498+996118789+997065087+996886438+995742304+992895371+988794971
724+985487558+985326085+989247288+996080599+1003681984+1009663650+1010751259
714+1006324381+1001493853+1001530764+1006864714+1014599979+1020434061
706+1020270091+1013398469+1004099095+997272973+996194622+1002830462+1012882744
696+1016941908+1009521365+994707931+982186418+976519657+974937458+973385045
686+970593905+967698305+966512631+967027747+966833444+965130948+964079033
676+965328540+967400211+966417124+959506824+948174701+940556809+943262248
666+948567997+946852040+940257071+936585964+939516771+947404677+956626938
656+961872994+960835880+958656703+959047684+955666509+942524994+927210027
646+918532849+915822781+915284093+915854576+919165034+925570330+931376880
636+933575122+934203287+936083213+940036455+944303200+942725753+932670060
626+921925110+919548585+924839349+929483127+928462337+922356596+909957635
616+892530492+879319844+878246793+885933513+891553739+890542329+886954304
606+884660372+885972800+893314343+905072409+914868382
##END=
