##TITLE=<SNM>
##JCAMP-DX=4.24
##DATA TYPE=INFRARED SPECTRUM
##DATE=29/4/2025
##SAMPLING PROCEDURE=Instrument type and / or accessory
##ORIGIN=Admin
##XUNITS=1/CM
##YUNITS=ABSORBANCE
##RESOLUTION=4
##FIRSTX=4497.3318
##LASTX=599.83466
##DELTAX=-1.4281778
##MAXY=2.2268846
##MINY=0.52220386
##XFACTOR=1
##YFACTOR=2.0739479e-09
##NPOINTS=2730
##FIRSTY=0.53023416
##XYDATA=(X++(Y..Y))
4497+255664164+254330499+253280407+253167834+254067990+255068908+254992000
4487+253821231+252975910+253864398+256541358+259785294+262065301+262482601
4477+261162156+258945577+256794899+255152655+253891988+252979790+252789504
4467+253592089+255039708+256448557+257392340+257936843+258527875+259540087
4457+260718328+261201874+260350604+258512614+256828151+256303508+256969177
4447+257864447+257946988+257038353+255807719+255075748+255173578+255628096
4437+255644966+255057268+254453504+254433789+255184355+256543944+257963887
4427+258685052+258517385+258187453+258425791+259002338+259166614+258791245
4417+258468268+258512010+258433407+257669420+256496639+255748286+255696123
4407+255770875+255616342+255800592+256944834+258699623+260045446+260174430
4397+259012110+257457177+256861604+257618320+258664273+258835418+258096549
4387+256980040+255608237+253924407+252436811+252017039+252831752+253924148
4377+254235686+253804217+253510267+253877302+254544322+254887014+254880519
4367+255044623+255610910+256178002+256305979+255979381+255350815+254495924
4357+253589532+253013301+253095611+253828244+254946477+256253731+257608492
4347+258499508+258163944+256565212+254719835+253670664+253610425+254038216
4337+254311157+254123372+253756222+253714262+253957946+253845229+253154527
4327+252655836+253127943+254212350+254778378+254270864+253242845+252553609
4317+252458136+252698198+253106273+253629192+253952140+253708140+252988527
4307+252218734+251792179+252077019+253174731+254455114+255001111+254650256
4297+254058391+253817064+253931160+254159900+254583236+255453359+256429273
4287+256621455+255732364+254396744+253281241+252581228+252285784+252396518
4277+252859716+253456237+253823789+253766281+253481528+253294375+253410541
4267+253912508+254520181+254528027+253625859+252491503+252101850+252778296
4257+254110496+255524518+256699943+257503563+257782568+257556185+257232231
4247+257116238+256911353+256288247+255597632+255493652+256098134+256824846
4237+256993548+256611023+256343485+256549031+256760814+256386221+255394730
4227+254207924+253486643+253803326+254987344+256241373+257222604+258230878
4217+259143508+259284763+258515258+257403520+256375041+255532134+254956392
4207+254566337+254094431+253560275+253415570+254091557+255568634+257288446
4197+258453353+258606535+257900774+256809873+255872269+255575502+256019876
4187+256712186+256905432+256200160+254892331+253785105+253507451+254049396
4177+255038789+256205247+257380384+258320977+258802023+258751354+258240880
4167+257504454+256945926+256908823+257356329+257842318+258006709+258153626
4157+258898042+260183626+261188625+261247369+260396559+259054961+257641341
4147+256489971+255865946+256041459+257155151+258709452+259595526+259138909
4137+257807543+256594411+256128426+256407459+256896006+257020937+256932620
4127+257377482+258503130+259373052+259154860+258246714+257650135+257690285
4117+257871862+257767767+257584293+257751500+258244616+258570237+258417514
4107+258081863+258106091+258704451+259598428+260279013+260429811+260104104
4097+259482579+258673068+257896291+257544747+257742878+258156213+258560264
4087+259181042+260085825+260704045+260436421+259462691+258564920+258375152
4077+258968770+259813545+260002078+259056886+257702930+257293677+258204323
4067+259348997+259591646+258969115+258158828+257542764+257193720+257093878
4057+257038641+256843038+256712273+256948168+257445394+257879593+258197569
4047+258569174+259027026+259408861+259515457+259211650+258534025+257743338
4037+257110691+256727907+256688993+257193088+258187108+259158280+259605527
4027+259621190+259720630+260143247+260647830+261001961+261342584+261930282
4017+262726659+263325709+263365600+262997272+262745110+262804342+262758905
4007+262245901+261608541+261513556+262159624+263082629+263500073+262866679
3997+261429665+260128590+259656799+259851338+260216131+260612423+261162242
3987+261932725+262934964+263930594+264306452+263792327+263122807+263308695
3977+264398620+265453999+265602612+264793245+263612072+262589427+261808627
3967+261287058+261479499+262854867+265050436+266962891+267720412+267352486
3957+266569531+265997697+265699867+265599221+266011319+267074401+267995135
3947+267907996+267198959+266916103+267329609+267832324+267943058+267867071
3937+268059713+268565216+269034908+269369985+269811484+270289224+270431744
3927+270169581+269748285+269332623+268958231+268805681+269229821+270419760
3917+271925117+272664359+271924571+270195044+268565790+267668767+267577576
3907+268398496+270314946+272900168+274900452+275280247+274176182+272481172
3897+271027087+270297099+270545352+271697527+272834843+272720315+271842260
3887+272188229+274432656+276707805+277202646+276558560+275904100+275295939
3878+274807393+274929824+275629204+276496396+277792988+279770394+281234050
3868+281037413+279981372+279184248+278452075+277211928+275805637+274882777
3858+274828746+276496798+281038246+286703474+288065678+284171937+278752060
3848+274644381+273177966+274485307+277370169+280164099+282211746+283833039
3838+284995559+285166733+284352307+283015796+281519722+280240317+279677852
3828+280017326+280827987+281828013+283599097+286380267+288507292+288434351
3818+287194721+286222946+285333538+283838585+282253476+281790479+283172025
3808+285642088+287170867+287275135+287886314+290117204+292130535+292086765
3798+291164709+290959220+291404456+291926196+292588560+293600169+294978180
3788+296982717+299859446+303004776+305577698+308084864+311904830+317106400
3778+322049772+325657237+328617053+332158560+336861554+342474504+348524757
3768+354973199+361542089+366990245+370565838+373206241+376009856+378677015
3758+380341303+381227606+382849589+387071193+394289858+401416931+404747460
3748+405601317+407621718+411617485+414812190+415688320+416874695+421090809
3738+428351032+436205392+442090622+445410029+446801433+447247616+448127597
3728+450561132+454334396+457979136+460394708+461519120+461428993+460265035
3718+458525047+456720079+455575319+456303439+459244114+462128287+462310899
3708+460075266+457443744+456228716+457231588+459608131+461401287+461781399
3698+461783411+462649596+464537392+466981704+470092202+474347144+478621398
3688+480313103+479304484+478176220+478475573+479511869+480071403+480681230
3678+483356839+488317024+491952482+491929892+490848245+490861867+490133661
3668+486557235+481520861+477508655+475639654+475624192+476742770+478598579
3658+480695859+481924539+481709566+481148969+481735115+483710280+485381149
3648+484388997+481047920+477685174+475602178+474379735+472983617+471426040
3638+470957382+472279753+474480323+476460949+478733713+482242371+485429604
3628+485367181+483057659+481943191+483460877+487017645+491066724+493544891
3618+493622431+493211051+494300630+496098241+496476628+495307842+494196420
3608+493769693+493563284+493796708+495346411+498181122+500897082+502202151
3598+502373095+502697107+503999475+506221456+509179921+513181350+518248562
3588+522467435+522721551+518834909+514289093+512125396+512470904+513683547
3578+514691621+515283774+515160826+514407501+514211841+515784017+518808066
3568+521788431+523896660+525366121+526069152+525290996+522973139+520521642
3558+520001166+522237747+525653518+527559133+527134590+526275790+526940655
3548+529071876+531119407+531495553+530027529+528280787+527709384+527692658
3538+526362297+523283758+520037781+518300466+518813584+521401824+524436622
3528+525264268+522996246+520022721+519223240+520784093+522537560+522768972
3518+521856371+520998376+520477613+519952826+519678649+520267871+521460281
3508+522211997+521900976+520539116+518371165+516246094+515646584+517531909
3498+521413550+525527926+527921541+528017416+527148270+526913582+527388247
3488+527841989+528181865+528356832+527619774+525734047+523979891+523748881
3478+524785349+525630469+525325598+524074617+522359489+520293679+518136879
3468+516494463+515679922+515435117+515122429+513881277+511347125+508760322
3458+508295830+510670822+514059348+515694464+514396235+511362357+508611737
3448+507027432+505949291+504535298+503121362+502710212+503265463+503408012
3438+502237329+500495301+499397904+499223856+499631730+500309872+500620778
3428+499686565+497655818+496238318+497066712+499584367+501189019+500022762
3418+497288582+495881199+497021475+499052338+499547638+498257225+497144999
3408+497555804+498466335+497894358+495535403+493204096+492600332+493723307
3398+495449414+496707580+497151896+496890422+496127613+495556555+496213315
3388+497916257+498694413+497270936+495060163+494036282+494260165+494768570
3378+495118217+495105687+494601018+494176475+494470022+495177996+495803659
3368+496550317+497549883+498411270+498791956+498579570+497857456+496965375
3358+496244986+495807223+495810787+496497551+497654726+498616471+498976580
3348+498848228+498438170+497924132+497631332+497856823+498503639+499104414
3338+499204141+498449091+496820470+495244959+494995039+496080825+497346751
3328+498227393+499072225+499889870+500161288+499792155+499316341+499167699
3318+499253630+499185173+498740454+498232336+498440814+499885214+502072880
3308+503817150+504493051+504408268+503919923+503172404+502587723+502553293
3298+502926162+503515498+504303426+504969785+505263792+505682357+506512819
3288+506783662+505637351+504013557+503578208+504643647+506073447+506880285
3278+507272122+508009238+509163540+510023202+510098270+509616650+509056283
3268+508677321+508430275+508252376+508356759+508727616+508618635+507478071
3258+506117648+505896065+506968689+508347504+509533362+510957702+512748990
3248+514040954+513744821+511694358+508868325+506619329+505733571+506159321
3238+507503534+509428979+511368220+512330597+511718097+510050619+508308304
3228+506921096+505835425+505035081+504444021+503815656+503112223+502578814
3218+502320387+502101965+501708001+501240119+500785572+499994310+498608022
3208+497414979+497815668+500121455+502751252+503418358+501167522+497231735
3198+493950236+492816799+493507817+494677120+495278355+494982911+493836599
3188+491998638+489831204+488079347+487501794+487999393+488570049+488520501
3178+488149989+487892366+487608993+487009023+485891738+484066710+481863093
3168+480352592+480238610+480841253+480740722+479377166+477703136+477128744
3158+477880805+478669049+478259795+476907420+475715498+475230200+475199448
3148+475087536+474432271+473170425+471776923+470781984+470226675+469768191
3138+469144367+468350547+467387595+466118852+464676464+463724806+463793868
3128+464509601+464974638+464762252+464131990+463515265+463122882+462871151
3118+462578696+462384271+462722653+463445542+463363721+461469860+458395373
3108+455823112+454664960+454563279+454927124+455569082+456283954+456675417
3098+456643660+456517176+456549422+456521660+455991470+454957099+454064875
3088+453884936+454172218+454242946+453902122+453487667+453177939+452796276
3078+452251831+451739747+451393606+451050540+450592084+450265515+450317132
3068+450527363+450441862+449843789+448833013+447812869+447377894+447687621
3058+448046810+447635545+446501534+445368500+444723150+444487513+444367151
3048+444278748+444436213+444941255+445408419+445314383+444646990+443896021
3038+443458488+443213108+442677055+441594402+440310054+439425129+439202914
3028+439461198+439735374+439430044+438281433+436727075+435432610+434613873
3018+434112021+433807495+433641092+433547630+433600885+433877763+434131736
3008+434015110+433562230+433077133+432632874+431964303+430884983+429698321
2998+429059610+429260558+429785115+429868719+429346432+428638343+428064785
2988+427432454+426280739+424582597+423130724+422834792+423629531+424520490
2978+424658038+423981218+423010650+422406311+422456405+422707618+422475948
2968+421771078+421087073+420489488+419737744+419074690+419026609+419529122
2958+419934726+419886730+419687995+419691415+419763380+419632873+419443478
2948+419531508+419836292+419948751+419630516+419015113+418384880+417846528
2938+417183589+416150138+414935771+414052887+413721547+413682605+413667947
2928+413676569+413711373+413588971+413136234+412357848+411334341+410224586
2918+409439820+409398952+409936959+410358283+410258930+409857896+409389870
2908+408687357+407569584+406300122+405395052+405090009+405184476+405374848
2898+405495468+405391086+404879289+404011379+403141514+402597644+402391494
2888+402283146+402087572+401899729+401928268+402110506+402103954+401739563
2878+401243286+400892144+400728931+400721028+400888379+401114992+401085361
2868+400581238+399690595+398670048+397797108+397327990+397295801+397357879
2858+397111235+396533050+395925722+395519285+395327534+395300720+395359033
2848+395289569+394851174+394101613+393426317+393070864+392846005+392472072
2838+392011174+391712252+391597265+391447904+391074144+390436870+389608736
2828+388763961+388138614+387828283+387672370+387505766+387412074+387454350
2818+387353014+386831015+386092836+385553593+385281945+385082060+384871571
2808+384624122+384195412+383514712+382771503+382230593+382012229+382124026
2798+382510892+382938366+382993489+382439675+381518912+380720811+380314489
2788+380211543+380165761+379987603+379622954+379087045+378391544+377648623
2778+377122399+376929067+376796519+376394709+375779220+375255496+374969393
2768+374833770+374711712+374541085+374345454+374123037+373722233+373007189
2758+372179630+371661539+371574745+371590121+371382592+371009004+370734827
2748+370665076+370668295+370580984+370361671+370048092+369681489+369302671
2738+368931440+368551185+368191019+367965613+367902616+367791968+367372742
2728+366653157+365934550+365523601+365460402+365519577+365457184+365208355
2718+364857530+364539611+364373323+364327167+364146107+363603214+362827644
2708+362189479+361877912+361783129+361758470+361783301+361843051+361806580
2698+361517459+360982613+360401123+359961262+359658144+359370603+359037108
2688+358717925+358579457+358756608+359120395+359320021+359161522+358781899
2678+358419865+358202852+358111373+357983022+357662545+357210269+356774402
2668+356350664+355944974+355753108+355850363+355953481+355782222+355396707
2658+354959662+354466834+353909025+353470659+353383175+353667411+354121009
2648+354533194+354792225+354737533+354149203+353096353+352051808+351422093
2638+351182231+351141449+351302047+351733861+352286065+352623038+352504890
2628+351987575+351382288+350983007+350800137+350635372+350424193+350363035
2618+350617898+351032296+351253592+351077187+350546854+349812497+349067219
2608+348571948+348520072+348804595+349048969+348973786+348702397+348632071
2598+348985311+349490239+349562835+348934729+348045034+347595746+347755970
2588+348042907+347967494+347545394+347142751+347039058+347209456+347448311
2578+347643310+347834401+347973817+347850897+347438310+347078058+347053773
2568+347181377+347101596+346796667+346522491+346381781+346230754+345933269
2558+345571839+345428859+345704214+346212619+346547868+346581982+346529187
2548+346546776+346597386+346640496+346692486+346760369+346825493+346813825
2538+346646158+346433829+346438571+346712546+347024918+347233798+347442621
2528+347720563+347953929+348036412+347984163+347813564+347503147+347160196
2518+347062452+347385486+347944387+348336828+348345536+348098030+347836010
2508+347682339+347681074+347879579+348243596+348590025+348697052+348455954
2498+347960252+347494094+347305216+347329703+347297572+347116540+346961174
2488+347025062+347351660+347796119+348038223+347833366+347363328+347115218
2478+347324156+347735191+347983157+348039832+348175139+348567665+349083342
2468+349463626+349624166+349660090+349623648+349474662+349277249+349234053
2458+349406031+349591259+349628045+349610974+349632558+349570077+349355622
2448+349198157+349276415+349440691+349456613+349338091+349254630+349303344
2438+349506189+349853710+350253450+350556165+350677763+350668710+350685207
2428+350858335+351151192+351417724+351590019+351711099+351874283+352190793
2418+352630108+352906958+352812031+352555989+352465602+352547568+352669252
2408+352886467+353292817+353805102+354294712+354710518+355000300+355120950
2398+355174521+355396046+355959603+356803832+357630615+358120742+358167875
2388+357854756+357253378+356349428+355079248+353303681+350828819+347627647
2378+343989603+340271692+336521994+332557783+328450391+324642180+321418763
2368+318601065+316037973+314017198+312831369+312374465+312552422+313692152
2358+316183827+319988733+324816227+330586757+337118458+343259529+347097515
2348+347313350+344361984+340610677+338547396+338467787+339131645+339910577
2338+340944804+342212369+343368107+344119449+344460446+344717982+345364051
2328+346633282+348376690+350283052+352092101+353690661+355234328+357037284
2318+359110883+361043541+362572608+363973496+365562543+367122218+368231973
2308+368941872+369691662+370672347+371620700+372223803+372482719+372647886
2298+372935800+373380058+373928785+374537923+375060497+375256387+375152867
2288+375161029+375560798+376139961+376577034+376856499+377097251+377286071
2278+377357030+377344614+377369589+377516075+377704809+377746682+377594649
2268+377411520+377318116+377250089+377130963+377012009+376951139+376879031
2258+376685584+376387323+376128580+376026812+376075929+376174621+376199825
2248+376115072+376033653+376095817+376296420+376535649+376805658+377185137
2238+377664717+378109435+378410713+378594619+378751106+378929407+379157198
2228+379451550+379725900+379821861+379709805+379485521+379122509+378462646
2218+377539268+376679635+376165711+375939789+375745192+375481419+375291277
2208+375293462+375365225+375294094+375089266+374986464+375103291+375258169
2198+375275241+375307860+375625980+376219282+376878916+377531968+378209737
2188+378820628+379227179+379465144+379697476+380011831+380371968+380735698
2178+381146992+381673532+382280342+382823838+383176015+383336123+383435620
2168+383626711+383944543+384288413+384522728+384586099+384560837+384637486
2158+384924682+385320830+385641709+385790149+385759168+385614550+385498211
2148+385517984+385639783+385760748+385845243+385924277+386030873+386202794
2138+386486397+386860214+387204401+387448401+387700276+388097861+388583619
2128+388963903+389172870+389387296+389836067+390495873+391075783+391395454
2118+391625631+392013157+392568494+393156077+393691124+394174440+394674856
2108+395251029+395841630+396356272+396866976+397554487+398462863+399391213
2098+400023544+400203972+400128501+400171151+400504790+401000062+401446044
2088+401743184+401918094+402050268+402191437+402346057+402513609+402700446
2078+402906740+403161000+403557521+404181460+404970509+405692623+406108946
2068+406196660+406218674+406500409+407051206+407524233+407737625+408036776
2058+408800218+409786938+410412803+410551817+410617889+410938567+411470826
2048+412101547+412877749+413881254+415060070+416220751+417151803+417838710
2038+418537229+419442271+420363206+421000106+421426316+421962254+422707503
2028+423532390+424403836+425430791+426660966+428035126+429516945+431124155
2018+432786000+434302939+435587201+436836544+438327963+440121406+442047225
2008+443916081+445665237+447326766+448897850+450275804+451385185+452362076
1998+453506146+455000007+456757526+458582268+460356513+462019651+463493107
1988+464771420+465997714+467298473+468581845+469635097+470466767+471411239
1978+472764132+474455377+476230255+477991424+479833553+481900282+484245298
1968+486683460+488879230+490753921+492643097+494938192+497698353+500589739
1958+503189130+505410077+507518939+509732126+512064123+514503434+516957919
1948+519141217+520947680+522803345+525197419+527972870+530513057+532580361
1938+534477297+536481374+538596961+540766578+542985858+545269630+547679511
1928+550298215+553129133+556074550+558952544+561604931+564102296+566591327
1918+568939418+570971373+572879516+574848531+576669651+578137445+579373080
1908+580549281+581792963+583338181+585232875+587018588+588150415+588733888
1898+589523195+591012544+592756699+594070506+595208483+596949649+599137373
1888+600637010+600885609+600546308+600567575+601256983+602216832+602967168
1878+603530983+604304771+605458900+606695225+607587420+607969198+607939539
1868+607628058+607171384+606774201+606541410+606412024+606335461+606251829
1858+605940692+605296521+604565785+603909658+603189038+602416918+601793324
1848+601281010+600768063+600393125+600187636+599726824+598620231+596962582
1838+595171984+593660160+592604091+592039011+591924800+591837718+591151989
1828+589994986+588998351+587974240+586224625+584076619+582649118+582251936
1818+582107030+581445155+580304303+579218690+578537444+578143308+577665999
1808+576905316+576023467+575443558+575629331+576683618+577969835+578488127
1798+577987769+577301579+577422401+578592797+579995007+580414951+579799922
1788+579311232+579827109+581163448+582553358+583600862+584382582+584954445
1778+585470667+586533921+588818843+592276229+595769195+598001637+598848999
1768+598826524+598359504+598229658+599329296+601475175+603308596+604057092
1758+604329717+604876806+606021451+608030759+610963703+614136048+616431833
1748+617522448+618068904+618811423+620113792+621949914+623800348+624797443
1738+624840725+625232217+627389477+630945498+633758540+635125630+635878725
1728+636223142+636082202+635974026+636500135+637825668+640200774+644152885
1718+649195438+652654147+652428597+650051134+648156211+647945319+649166526
1708+651002993+652886881+654714611+656775420+659615650+663277663+666315104
1698+667454921+667438194+666981463+666145253+665637882+666297573+667898259
1688+669829912+672762397+677675621+682519583+683890179+682890842+682409280
1678+683543348+685895233+688142793+689138106+689517240+690745863+692780864
1668+694102487+694514845+695525045+697736910+699678220+699733515+698593641
1658+698024652+699048188+702214153+707255040+711012296+711450231+711376198
1648+712600912+713782861+712846923+710628161+709306250+709721711+711827756
1638+715535753+720082891+722750855+721548443+718671024+716903245+716867953
1628+717876544+719359225+721234835+722904842+723113780+721798708+720605321
1618+721041245+722958010+724647445+725228619+725469573+726241464+727753920
1608+729521584+730747389+731230274+731771672+733354368+736109988+739251870
1598+741904314+743762106+745033953+746264817+748268089+751453712+755147914
1588+758538049+762058892+766448365+770925033+774061799+776222795+779415028
1578+784807976+790601900+792974075+791863918+790930222+792033080+793994967
1568+794871068+794495152+793477422+792379335+792696334+796193151+801590640
1558+802471914+797116788+790743874+785520663+781333691+778556401+777794971
1548+779041240+781646206+784506669+786510631+787551583+788206216+787948306
1538+786417342+785224529+785627402+787355578+789466164+791782872+794922569
1528+798967280+803086024+806679292+810403784+814838321+818861649+821353036
1518+823072820+824740182+825841775+826275630+827327101+830467085+836225315
1508+843776097+849877535+850958723+848856356+847281880+847659520+850380997
1498+855802800+863259258+870430561+875605949+878967344+881552136+883880741
1488+885096603+884716032+884656081+887413425+893111474+899369659+904478256
1478+908898020+912361326+913276283+912864731+916021730+924529256+934009449
1468+940411620+943732435+945937173+948303370+950580187+952305144+953534168
1458+954692321+956436418+958172584+958262022+956216100+953284363+951457897
1448+951456230+951652063+949855026+946166975+942915538+941887519+942653777
1438+943708007+944031271+943377270+942345975+941853893+942082834+942655846
1428+943520796+944967898+946799881+948435803+949693164+949934061+947340475
1418+942065360+937653241+936475833+938236082+941623459+944569393+945127518
1408+943856476+943073491+943114187+942456795+941289101+941417280+943822735
1398+948191400+953159690+956081368+954903902+950908681+947135044+944814140
1388+943076940+941524996+941719104+945278804+951594928+958066189+962291213
1378+963975762+964839735+966978888+970749882+974067133+975136365+974870351
1368+975434453+977923197+981608546+984767844+986352781+987141399+988863826
1358+992271320+996568826+1000223826+1002125474+1002624856+1003637298+1006706698
1348+1010350317+1011081915+1008322674+1005651031+1006581278+1011854323
1340+1019901095+1027276967+1030154731+1027904987+1023438952+1019370215
1331+1016239312+1014627130+1016255751+1021803778+1029268629+1035496637
1322+1038864930+1039989802+1039986698+1039484098+1039091629+1038864125
1314+1037627513+1034592831+1031843476+1033289773+1040532408+1049903160
1305+1053995349+1049229846+1041205721+1038140115+1042474177+1050846167
1297+1058458854+1062130524+1060538919+1053886598+1044798529+1037953881
1288+1036015331+1036847633+1036119254+1032069370+1027097057+1024834437
1280+1026422134+1029613620+1030561340+1026997157+1019784067+1011300682
1271+1003906416+999125394+997059700+996839209+997772099+999617993+1001781403
1261+1003134698+1002729353+1000435695+997132584+994038352+991377171+987554446
1251+980920288+972632332+965688935+961091388+957189169+952653124+947811749
1241+943278865+939479592+936232695+932022904+925559632+917757723+910674363
1231+905060350+900327955+896023725+891778986+886734996+880534175+874405549
1221+870223003+868526038+868175529+867823582+866861665+865429393+864085409
1211+863085210+862352808+862319240+863906304+867310291+871113416+873286655
1201+873446045+873433802+875367812+879941045+886367875+892902594+897657175
1191+900095279+901224059+901606182+901192618+901370057+904197354+909707272
1181+916269926+922781365+928396126+931951112+933399018+934171139+935971681
1171+940185094+946723319+952593173+954736867+955375923+959715331+968594059
1161+977550155+982560290+984378019+986120794+989318488+993634617+997610352
1151+999833196+1001077510+1002798673+1004337972+1003663393+1000597902+997939594
1141+998956750+1004841146+1012904242+1017006777+1013850698+1008209439
1133+1007010074+1010495051+1012773764+1010858090+1009232113+1013132321
1124+1021239790+1027626902+1030467189+1032151566+1033296555+1033236202
1115+1033047440+1034050340+1034717101+1033721788+1033013987+1036033035
1107+1043789306+1051795497+1052437312+1044896589+1036910860+1033582113
1098+1032534838+1029592927+1025260935+1022849559+1024019494+1028828106
1090+1036915689+1048062439+1060737338+1070415375+1073741823+1073350503
1081+1072063654+1066784976+1056366489+1048963142+1052041049+1062452063
1073+1069988878+1067262860+1055998621+1044195915+1036346068+1030679173
1064+1025285651+1022116007+1023921665+1028967322+1032907190+1033785015
1055+1032383323+1031427785+1033197346+1037370351+1041501280+1041391840
1047+1035739315+1028151919+1022251083+1019181568+1016393012+1011539911
1038+1006628986+1004778954+1005097505+1003997119+1001276044+1001213161
1030+1006749463+1014217417+1015880871+1009579634+1001478026+996892090+995135864
1020+994030535+993779925+995220934+996815757+996134511+993325263+989565190
1010+987105072+988109697+990796744+990664311+985982844+979623322+974773325
1000+971482859+967467003+960751742+951600216+942187676+934990853+931683200
990+931758038+932078314+929260501+922968805+915996094+910998662+908046002
980+905805225+904084407+903811955+904974820+906085437+906052789+904501420
970+901007534+896140179+891796173+889038253+886655330+882928250+878041581
960+873513871+870225129+868378546+868284337+869673500+871033922+871197393
950+870891488+871909908+875382182+880873419+886367473+889454634+889748124
940+889724500+892780392+900655186+911921091+922672671+929864667+934120155
930+937872065+942125024+946458798+950257785+953380928+955660159+956084644
920+954539828+953661255+956832164+963945930+971041877+974269921+972139964
910+965073446+955804892+948383726+944639230+943332896+942879383+942961349
900+944106454+947110672+951314314+953436798+951200849+947352546+946779821
890+950819301+956807965+961792924+964583491+966032892+968696603+973766516
880+978758487+980025908+978946330+980721984+986091135+991332337+994567853
870+997142700+998852827+996060938+987622501+979239935+977405422+982860333
860+991374182+998491167+1003168266+1006251461+1006625077+1002756943+997889932
850+997545286+1002514150+1008480742+1010540919+1007564291+1001895442+996469961
840+993691062+995071372+999951948+1004216115+1003390711+998209748+994233207
830+995022170+998300795+1000092083+999597415+998580375+999935854+1005798293
820+1015345163+1025733760+1035007027+1041534733+1042926655+1039935771
811+1037063066+1037659817+1041016384+1044223275+1045623818+1044747257
803+1040455730+1032256638+1023258237+1019224563+1022579405+1028964563
794+1032969383+1033926989+1033466579+1031930040+1029071129+1025714217
785+1022837718+1020562338+1017913342+1014068545+1010959024+1010170982
777+1010054069+1007475428+1001781403+996931406+996415700+999803307+1004704805
767+1009344083+1011985147+1010852228+1007309657+1006386308+1009822197
758+1012286913+1007929170+999812273+998135139+1008586389+1024403457+1032496672
748+1028570369+1019606341+1013151864+1011783049+1016289204+1025208628
740+1030999908+1027201439+1019313886+1018098656+1026041965+1034732621
731+1035769779+1030844829+1025421417+1021225651+1016738004+1010935228
723+1004043217+997587705+994810990+996160032+998658087+1002607957+1010800611
713+1021351301+1026448919+1020158143+1008082180+1002368957+1008300027
704+1021106783+1033631315+1041852365+1041458976+1030604565+1014186838
696+1000942548+997308700+1004411890+1017142199+1023973511+1018595163+1008915287
686+1006334921+1012987472+1019700147+1016586028+1004191399+989881672+978875860
676+973070900+972185373+972587843+967347676+952852175+936333227+931142377
666+941757213+962264140+988209136+1012248287+1021716295+1015874318+1008464533
656+1009315803+1013515018+1008988630+990741449+967780381+956176209+963398783
646+981018233+993802572+995932873+989638074+981077781+971031646+953304251
636+931819944+920693541+926522469+941548275+954840158+965339346+976928113
626+986128611+985391266+976892821+970526402+971053488+972827877+968436106
616+960077911+951883360+948416777+958074984+970073579+957753616+928700651
606+913294792+922733657+943478721+950740094+937962365
##END=
