##TITLE=<SNM>
##JCAMP-DX=4.24
##DATA TYPE=INFRARED SPECTRUM
##DATE=29/4/2025
##SAMPLING PROCEDURE=Instrument type and / or accessory
##ORIGIN=Admin
##XUNITS=1/CM
##YUNITS=ABSORBANCE
##RESOLUTION=4
##FIRSTX=4497.3318
##LASTX=599.83466
##DELTAX=-1.4281778
##MAXY=2.1104004
##MINY=0.38394079
##XFACTOR=1
##YFACTOR=1.9654636e-09
##NPOINTS=2730
##FIRSTY=0.39275965
##XYDATA=(X++(Y..Y))
4497+199830542+200283961+200312801+200101550+199928374+199584037+198735849
4487+197872847+197989223+199291786+200959048+202125674+202519033+202295833
4477+201780716+201304765+201020913+200907267+200946781+201085022+201035546
4467+200471042+199445735+198369026+197707859+197914030+199214060+201029344
4457+202068510+201640079+200500671+199917396+200383127+201401368+202069071
4447+201845962+200895030+199623325+198255683+197113515+196669587+196966858
4437+197526646+197981566+198330133+198640762+198929011+199205159+199444356
4427+199592680+199637517+199642460+199672771+199657820+199389420+198697199
4417+197619549+196460111+195702431+195660005+196133090+196642597+196961157
4407+197106813+197024690+196745918+196676502+197257942+198363856+199201884
4397+198986873+197818579+196637791+196360338+197293242+199121293+201034499
4387+201999533+201392240+199530436+197524690+196420566+196283613+196280535
4377+195845767+195343629+195345054+195879671+196753014+197981627+199400899
4367+200306888+200102096+199084204+198099883+197554000+197238261+197071452
4357+197441051+198516835+199627737+199928798+199542475+199345205+199711346
4347+200225114+200482036+200454894+200261171+200152983+200431482+200935151
4337+201016653+200325447+199199215+198108056+197129875+196225524+195797745
4327+196436623+197917927+198999473+198746191+197714652+197240110+197880277
4317+199147616+200444765+201464492+201845765+201388055+200651255+200540186
4307+201173453+201736592+201539958+200818578+200387691+200725720+201483112
4297+201864765+201498957+200842111+200648465+201124643+201774150+202140170
4287+202321247+202493271+202416910+201882354+201253362+201057638+201236577
4277+201201596+200615440+199809162+199366478+199636183+200661035+202113696
4267+203311512+203823915+203902095+203836637+203479897+202911542+202710451
4257+203047751+203375803+203389616+203449146+203835636+204397819+204942778
4247+205299715+205110359+204199048+203129450+202856319+203739245+205201094
4237+206338062+206666431+206300882+205595211+204757971+203851527+203020215
4227+202458472+202236379+202383142+202972937+203926660+204916379+205622110
4217+205981761+206172148+206427341+206772709+206866553+206404203+205721049
4207+205611238+206412284+207519790+208069828+207979062+207888220+208092557
4197+208042549+207138486+205678562+204646402+204710480+205631875+206574104
4187+206916864+206701822+206393740+206391617+206789146+207479229+208383899
4177+209565824+211030206+212369387+212953633+212726309+212323853+212092571
4167+211638273+210766400+210131328+210353527+211091086+211531389+211404520
4157+211059228+210782625+210508159+210186234+210003216+210104793+210444808
4147+210978243+211644156+212187598+212398591+212367992+212173557+211667871
4137+211003019+210889827+211738000+212943049+213629493+213693041+213503049
4127+213154285+212687113+212405066+212382154+212272344+211991116+211933421
4117+212335801+213089569+214137833+215391221+216375831+216573404+216034860
4107+215257529+214621426+214309432+214560243+215480592+216608583+217189583
4097+217020303+216589083+216363291+216380652+216426232+216192571+215510584
4087+214780501+214802260+215862032+217351539+218454799+218866004+218763063
4077+218433070+218015497+217475921+216885747+216623518+216986793+217677589
4067+218077695+218019833+217816861+217645777+217506732+217594178+218066778
4057+218576937+218603609+218219393+218052161+218470038+219133055+219368643
4047+218904003+218230311+218136497+218881531+219998377+220820606+220978802
4037+220580833+220171235+220348112+221205185+222257012+222931947+223006367
4027+222663471+222255996+221970886+221783851+221709749+221824033+222080727
4017+222405852+222814025+223184275+223222228+222919590+222715026+222943593
4007+223450825+223933312+224376117+224939468+225548005+225810931+225437679
3997+224664987+224145473+224305063+224827504+224969460+224465594+223896056
3987+223997542+224843744+225853145+226373933+226132144+225377178+224778770
3977+224904987+225635010+226338588+226668808+226814176+226953372+226968959
3967+226848899+226927383+227542515+228599285+229489141+229529732+228648322
3957+227524441+227008868+227587807+229275904+231537131+233246062+233385395
3947+232257950+231435282+231959603+233088352+233294932+232200967+230699194
3937+229679270+229707488+231212128+233918389+236354750+236921634+235667654
3927+234195736+233820982+234267351+234376403+234018632+234297222+235763696
3917+237293552+237054416+234461816+230804000+228069141+227480225+229078224
3907+232531324+237712854+243888486+248894899+250589030+248858993+245155021
3897+241111701+238127456+237375235+239189200+241784878+242115401+240126015
3887+239018631+240557448+243030063+244530048+245619600+246257674+244616037
3878+241269002+239521557+241116038+245016340+249570153+253276763+253996914
3868+251624587+249263147+248963906+249173943+247536370+244708668+243087910
3858+244277432+249435354+259213411+268926373+268924614+260009135+250193928
3848+243949032+242221708+244092019+247888273+252290228+256791789+260883918
3838+263283918+263131469+261205647+258584813+255653533+252828075+250874110
3828+250021798+249872973+250954443+254969560+261577686+265994183+265217321
3818+262694684+261001492+258307179+253493639+248962647+247501874+250175566
3808+255496080+259893441+261967042+264037579+267082279+268305903+266496563
3798+263971681+261640855+258482160+254782388+252342616+251958098+252855262
3788+254224647+255913639+257651804+259121917+260854745+263344600+265349755
3778+265154122+263489407+262857534+264896594+269353272+274295136+277562550
3768+279107629+280407857+281846704+283038667+284715452+287928886+291953904
3758+295041940+297407368+301309596+308737525+319396173+329034624+333193592
3748+334053304+336628042+341821824+344893120+343257245+341065403+342858882
3738+350206690+360894906+369751583+373359285+372914858+371288929+370346458
3728+371078801+373948550+378544061+383737479+388312732+391280707+392565559
3718+393456658+395899569+401749909+411994880+424668691+434303260+437844367
3708+438314329+440023350+444848671+451766456+457638206+460065863+459973581
3698+459667228+460630654+463807242+469578340+477121750+483957746+486273773
3688+482650362+476797565+472876535+472244845+474634806+479405510+486030164
3678+494077198+501377909+503709402+501868735+501638197+504686293+506556164
3668+503750100+499102610+496198016+495559715+496198623+497473892+499559077
3658+502694725+506064610+508878378+512962926+521743940+536008319+549087437
3648+551001614+542897658+533711124+528711762+528012809+528963893+529006046
3638+527628093+526299936+527196494+531839040+540608348+552444889+562923916
3628+565435394+560351180+554987602+554958489+561709056+571971071+578387931
3618+577147355+573385718+572811101+575140805+577088644+577714330+578147021
3608+578149751+576730554+574673785+573641973+573985021+574710418+575144444
3598+576333163+579847218+584987353+589124851+591735616+595214918+600725515
3588+605604301+606782588+605010821+602335705+599616554+597407851+596532825
3578+597387715+599169610+600448821+600797085+601552809+604298888+609133762
3568+614546468+617619947+616307862+612632169+610250547+610378826+611413125
3558+611410578+610039782+608316416+607361086+607447212+608404907+610762875
3548+615133700+620128028+622645875+621844480+620578187+621692789+625460673
3538+630095214+632961324+632166540+628187648+623383039+619841205+618760326
3528+620579340+623706496+624609604+621741493+618088484+617605633+620648665
3518+623524419+622576307+619018643+617810758+621409605+626546708+628103523
3508+625725540+623891727+625777034+629880384+632355228+631827556+630537427
3498+631020581+633468253+636080353+636917411+635530663+633380065+632549739
3488+633717169+635480444+636489572+637722263+640769783+644422913+645684475
3478+644257212+642881928+643494574+645291874+646045354+644459123+641384491
3468+638698760+637062794+635984280+635925811+637673013+639880685+640330662
3458+639296485+638738851+638615788+636535424+631726934+627225525+626919596
3448+631721233+638457486+642446022+641491663+636967570+631852726+628441658
3438+627629043+629182704+631722082+633383583+633589132+633423067+633887176
3428+634617790+634967995+635256638+635626736+635249360+633695152+631820945
3418+630888602+631221097+632092120+632824311+633485963+634197351+634529906
3408+634503583+634817881+635263370+634478109+631863098+629128299+629027496
3398+632357897+636551315+638105765+636563931+634452210+633545038+633353378
3388+633224675+633486327+633892635+633431619+632318716+631902764+632440748
3378+632690937+632296638+632921354+635758108+639900215+643886871+647125020
3368+649503549+650723807+650883079+650884474+651355800+651840410+651425429
3358+649894936+647992283+646839592+647350888+649628250+652594981+654268431
3348+652938696+648953072+644756135+642246053+641084567+640799442+642442686
3338+646217424+649790676+650751403+648897332+645360472+641853937+640445052
3328+641706250+644022853+646219607+648860941+651634375+652553677+651571600
3318+651558014+653848112+656262608+656870947+656506853+656437407+656524139
3308+656444867+656385428+656021819+654555193+652190796+650307370+649824156
3298+650492783+651989614+654416967+657165776+658866762+659178452+658882531
3288+658263820+657152312+656187884+656117831+656249810+655664579+655296057
3278+656727202+659756223+662779119+664811810+665704910+665198224+663131082
3268+659966928+656793009+655214298+656264488+658750492+660169688+659865579
3258+659488505+660537785+663164380+666713856+669699875+669730141+665459088
3248+659025124+654984003+655747733+659304608+662156041+663019483+662534085
3238+661241894+659494267+658178907+658230583+659901000+662812963+666097632
3228+668545001+668978117+666711734+662003562+656294389+652060941+651602048
3218+654815208+658310522+658142031+654119651+649977181+649086809+651482927
3208+654594253+655982699+655284594+653430220+651184822+649097181+647562928
3198+646556711+646088053+646598258+648225066+649723170+649686233+648881805
3188+648859546+649066855+647515983+644044566+640905461+639686538+639885477
3178+640547129+641236379+641438350+640655515+638914863+636555076+634256304
3168+633064796+633181187+633174576+631597806+628835411+626388831+625245298
3158+625541098+626829589+628139490+628087329+625662220+621471167+617965117
3148+617553290+620206876+623488755+624988679+624128513+621790318+619334882
3138+617901494+617815914+618380280+618360508+617262767+616113897+616168545
3128+617025921+616992805+615380736+613167181+611446362+610570729+610593898
3118+611217219+611412397+610381252+608791503+607943042+607870320+607259009
3108+605442846+603434173+602469382+602631383+603288851+603993687+604643088
3098+605200480+605592777+605518661+604466470+602497099+600331035+598492733
3088+597063894+596296100+596671900+597929640+598885455+598600512+596902923
3078+594203182+591468080+589815616+589608186+590243395+591199573+592469384
3068+593668959+594034448+593684910+593715418+594672264+595688731+595460922
3058+593677511+591259073+589333251+588159817+587217830+586134222+584958544
3048+583574162+581772919+580104928+579599636+580239151+580560546+579505201
3038+578078181+578207431+580280091+582531736+583037998+581621956+579212919
3028+576518515+574167158+572823050+572169221+571004096+569109267+567740230
3018+567789298+568663718+569133346+568508509+567096106+565873059+565421444
3008+565298320+564812680+563933954+562869329+561475850+559778807+558439429
2998+558152241+558874607+559891983+560467025+560401521+559953666+559305660
2988+558465630+557570892+556833485+556296594+556009831+555905328+555120127
2978+552770893+549657262+547602676+547286376+548032395+549282675+550814927
2968+551840249+551375473+549540507+547492107+546065754+545132199+544283980
2958+543564890+543237976+543245376+543211956+542792730+541897931+540706422
2948+539485498+538416992+537577204+536931382+536372109+535906605+535634642
2938+535492413+535293110+535018054+534872610+535022057+535352307+535470275
2928+535054809+534239100+533257387+531939176+530247835+528860845+528264939
2918+527835826+526821664+525580664+524821665+524336327+523496237+522441074
2908+521868216+522007109+522370414+522263303+521296267+519650718+517936086
2898+516700362+516135692+516105124+516224729+516112159+515669642+514964320
2888+514040166+513103638+512609446+512842774+513616572+514409961+514503183
2878+513328536+511170780+509184428+508358135+508647475+509225125+509339211
2868+508840652+508081107+507529598+507371054+507300061+506851752+505980243
2858+504996225+503966233+502848902+502078470+502048205+502278227+502004232
2848+501161169+500040169+498636863+497039957+495856121+495586765+495765386
2838+495222065+493484780+491558563+490818063+491357441+491991467+491720170
2828+490582127+489210512+488171695+487706009+487625281+487464857+487038230
2818+486652969+486424554+485814243+484437928+482821552+481691181+481072803
2808+480651575+480404115+480348831+480210635+479719142+478882235+477867103
2798+476836443+475824859+474703434+473444723+472336490+471715535+471614337
2788+471732578+471564754+470712108+469430562+468602632+468768515+469465103
2778+469847211+469578189+468778371+467557082+466052215+464642632+463697583
2768+463247364+463092489+462997204+462730366+462275567+461898221+461569547
2758+460684968+458991656+457290397+456510686+456548351+456503559+455746804
2748+454525819+453660224+453632445+454019829+454051520+453558510+452921331
2738+452319147+451558844+450514508+449356783+448321544+447470748+446758785
2728+446145290+445564486+444946867+444328186+443852311+443630628+443671477
2718+443869475+443907504+443342804+442016314+440236421+438472448+437083882
2708+436331524+436310205+436751751+437134829+437086459+436532949+435548749
2698+434299925+433066869+432092071+431418530+430965399+430642670+430317727
2688+429815255+429072086+428271389+427725066+427524187+427384778+426992602
2678+426365370+425708266+425134892+424676030+424333225+424041094+423750935
2668+423516030+423397668+423365279+423295317+423034514+422529070+421897895
2658+421313665+420878881+420626387+420502444+420369040+420100898+419605705
2648+418786812+417676183+416577775+415910694+415881824+416288981+416580595
2638+416248041+415318549+414376441+413983507+414133651+414324796+414098989
2628+413416714+412537442+411718974+411138170+410911939+410981931+411102022
2618+411085828+410919854+410606040+410147723+409667845+409264175+408839066
2608+408336685+407943539+407799885+407771227+407666299+407415260+407008831
2598+406560795+406371894+406622720+407057353+407193061+406816655+406187906
2588+405788300+405823934+405940780+405586542+404722008+403951758+403820992
2578+404179991+404419567+404207861+403739385+403316792+403049226+403005769
2568+403250773+403560674+403494503+402965678+402443949+402419871+402885890
2558+403416413+403637945+403597035+403608650+403746239+403756913+403517793
2548+403173896+402797399+402364010+402014746+401905087+401915064+401825693
2538+401605618+401360735+401226452+401372926+401853593+402412471+402682312
2528+402616444+402536990+402672577+402825390+402650985+402121827+401537323
2518+401182358+401122676+401240492+401390788+401579749+401926800+402409802
2508+402796337+402893108+402736929+402528589+402462418+402535564+402471334
2498+402003737+401285011+400797096+400809408+401119128+401395883+401603070
2488+401911152+402294806+402473062+402313426+402062115+402015322+402139264
2478+402199795+402124556+402016232+401909241+401768316+401699901+401924435
2468+402482918+403114366+403474457+403424874+403102751+402731955+402422600
2458+402234700+402298506+402620052+402922099+403017657+403113335+403355124
2448+403406102+402939294+402252168+401933017+402135928+402524010+402781023
2438+402914488+403073851+403294169+403506299+403639916+403626087+403421842
2428+403094988+402802979+402689135+402807831+403082069+403374685+403647406
2418+403926618+404133744+404162675+404047133+403877247+403725647+403726284
2408+403957308+404257414+404420932+404508816+404753153+405222994+405727497
2398+406065510+406281371+406544873+406875427+407230635+407700476+408269422
2388+408596458+408349574+407505783+406162584+404410196+402412562+400215292
2378+397527286+394078553+390120222+386274339+383080800+380879284+379682165
2368+378859421+377495084+375526806+373981939+373635949+374084471+374620240
2358+375519952+377888594+382498965+389012807+395820266+400711728+402304935
2348+400787604+397629576+394801859+393402374+392906635+392434368+391887348
2338+391479069+391219357+391126620+391375718+391999221+392652200+392931442
2328+392901753+392992094+393401889+393987848+394761616+396050835+397901600
2318+399697900+400808499+401398976+402108301+403074275+403880128+404431424
2308+405152910+406228452+407309392+408112849+408825843+409756548+410897443
2298+411984145+412835244+413474698+413939656+414187874+414321581+414646009
2288+415279762+415925918+416227389+416152301+415873393+415492044+415056684
2278+414704781+414598488+414726494+414874455+414843401+414641854+414376320
2268+414037851+413583720+413165767+413017109+413109178+413186752+413193606
2258+413439883+414249618+415538897+416813833+417598002+417820959+417728980
2248+417533196+417316001+417148601+417050648+416889799+416513272+415932953
2238+415264114+414580808+413950816+413487586+413240642+413159216+413233940
2228+413476244+413694804+413604038+413277184+413137867+413376896+413730528
2218+413914940+413944387+413985691+414177260+414566130+415044766+415460383
2208+415871210+416480762+417260201+417914848+418319822+418710026+419317032
2198+420074969+420816076+421516849+422189753+422745568+423148903+423577197
2188+424251435+425114695+425801336+426045612+426068327+426349903+427010070
2178+427650798+427894649+427864020+427970980+428357333+428756484+428942079
2168+429073239+429373982+429687340+429706961+429538076+429655134+430339380
2158+431455407+432738378+434010493+435102472+435848249+436297650+436773829
2148+437551569+438542623+439433024+440111872+440838452+441949870+443493403
2138+445205396+446806973+448266927+449784561+451559906+453587168+455651186
2128+457528487+459212217+460945833+462996355+465322390+467529243+469268105
2118+470573033+471705952+472871289+474183040+475633927+477031712+478271348
2108+479642720+481612727+484460945+488268890+492913862+497901973+502531722
2098+506363412+509366808+511658119+513209355+513716163+512747611+510145701
2088+506208113+501418849+496121534+490499792+484723447+479013153+473670439
2078+469132427+465815945+463705286+462243512+460844028+459388987+458125030
2068+457255341+456723574+456303862+455863590+455483665+455252945+455090580
2058+454883211+454655462+454512627+454514598+454660982+454996418+455652339
2048+456630928+457632596+458370124+459023559+460140526+462150169+465160964
2038+469101737+473858673+479307497+485304311+491693605+498307371+504947825
2028+511436254+517635798+523268610+527805500+530831792+532491959+533274006
2018+533388577+532656447+531017509+528828578+526507790+524158253+521686624
2008+518978694+515859422+512348703+509017392+506511342+504704277+502809721
1998+500384551+497949858+496504491+496454332+497141761+497617637+497678895
1988+497699426+497881958+498265855+498994468+500081473+501268190+502382913
1978+503563898+505021002+506779667+508707309+510719590+512891781+515249930
1968+517485442+519143061+520195797+521136207+522366593+523834917+525388336
1958+527130565+529239374+531703179+534345180+536937386+539377780+541847590
1948+544606770+547714943+551122796+554605191+557457230+559050558+559779534
1938+560638731+562150785+564181232+566346387+568367675+570255590+572165400
1928+574225020+576727097+579937650+583365822+586110446+588192933+590216162
1918+591784077+591963728+591192356+590970794+592064168+594064167+596080664
1908+597364242+597629716+597201877+596828018+597147108+598204394+599491429
1898+600523787+601227168+601768123+602447183+603678418+605341678+606264862
1888+605440662+603605272+602324787+602165030+602555993+602700769+602207122
1878+601308988+600577342+600318116+600684878+602246667+605409426+608949926
1868+610166544+607682481+602942467+598171520+594574190+592215798+590500256
1858+588883880+587362728+586153994+585182410+584285974+583606550+583453282
1848+584171523+585994298+587996117+587648399+583866504+579113389+576011040
1838+574684641+573669873+572112329+570851374+571276120+573271328+574746082
1828+574138409+572113724+569495317+566193544+562757729+560512696+559852802
1818+559847586+559600793+559310937+559681763+560693985+561402946+561069784
1808+560115425+559552089+560059383+561787722+564286524+566476425+567386205
1798+567222869+567411496+569580169+574074422+578462775+579151721+576524277
1788+574428690+575087431+577703898+580615739+583362972+585943653+587717178
1778+588669536+590442394+594885517+601868563+608097402+609779099+607555051
1768+604677721+602899283+602773794+604553566+607256158+608963027+609595930
1758+610644785+612140282+613418341+615826467+621433926+629348224+635161232
1748+636072892+634174060+632800414+633376426+635594105+638262005+639951769
1738+640903945+643826583+650614876+657846413+659338513+656002592+652541304
1728+650780880+650866339+652732479+655704245+659236132+664405866+672782816
1718+682907454+688934443+687609258+682837522+679002861+677678888+679265605
1708+683856961+690399553+696618808+701879702+708484644+717846886+726550629
1698+730253858+729243093+725027900+719815225+717050586+718100654+721773072
1688+727327945+736346715+748890519+757670077+756277446+750597994+747262194
1678+747820739+751907652+758084269+763937794+768490514+772217155+774104221
1668+772744767+770229589+769990256+772809786+776538731+778887662+780458366
1658+783609905+790283444+801391675+814017480+818871156+815247563+812843500
1648+814899481+817445834+815362317+810002257+805884411+804975662+807315980
1638+812465941+818217085+819005015+812679739+805171447+801389006+801364564
1628+802659423+803435587+803806170+803854328+802604290+800365686+799034981
1618+798859818+796917863+791037894+784009480+779356259+777701612+777319868
1608+776109436+773777913+771502432+769936033+768731000+767543312+766637050
1598+766529696+767484298+769305799+771271287+772227769+771316534+768968210
1588+766570272+764880872+763553563+762329970+761733276+762507802+765166300
1578+769481265+773140703+772926905+770145707+768935639+770082872+770679688
1568+768584222+765690394+764415367+765457611+769874168+779946524+794320865
1558+800789825+793227856+782252998+774370725+770119627+768541644+768363327
1548+769192501+772235351+778673196+787928570+798336755+807156587+808564926
1538+801670735+794721290+792986097+795110312+796455816+795445232+795140941
1528+797918681+803222759+809735934+817672491+826945150+834389697+837138203
1518+836661963+835104723+833487074+833761160+838187968+847251802+859916181
1508+874047369+883133644+880349596+871789598+866616832+867478940+873125944
1498+880302652+885080149+886251278+886887457+890321573+896563816+902014854
1488+902965028+900023224+896694703+895993869+899230138+905630865+913402812
1478+921577609+929697395+936400047+940125232+940653754+939065217+937004626
1468+935959289+936600987+938592374+941368234+945252752+950797739+957144182
1458+961101058+959085592+952902849+947901971+946375057+947996284+951452781
1448+954528504+955147276+953696966+952918861+954828550+959209080+965103726
1438+971582390+976025513+976383360+976050319+979197612+985096625+990025874
1428+993145994+996570042+999530042+998501990+993151756+988345450+989091651
1418+994693470+999801702+1001637153+1001326432+1000367646+999126948+997470542
1408+996225964+997246251+1000856622+1004410223+1005764460+1005905780+1006136985
1398+1006801549+1008717727+1012100835+1014090403+1011918333+1007739714
1390+1005174438+1004168039+1001927494+998058442+996226267+999550057+1007105901
1380+1014972343+1019583836+1019953328+1017504079+1014389720+1011833420
1371+1010182655+1010570161+1014494224+1020796148+1025835358+1028037026
1362+1029234539+1030440058+1030288549+1028784258+1028215949+1029748140
1354+1032201392+1034595933+1037748017+1042682178+1048553534+1052480023
1345+1052055095+1048652033+1046915081+1050224982+1057807694+1066222188
1337+1072077775+1073741823+1072484022+1071272923+1071038200+1069512438
1328+1064900945+1058696125+1054163480+1053688453+1057027346+1061664555
1320+1065164054+1067184250+1067953803+1066877109+1064430529+1062774244
1311+1063432318+1065330483+1065536457+1062572030+1058836959+1057531485
1302+1058242448+1058480446+1058199385+1059067922+1060404085+1059405753
1294+1054595201+1046908288+1038484090+1031426138+1026460802+1022687035
1285+1019011402+1014861593+1009924217+1004636273+999851376+995544235+991242128
1275+987296655+984262782+981605315+978310577+973778174+967385272+958860270
1265+949696057+942454511+937892147+934052087+928861793+922228648+915107618
1255+908203237+902164118+897524301+893716023+889185561+882918997+875224685
1245+867219713+860081276+854169708+848462416+841683403+834086255+827152943
1235+821747395+817594128+814167654+811224577+808681742+806502516+804580454
1225+802555284+800099970+797602684+796163473+796453390+797825823+799282927
1215+801002350+803865549+807857542+812125441+816395220+820950003+825303907
1205+828459691+830673003+833406225+837281766+841462266+845124918+848356821
1195+851413621+854058290+856056652+857846432+860167099+863106962+865989387
1185+868326733+870678878+874285671+879807913+886602271+893191262+898468471
1175+902671411+907374731+914371060+923968753+934028190+941649053+946351645
1165+949911674+953121560+954969869+955006685+954478467+954802409+956376813
1155+958878405+962177449+966464090+970667637+972128501+969839798+966624029
1145+965887532+967649290+969401041+969118282+966906121+965418874+968021208
1135+974561010+979755732+978684800+973004437+967848229+965855265+966950700
1125+970680677+976650714+983778172+990817686+996833939+1001362581+1004375651
1115+1005290586+1003873089+1000967130+998106661+997411953+999478609+1001705629
1105+1001211254+999054651+998290679+998546752+996737806+992696927+989973592
1095+991125798+994591635+995733530+991373015+984219840+980415262+982137596
1085+985290954+984567073+979572017+974544088+972194308+971920646+972596795
1075+973247287+972667879+969226242+963086137+957824940+956569626+958022120
1065+957782120+953841681+948544033+944360561+941513193+940100971+940548583
1055+941708553+941851206+941289387+941196710+940911828+938980608+935829737
1045+933064551+931257971+930143733+930278805+933673558+941631161+951172084
1035+956676798+955912340+951772235+947582638+944277165+942042078+941151525
1025+941524656+942596255+943842775+945819848+950005564+956498117+962341088
1015+963956675+960656115+954290506+946686262+938306946+929106463+919943220
1005+912098794+905814277+900235809+894634476+889080997+883964516+879183077
995+874083214+868679849+864411526+862538228+862162246+861004400+857796879
985+852800974+846970195+841904904+839163616+838627877+838433972+836810136
975+833373897+828780782+823991640+819663453+815570414+811024971+806219635
965+802340758+800016755+798685868+797747764+797258424+797490903+798760592
955+801373843+805245685+809822181+814626487+819384332+823671458+827293413
945+830933746+835615959+841251439+846671484+851533712+856634059+862115969
935+867411798+872889765+879613585+887480634+894959571+900740616+904487272
925+905966695+904963996+902247878+899275203+897083968+895672778+894470534
915+893275689+892157085+891364909+891334886+891867956+891886880+891101315
905+891456069+895231352+901793959+907429379+908955868+907018704+904887696
895+904782647+906552472+909018764+911188286+912185041+911240204+908858643
885+906980978+907490455+910915655+915767997+919609816+921604296+923054000
875+925302127+928238593+931010875+933383581+935655908+937387037+937174027
865+934751526+932594498+932757895+933503369+932228524+930565386+932566538
855+938608568+944083260+944968597+943060668+942415634+943520106+944435042
845+945160318+946970174+948478165+947482805+945541941+945546004+947216482
835+948968597+951111371+954274130+958374872+963868912+970580419+976372867
825+978872457+978458689+978121161+980171501+984034973+986535473+985182387
815+980564830+975501480+971663967+968903331+967868001+970082588+976171623
805+984395367+990868391+992135957+987664631+979997066+973349304+971450957
795+975019175+979757855+979831790+975065392+970166530+967531019+964698146
785+959053507+951745306+944981577+939380729+934870465+931758107+930726053
776+931529813+932303429+932007448+931555772+931491360+931400685+931390071
766+932634468+935977424+941033132+946898119+952419028+955944061+956744668
756+956102060+954481560+950023456+942426308+934882049+930589040+930620761
746+934643262+940895937+946341637+949174571+950824790+953779695+958150824
736+961738329+962061846+958592128+953521985+950094480+950590006+954451355
726+960111035+967617448+976533898+982611228+981058961+973284831+964797676
716+958368928+954222212+953600771+957347003+962580845+964850322+963073158
706+960092537+958992067+959781210+959557829+955696904+949334025+944736725
696+944674678+947085959+947266641+944538090+942547612+942277347+940558409
686+936105036+931760473+930366933+931151769+931723839+931291694+929539397
676+926340186+922347708+918394046+915565116+914162417+914413699+916443054
666+917598474+915305101+910400053+904971942+899991746+897488456+900990077
656+907967786+909071046+901277810+892482422+889171429+889427502+888549079
646+886010126+883471173+881978952+883881908+891623590+903745376+914768331
636+919202113+915525146+908151804+903947287+905714929+908776702+904797992
626+893485181+884816555+885745683+892615614+896704953+890759905+876907596
616+866466294+868724428+883472507+898915476+898366393+883003546+871125398
606+873024958+886199118+897972155+897420647+886486729
##END=
