##TITLE=<SNM>
##JCAMP-DX=4.24
##DATA TYPE=INFRARED SPECTRUM
##DATE=29/4/2025
##SAMPLING PROCEDURE=Instrument type and / or accessory
##ORIGIN=Admin
##XUNITS=1/CM
##YUNITS=ABSORBANCE
##RESOLUTION=4
##FIRSTX=4497.3318
##LASTX=599.83466
##DELTAX=-1.4281778
##MAXY=2.1304781
##MINY=0.38334629
##XFACTOR=1
##YFACTOR=1.9841624e-09
##NPOINTS=2730
##FIRSTY=0.39812207
##XYDATA=(X++(Y..Y))
4497+200649944+201682501+202506443+202554403+201826333+200771501+199706576
4487+198757831+198227321+198601803+200077798+202122109+203609820+203641588
4477+202398449+201094043+200816502+201434444+201957699+201847256+201417681
4467+201079098+200879721+200718240+200474659+200033459+199572101+199652519
4457+200562962+201691062+202021865+201295297+200195240+199318382+198632939
4447+198185280+198558935+200056800+201865536+202611449+201792748+200302784
4437+199315783+199001893+198732703+198255875+197988321+198155630+198314047
4427+197963193+197252081+196777281+196818871+196999879+196876579+196720339
4417+197194028+198306688+199299021+199563810+199159319+198491795+197992482
4407+197919635+198047846+197820412+197080011+196317620+196002063+196111274
4397+196482706+196984168+197204648+196733527+195954254+195813861+196655888
4387+197893830+198770613+198895416+198269363+197287784+196474220+195920159
4377+195386179+194991390+195161523+195848362+196431503+196555163+196632397
4367+197263481+198328917+199003095+198776997+198082272+197700777+197922338
4357+198380782+198438789+197751575+196648093+195896186+196032389+196964807
4347+198084210+198658714+198351147+197502046+196823422+196831128+197512034
4337+198236964+198068304+196686184+194982874+194137573+194279753+194686437
4327+194968124+195233635+195360179+195031329+194325189+193625492+193203082
4317+193276185+194106496+195586397+196979737+197513176+197169395+196672440
4307+196652794+196993871+197176109+197072411+197033253+197282602+197633472
4297+197770966+197502722+196859456+196296427+196531852+197716773+199014044
4287+199487193+199142706+198636409+198388592+198426458+198591664+198485126
4277+197654560+196198902+194942846+194828873+196100069+197937719+199080148
4267+199072518+198606008+198470256+198688048+198851587+198807638+198731982
4257+198779565+198960588+199264354+199637379+199891984+199913103+199908702
4247+200189232+200828337+201654143+202273106+202215744+201592155+201282921
4237+201796834+202408272+202161762+201230065+200565576+200714530+201456779
4227+202169257+202343505+202005613+201613889+201536085+201780176+202105181
4217+202274608+202384420+202776760+203350798+203456615+202854654+202076178
4207+201572614+201305226+201312556+201801986+202607544+203250074+203510778
4197+203574448+203715381+204054896+204521345+204935584+205134931+205038697
4187+204691778+204302517+204124304+204212367+204343372+204266469+204078823
4177+204220628+204935299+205884059+206519980+206654455+206427186+205944064
4167+205220215+204394921+203779833+203577932+203664854+203859860+204287767
4157+205088534+205905688+206178903+205861318+205363567+204933076+204584114
4147+204451021+204670825+205039629+205233899+205264134+205326813+205330283
4137+205041056+204633005+204548697+204820936+205063315+205150973+205363507
4127+205794103+206111598+206043452+205784926+205812743+206386647+207197041
4117+207507116+206851609+205652254+204917185+205183086+205932604+206283699
4107+206057166+205792226+205920708+206419495+207109864+207822854+208389082
4097+208747071+208959620+209071310+209064866+208912142+208597020+208196118
4087+207881702+207711705+207589561+207554354+207776006+208129534+208266713
4077+208235892+208436485+208849718+208915070+208319974+207419579+206753663
4067+206529217+206637768+206894176+207136405+207196545+206967940+206560609
4057+206225856+206053005+205943674+205946362+206300957+207001449+207650904
4047+207939260+207987369+208104886+208368534+208489671+208132748+207380707
4037+206728114+206547827+206757974+207126687+207680899+208489311+209178373
4027+209159087+208442102+207790801+207844633+208462019+209141559+209706074
4017+210239138+210597292+210468825+209897505+209330752+209078354+209027526
4007+208935708+208747867+208585935+208611694+208884955+209233452+209360597
3997+209188166+208999423+209125878+209542310+209921177+210078843+210211786
3987+210635037+211385802+212132016+212417323+212039958+211292768+210809766
3977+211062104+211890658+212541344+212341111+211376370+210335732+209784374
3967+209830350+210313667+211038342+211878897+212750333+213446125+213647439
3957+213265373+212602145+212045455+211880384+212457231+213975013+215799504
3947+216657843+216087981+215075190+214731770+214949607+214853388+214146647
3937+213375200+213240890+214123997+215878420+217652324+218333861+217743001
3927+216890429+216751794+217256469+217731886+217989180+218371997+218982970
3917+219323551+218714711+217184538+215760587+215446126+216104112+216955542
3907+218067900+220353720+224016747+227818350+230254881+230665741+228920045
3897+225397064+221477674+219086984+219369858+221385405+222705432+222789650
3887+223493957+225443687+226855787+226929340+227133223+227571495+226327259
3878+223589876+222100648+223249355+225841239+228459363+230607328+231467754
3868+230902698+230501962+231068084+231030309+228933833+225871264+223784972
3858+223895174+227454488+235365456+243613670+243872707+236859821+229318273
3848+224773956+223694085+225095716+227581243+230368824+233620120+237247174
3838+239638044+239231540+236900465+234466728+232611355+231192856+230307451
3828+230067280+230076367+230501842+232782058+237300045+240974638+241265923
3818+240119919+239056736+236637689+232604881+229413695+229032575+231642648
3808+235751187+238699273+239733422+241169073+244097212+245896245+244788332
3798+242775503+241374353+239994321+238397444+237496373+237721464+238696088
3788+240392504+243138584+246424772+249265960+251960116+255591075+259719350
3778+262664582+264349657+266505643+270524692+276500950+283137493+288371608
3768+291622799+294319178+297546697+301419451+306458995+313394828+321417155
3758+328459991+334056932+340170714+349286234+361967166+374421084+381778621
3748+385599044+390547897+397425182+402101060+402519309+402382777+405409688
3738+412673439+422627321+431228944+434368445+431930773+427819561+425636509
3728+426057342+427506181+428244599+428066431+427551452+426417794+424025362
3718+421099386+419739346+421731432+427001506+432564982+434171021+431472810
3708+428063787+426929740+428974757+433310489+437492236+439417903+439712508
3698+440477391+442869763+446835401+451950016+457770456+463053597+465007111
3688+461856525+456089286+451495628+449713222+450599438+453397323+457774571
3678+464243880+472047424+477220768+478074510+478275059+479247821+476967408
3668+469571480+461569911+457104314+456327895+456967451+457309940+457509226
3658+458250138+459421976+460905662+463538566+468338420+475238384+481230654
3648+481602552+476248576+469621948+465389944+463975711+463679514+463325040
3638+463273851+464099657+465628222+467694328+471145767+476842982+482825879
3628+484988414+483386430+481734068+481894783+483690346+486768206+490333647
3618+492824071+494044214+495471304+497952594+500943127+503478100+504930003
3608+505191292+504529567+503316093+502324676+502970000+506151257+510894606
3598+515238720+518038106+519041089+518418656+517386294+518232406+522355184
3588+527684016+529802391+528165741+526849319+528146215+529706142+528117616
3578+523550424+518999573+516397370+515668355+516634207+519832227+524872673
3568+528972200+529153763+526297240+523881046+523792368+525514512+527251677
3558+527110368+524680596+521981364+521738999+524457698+527819678+529315800
3548+528695770+527316564+526158454+525122127+523871554+522674031+522166231
3538+522649939+524017068+526047065+528285661+529850095+529904768+528688621
3528+527720905+528315762+530011651+530941576+529646062+526187113+521886136
3518+518349082+516612819+516573827+517100792+517056332+516181501+515118679
3508+514951475+516607231+520048637+523751933+525616289+525107047+523916013
3498+523985826+525693792+528095567+529882058+529980409+528354453+526334850
3488+525226367+524930651+524809889+524982861+525631369+526165364+526066892
3478+525271367+523655685+521551549+519980626+519295769+518558222+516908715
3468+514700039+513037313+512877860+514312400+516303945+517578191+517982292
3458+518441486+519444949+519977983+518429290+514909179+511836126+511372125
3448+513061045+514485251+514057779+512400040+510938584+510284429+510060930
3438+509649259+508677218+507336223+506734037+507821673+509513838+509456641
3428+507312191+505324431+505023548+505452342+505151399+504232289+503734252
3418+504096808+504972720+506076397+507458066+508651323+508520468+506543282
3408+503687930+501494635+500656063+500781511+501117660+501382134+501829523
3398+502494703+503116055+503820107+504834175+505627236+505468564+504686317
3388+504153764+503886466+503445356+503205335+503757564+504748980+505596415
3378+506613936+508446870+510736053+512288291+512425695+511403787+510116144
3368+509699426+510869432+513215151+515371137+516378625+516489113+516517171
3358+516659561+516210100+514769972+513230592+512907420+514080069+515903449
3348+517573925+518970254+519907088+519649283+518163554+517000397+517518651
3338+518918885+519373754+518691180+518214683+518382427+518327273+517797364
3328+517536315+517518471+516882520+516005586+516431736+518434697+520415188
3318+520785043+519405536+517095264+514859192+513365052+512374807+511318893
3308+510639745+511661532+514754772+518311292+520202743+519808075+517924074
3298+515802755+514678109+515033305+516078704+516688580+516758634+517013916
3288+517970095+519518307+521059730+522084342+522875601+524251322+526283722
3278+527934071+528322551+527759777+527141250+526819399+526471173+525543712
3268+523649376+521210772+519450356+518999333+519193693+519469041+520235187
3258+521343670+521208549+518919065+515997235+514706107+515669857+517887605
3248+520169819+521843780+522713083+523016009+522950521+522224930+520728147
3238+519246864+518585619+518417454+517896437+516851458+515733902+515094166
3228+515212465+515697313+515845592+515579315+515233372+514682916+513873332
3218+513539946+513981417+513994755+512441676+510149188+509021419+509809133
3208+511630110+513085858+513100278+511188879+507833809+504524820+502730098
3198+502631627+503121612+503213055+503078084+503330091+503918549+504339953
3188+504408445+504265874+503994310+503534785+502673593+501201232+499385753
3178+497776258+496406245+494916791+493440556+492558695+492339672+492123623
3168+491488753+490857819+490728316+490755592+490131327+488727638+487294360
3158+486397329+485812056+485207377+484753559+484667704+484827759+485017222
3148+484901177+483847156+481572452+478869404+476884407+475979596+475896385
3138+476391808+477102349+477305241+476506351+475114709+474125936+474110495
3128+474671586+474953183+474587503+473932987+473450662+473274957+473320948
3118+473315661+472746579+471282270+469306285+467634608+466749563+466584943
3108+466801803+466952725+466662236+465987353+465384927+465145807+465114685
3098+464996988+464614696+463847229+462678695+461368461+460270131+459480795
3088+458970862+458984320+459742385+460699706+460836780+459882973+458543751
3078+457356262+456098298+454631645+453593576+453684748+454741172+456030677
3068+457063700+457628936+457479697+456542172+455163297+453828640+452890365
3058+452512399+452516334+452463163+452122897+451631680+451030305+450015847
3048+448520236+447148660+446512679+446464044+446554315+446871779+447638856
3038+448380729+448342007+447444436+446253011+445251982+444600650+444351376
3028+444532368+445012831+445472597+445646379+445476562+444903245+443836637
3018+442477408+441214518+440268342+439767752+439754654+439835072+439452420
3008+438667649+437976274+437372856+436341156+434788317+433346868+432624732
2998+432567475+432689408+432622208+432276385+431760805+431319875+431068649
2988+430707325+429843189+428644585+427814574+427827401+428435685+429030601
2978+429314241+429427222+429440350+429014710+427833860+426171855+424683333
2968+423671279+422894619+422165784+421763485+422018226+422789899+423609035
2958+424129211+424254299+423934371+423080298+421824407+420649204+419928750
2948+419512783+419101863+418744054+418557504+418337520+417899954+417556174
2938+417787574+418506827+419048391+418974342+418457501+417711452+416659955
2928+415462342+414663933+414468101+414463385+414298404+414092358+414004581
2918+413810581+413143479+412004084+410783460+409837734+409295929+409179463
2908+409369978+409534659+409401520+409045334+408682328+408292046+407632002
2898+406602494+405534565+404988434+405146175+405559168+405665630+405422064
2888+405166663+404972813+404599473+404129254+404074311+404635131+405389951
2878+405897901+406071053+405849206+405072126+403792443+402407259+401431133
2868+401117303+401199793+401171165+400914772+400769167+400857816+400712211
2858+399809773+398354475+397234757+397103511+397724833+398364599+398589630
2848+398440480+398036019+397425692+396848350+396735699+397170020+397561144
2838+397235538+396227208+395172677+394635468+394766623+395284246+395542262
2828+394967953+393694098+392531812+392160516+392481195+392837231+392726233
2818+392146997+391350692+390513832+389755677+389287801+389252233+389401803
2808+389215013+388470046+387540032+386987382+386983777+387205985+387250534
2798+387067169+386906033+386893116+386832555+386445457+385697456+384876457
2788+384300466+383902403+383319022+382481081+381740980+381302453+380980873
2778+380659833+380492900+380473674+380230138+379464684+378368817+377441776
2768+377009047+377019591+377213140+377350274+377324650+377154592+376876690
2758+376457840+375848234+375094225+374340906+373662749+372938780+372074313
2748+371312073+371003199+371064151+371021103+370579843+369856535+369157259
2738+368760518+368736215+368842017+368730207+368224901+367344092+366309898
2728+365605966+365652949+366299834+366904514+367011337+366703695+366220258
2718+365594460+364849283+364191613+363773573+363478669+363101754+362603357
2708+362141639+361913003+361906845+361852682+361524403+360976440+360391437
2698+359906348+359638749+359656443+359870990+360054085+359958047+359491042
2688+358845237+358326233+358026311+357809571+357586943+357452423+357535274
2678+357747358+357730025+357195580+356274397+355336842+354584966+354017326
2668+353643986+353529533+353678532+353977553+354258368+354412204+354404784
2658+354204476+353787308+353185963+352485936+351834034+351413651+351277209
2648+351258433+351148036+350853251+350361493+349734013+349167845+348889132
2638+348911062+348988025+348881953+348622916+348399177+348239603+347992492
2628+347615007+347264678+347061186+346959620+346895184+346870070+346868598
2618+346854660+346872804+346971816+347019550+346817590+346411807+346029906
2608+345716616+345325763+344910157+344827877+345327025+346164546+346768775
2598+346770187+346297264+345724577+345214074+344625256+343868693+343178249
2588+342926002+343274378+344059869+344874199+345262619+345049604+344492088
2578+343981464+343699176+343669437+343886117+344193518+344280514+343987412
2568+343459966+342928044+342519077+342295878+342277193+342390385+342520939
2558+342607395+342629475+342557709+342400118+342261783+342257907+342348178
2548+342346015+342166135+341984992+342029091+342277494+342538213+342718724
2538+342810257+342717643+342328772+341716072+341166967+341007063+341316838
2528+341802738+342113444+342259109+342499010+342897523+343235986+343288677
2518+343048536+342774749+342787036+343068693+343230129+343040245+342749515
2508+342675406+342751378+342700820+342439891+342160637+342153488+342562065
2498+343188343+343604069+343560180+343188253+342779766+342546864+342574441
2488+342794365+343010925+343069654+342962951+342748194+342471553+342192240
2478+341999021+341981838+342195394+342609077+343065298+343331725+343274198
2468+342996356+342733384+342593517+342493062+342344063+342185811+342097012
2458+342109449+342238772+342468009+342680874+342734495+342625059+342487054
2448+342419764+342398496+342382664+342416009+342531303+342628574+342578707
2438+342418683+342327811+342455812+342852734+343440921+343983207+344261980
2428+344340445+344434350+344534534+344423476+344072516+343775959+343844331
2418+344306679+344943291+345514897+345889318+345996351+345839781+345609794
2408+345615501+346027052+346740987+347476101+347972966+348167176+348193521
2398+348228939+348404614+348812830+349426792+350044989+350461136+350621701
2388+350530740+350157520+349537881+348761642+347708282+345987219+343363928
2378+340157947+337020788+334367607+332151481+330062215+327822207+325487783
2368+323530243+322337406+321649125+320948738+320369863+320622742+322098467
2358+324572428+327686996+331397562+336025496+341595521+346920958+350087526
2348+350016181+347353147+344122593+342169409+341777354+342230210+342825277
2338+343067251+342939820+342954119+343459245+344262130+345162074+346343465
2328+347852896+349138857+349640228+349586035+349716530+350393065+351428341
2318+352550613+353566723+354293816+354743848+355241404+356103588+357308320
2308+358591818+359703726+360449084+360716442+360676428+360775050+361328691
2298+362244257+363230537+364098428+364772470+365239956+365593499+365969032
2288+366411614+366898446+367399306+367798210+367910500+367720706+367454069
2278+367295006+367199448+367081420+366990519+366960298+366813912+366308306
2268+365492774+364762647+364419498+364290896+363991185+363505585+363257393
2258+363585612+364357315+365115589+365512451+365575505+365572201+365697438
2248+365987146+366412846+366882014+367244689+367435354+367496095+367420875
2238+367156551+366755124+366345676+365976211+365623269+365310791+365083086
2228+364869590+364536324+364164396+364108071+364597726+365412567+366135575
2218+366647610+367194372+368005728+369023550+370072974+371172506+372484572
2208+374013378+375584541+377115990+378713829+380509542+382532600+384693993
2198+386818646+388774564+390617230+392533555+394610444+396699290+398536098
2188+400006687+401284357+402650375+404164311+405625677+406885353+407981940
2178+408906037+409505219+409694202+409513901+409045965+408493525+408174318
2168+408206371+408315116+408071040+407306517+406253968+405189703+404062595
2158+402707091+401255308+400013896+399076552+398272886+397374324+396307205
2148+395216836+394317282+393930755+394758543+397520079+402088984+407585019
2138+413392722+419434318+425596165+431632083+437465290+443149738+448759926
2128+454363746+459832566+464854988+469333922+473507288+477585065+481480348
2118+484894628+487575416+489531934+491076181+492738276+495154500+498881107
2108+504191735+511073886+519418874+529008248+539097371+548336837+555610893
2098+560620037+563297881+563564638+561941085+559265103+555738263+551046704
2088+545018055+537653279+529005605+519170141+508262303+496703763+485290738
2078+474694176+465277173+457242469+450440406+444402114+438921970+434206198
2068+430462918+427697357+425627647+423738959+421817768+420128397+418802663
2058+417685467+416808774+416321612+416174956+416349459+416972824+418072265
2048+419647543+421841860+424839152+428927744+434516664+441745989+450510309
2038+461004885+473578813+487988198+503252377+518061538+531204368+542017339
2028+550442415+556632560+560863362+563556767+564997976+565348485+564854143
2018+563631868+561594060+558852110+555801287+552744817+549589694+545821691
2008+540952714+535093973+528747559+522170197+515413554+508752078+502590952
1998+497062323+492047261+487567696+483820661+480705672+477757676+474889618
1988+472678238+471536260+471159195+471049458+471069315+471289810+471723861
1978+472333977+473085223+473979159+475098848+476590614+478582100+481025329
1968+483525906+485515559+486791186+487713120+488773389+490198376+491989824
1958+494049441+496151684+498096036+500048710+502435494+505339571+508312530
1948+510984186+513633311+516863414+520659715+524017008+526014742+527087778
1938+528420362+530499204+532952587+535355804+537624740+539897342+542389297
1928+545226174+548383279+551709751+554738285+556892708+558374712+560011001
1918+561814555+562876056+563111391+563647308+565182783+567188027+568783102
1908+569757606+570497797+571321860+572226971+573123971+574050291+575145197
1898+576477059+577735864+578257602+577966032+577944643+579073855+580569376
1888+581004539+580364802+579710587+579534010+579604605+579714192+579826782
1878+579886142+579847931+579779980+580006062+581175948+583601454+586024197
1868+585989831+582968207+579436440+577644542+577400615+577076541+575621334
1858+573189579+570407075+567768824+565627318+564307532+563971863+564488915
1848+565756611+567783844+569665923+569233224+565729515+561299606+558069984
1838+556298453+555204208+554335385+554122280+555071611+556418433+556329454
1828+554343316+551962029+550027260+547809571+544855117+541978888+540130995
1818+539408948+539288788+539451786+540119579+541412990+542627155+542684713
1808+541414012+539823323+539214108+540341877+542934226+545613152+546797757
1798+546305218+545695582+546828759+550143395+553616824+554293810+552229988
1788+550160037+549823347+551005309+552978650+555587822+558550687+560919357
1778+562313703+563875253+567169702+572374589+577300521+579256559+578465601
1768+576849498+575386840+574643585+575334750+577157530+578665728+579416013
1758+580234368+581201662+582054984+583927330+588251738+594179752+598637959
1748+600052131+599837104+599721088+600430157+602274686+605062837+607625387
1738+609384301+611993413+617094000+622340041+622974670+619544259+615944601
1728+614077002+613888169+614485849+615112428+616403495+620348015+628143087
1718+637443174+642272858+640205251+635521082+632146786+631031874+632176646
1708+635591376+640284137+644029609+646276737+649362887+654750057+659825470
1698+661725994+661441693+659829195+657033113+654947421+655231722+657425498
1688+660649833+665849492+673774099+680356148+680588779+677019642+674250957
1678+674192318+676929762+680978401+684341822+687047543+689957598+691633781
1668+690242499+687986360+688403919+691687073+694478288+694104889+692399807
1658+692912713+697787878+707803703+719943190+723958003+718302454+713658839
1648+714259763+716732913+715862949+711880098+708338238+707062791+708800737
1638+714024669+721079190+724419240+720827934+715064841+712037930+712407424
1628+714450879+717057047+721054918+726751742+732011181+735437086+739087632
1618+745058063+751258301+753031334+750385933+746973426+744838889+744067878
1608+743795773+743032452+741727445+740989958+741898194+744516318+748307331
1598+752793836+757307858+760849117+762927719+764134975+765348058+766786744
1588+768171717+769284407+770095612+770781370+771689966+773082209+775214824
1578+778340146+781477065+782099017+780166230+778875884+780197893+783210024
1568+785793181+787586882+789526518+792155396+796495305+804907584+818149546
1558+828764192+829484136+825442407+822181903+820858031+820756736+820959687
1548+821512367+823655796+828467095+835659741+843896525+850304461+849714051
1538+842343627+835444113+832544091+831701644+829780212+827359693+827524253
1528+831162362+836311854+840889080+845187413+850168439+854564162+856514673
1518+856835202+857126111+857814573+859288766+862534430+868222182+876426522
1508+886464276+894175837+893844554+888361195+884210720+883802053+886811061
1498+891639002+895662767+897249491+898020022+900342310+904205721+907565958
1488+909097168+909335927+909138143+909344879+910909133+914081799+918375325
1478+923557201+929374486+934102514+934691542+929922900+923479817+920457953
1468+922170785+926403330+929688647+930259771+929746264+930561795+933355895
1458+936228459+935169362+929485635+923426886+919981154+919238320+919715058
1448+919623676+918025898+915193347+912298132+910921569+912106535+915540251
1438+919823143+923165476+924436898+924472225+925202623+927435872+929898447
1428+931067552+931613323+932974985+934961544+936729470+938886176+942232715
1418+944907976+944181003+940430423+935945661+932382292+930092087+928903756
1408+929195807+931283301+933796044+934353109+932825926+931646787+932476918
1398+934552576+936915359+939584130+941454554+940632353+936965346+932240983
1388+928205622+925425281+924104052+925316415+930190618+938066499+946129110
1378+951626828+954711537+957782667+961619702+963882631+962643112+959273021
1368+956645645+956631346+959577088+964561239+969585764+972975440+974917960
1358+976258054+976881568+976842276+977855892+981470210+986565209+990476924
1348+992257647+993544569+996470425+1001582427+1007075759+1009977403+1009093980
1338+1007004143+1007657938+1012092353+1017519176+1020646962+1021586500
1330+1023418111+1028189938+1034826900+1040275353+1042085575+1040755755
1321+1039509808+1041252981+1046373394+1052916271+1058272920+1060805429
1312+1060858180+1060543479+1061068582+1061500319+1061426661+1062425678
1304+1065531595+1069272201+1071635164+1072793273+1073741823+1073614453
1295+1070977163+1066319970+1060995404+1056027234+1052777966+1052199632
1287+1052305974+1048871658+1040694954+1031464320+1024861483+1020809901
1278+1017316345+1013369062+1009229402+1005674444+1003304452+1001698502
1270+999596709+996632162+993508281+989768275+983633705+975159063+966768774
1260+959670874+952900533+946205953+940949518+937816024+935540058+932432098
1250+927839432+921430895+912818789+902636241+892490221+883346704+874934786
1240+866855473+859264013+852103689+844558071+836126686+828041065+822668975
1230+821046023+821443875+821115536+819234658+816885154+814836292+813182879
1220+812477295+813354889+815330213+817239628+818571491+819544733+820390065
1210+821360123+823056974+825856421+829258354+832637396+836250212+840514238
1200+844774360+847969616+850050622+851839275+854270309+858104941+863251910
1190+868456075+872753987+876366442+879328947+881234517+882845153+885441888
1180+888785723+892134185+896183605+901602858+907288567+912237330+917572831
1170+924768722+933289025+941551524+949067102+956548135+964028266+969167724
1160+969320929+965481310+962092295+963054062+968677408+975696903+980077786
1150+980620312+979416241+978281201+976383141+972746174+969119179+968070476
1140+969290889+969820558+968644965+968470912+971605427+976443642+979044944
1130+977836306+975277001+974965724+978693473+985448554+992123968+995552757
1120+995087314+993015742+991763125+992399076+995658859+1000851309+1004678190
1110+1004773538+1003008976+1002210267+1002357645+1002677933+1004013220
1101+1006834957+1009491352+1009964545+1008919507+1009145049+1011114244
1093+1012365839+1012099202+1012664559+1014448587+1013695659+1008087273
1084+1000475626+994379267+990125694+987028549+985321484+985277505+985902161
1074+984464257+978401843+968490197+958632144+951968866+948374315+946322148
1064+945853641+948062978+952857095+959376780+966559574+971133015+969681652
1054+964703570+961996647+962065259+960784945+957193939+954326121+953624141
1044+953317611+952367079+952028946+953496530+957156509+961897634+964652081
1034+963384504+959988579+957886426+958140746+958933447+958330840+955961810
1024+952546960+950259218+951377915+956185669+962632358+967386640+968298120
1014+966475581+964454536+962945737+960712668+956934392+951787483+945223698
1004+937272537+928778008+920684456+912882954+904582365+895895459+888227096
994+882851341+879418827+876367643+872894455+869552302+866870553+864740402
984+862798843+860141006+855771899+850332579+845594938+841977136+838681425
974+835740369+833777542+832190218+829450251+825069067+820212948+816668324
964+815316755+815112121+814053865+811549233+809219975+809157191+811997192
954+816937844+822950752+829154355+834404241+837629778+838767581+838981227
944+839936145+842571812+846504916+851043811+856553605+863879450+872458812
934+880262296+885984895+890358148+895205315+901903139+909823960+916304053
924+918992591+917659768+914045030+910542642+908808301+908694929+908379747
914+906219076+902760066+900223892+899843102+900905504+902016812+902334096
904+902213455+902843398+904739836+906785574+907747221+908313719+909946584
894+912554134+914829139+916123151+917086060+918932331+921489413+922715774
884+921906431+922123802+926676575+934297956+939866989+940277458+937252650
874+934411027+933820316+934810802+935682028+936312692+937936906+941188998
864+946246868+953294120+960668329+964301511+961587319+954490621+947647282
854+944648308+945937153+949559701+953210728+955605052+956718463+956836460
844+955276713+951708297+948652547+950027908+956443354+963775868+967944908
834+968779725+968095289+967603591+969006649+973476631+980213748+987051860
824+992361827+994900284+993442132+989592901+988638043+992870407+997060115
814+995415534+991027561+991529112+997526038+1001293921+997356251+989720812
804+985704016+988612809+996435459+1003705489+1006143251+1004832957+1003838386
794+1004302628+1002994557+996981049+987960756+980091965+975212595+971760554
784+967331126+961215361+954540187+948572640+943611140+939337681+934796022
774+929832900+926269110+925804088+928776205+933904849+938891644+942926584
764+947357334+953279700+959648464+963714045+963126399+958681410+954474880
754+953969844+956773136+960192252+963302194+967388803+971055751+970730956
744+967053314+963810234+963227454+965652179+971087233+978916732+986471543
734+990412878+990846539+989716726+985381084+974386609+959892571+951504384
724+952959351+958998935+963649098+966244752+968570345+970056674+968853143
714+965291216+960955333+956661987+953934336+955123808+961247925+970485648
704+977049193+973831346+960900179+946737244+939496233+941007135+946871704
694+950292202+947743591+941846458+937838734+937750657+940723495+946123643
684+952025341+954530094+952743483+950389832+950712464+951928852+948251871
674+937457945+923564410+910542462+900697926+899851514+912258659+930356801
664+945956379+955333128+953344887+939062032+922238676+913442303+915714664
654+924837814+931585806+927957370+914568991+899224574+888311629+884687819
644+891916754+911217465+932885405+939815680+930756696+922238195+924098285
634+929877900+927712121+916735010+905163583+897616823+890883611+881380513
624+873867698+874853677+881013241+881013481+869502736+855233578+849113608
614+851127623+854778349+856416501+858270643+864574099+875402271+885276487
604+887111823+882079969+879443220+881159657
##END=
