##TITLE=<SNM>
##JCAMP-DX=4.24
##DATA TYPE=INFRARED SPECTRUM
##DATE=29/4/2025
##SAMPLING PROCEDURE=Instrument type and / or accessory
##ORIGIN=Admin
##XUNITS=1/CM
##YUNITS=ABSORBANCE
##RESOLUTION=4
##FIRSTX=4497.3318
##LASTX=599.83466
##DELTAX=-1.4281778
##MAXY=2.1764636
##MINY=0.60169894
##XFACTOR=1
##YFACTOR=2.0269897e-09
##NPOINTS=2730
##FIRSTY=0.62251848
##XYDATA=(X++(Y..Y))
4497+307114774+306028946+306623673+308917478+311270212+311236925+308034431
4487+303516041+300119117+298869031+299541740+301502117+303713440+304904186
4477+304825997+304791533+306177179+308584666+310197646+310200469+309649381
4467+309447718+309047009+307865202+306624172+306310945+306733326+307018735
4457+306935871+306779286+306476028+305709632+304719902+304243474+304548174
4447+305109172+305540786+306139246+307045936+307608316+307188817+306328971
4437+306315826+307476844+308477630+307726996+305310246+302881764+301957667
4427+303046141+305620857+308100711+308614131+306687600+303912133+302408188
4417+302837714+304119677+304993255+305520702+306534397+307924043+308395472
4407+307134828+305055271+303821828+303984205+304544116+304287464+303151853
4397+302135952+302164034+303183847+304334043+304858519+304900687+305198976
4387+305973488+306787373+307391097+307853793+307981001+307319436+305753975
4377+303828445+302589679+302846654+304234005+305518614+305986602+305930703
4367+305826872+305700663+305274078+304377122+303311143+302817248+303486488
4357+305124257+306696804+307012707+305718395+303751373+302516136+302511754
4347+303056462+303344371+303409446+303895107+305051713+306383782+307345431
4337+307663157+306807369+304272732+300765950+297961195+296843609+297194182
4327+298456413+300088300+301468359+302325912+302958983+303560443+303781984
4317+303452995+303209253+303621224+304099740+303706294+302900142+303132681
4307+304474689+305195359+304288200+302911640+302633199+303570117+304732928
4297+305201505+304595781+303268152+302330205+302694157+303886256+304533794
4287+304055190+302921314+301547783+300041075+298818130+298563772+299592612
4277+301679432+304305784+306778934+308379857+308756306+308144760+307069813
4267+305879684+304781065+304025344+303468227+302507491+301120580+300201658
4257+300342952+300994754+301200563+300705345+300183162+300596192+302197410
4247+304033313+304793651+304253236+303448702+303380746+303921954+304212157
4237+303883080+303471756+303588025+304024991+303978912+303146560+302353288
4227+302814749+304745926+306848742+307387745+305997188+304284406+304233270
4217+306033034+307875288+307972620+306307269+304101034+302383782+301583099
4207+301691723+302315914+302968981+303482048+303878728+303938627+303428412
4197+302638757+302123014+302092961+302411482+302872942+303267652+303490575
4187+303716557+304180017+304828349+305365352+305474623+304994549+304150523
4177+303485635+303245833+303098982+302698244+302201526+302061586+302447062
4167+303082986+303597935+303788012+303602287+303154382+302758408+302662958
4157+302859827+303338020+304162197+305160690+305879890+305940200+305351385
4147+304637772+304548879+305294662+306232756+306620791+306373402+305807464
4137+305096763+304272850+303388803+302549188+302015890+302224580+303422825
4127+305166601+306475204+306820895+306678220+306745794+306911611+306557069
4117+305713984+305144458+305321332+305942788+306380489+306204497+305427604
4107+304558142+304183134+304414320+304938385+305322773+305082854+304048251
4097+302887204+302548688+303123418+303980736+304766980+305453628+305732362
4087+305263286+304387472+303918661+304230535+304909832+305353914+305515350
4077+305830871+306470470+307009179+306889498+305910501+304319458+302718916
4067+301834957+302183442+303663538+305272460+305626855+304358655+302738412
4057+302327441+303300939+304531207+304992314+304640830+304061424+303655834
4047+303335844+302954072+302773816+303200108+304084684+304591311+303969885
4037+302506344+301405431+301481592+302360963+303261212+303954094+304499155
4027+304751895+304692290+304668707+304937032+305353002+305629796+305550695
4017+304983169+303932305+302585827+301309481+300536940+300513798+301195594
4007+302366991+303610285+304310518+304184192+303626135+303198638+303106010
3997+303316906+303828356+304597692+305396963+305894916+305904208+305685431
3987+305797878+306411512+307001474+307010561+306608352+306454120+306834510
3977+307321524+307333492+306778934+306027564+305432632+305117611+305175834
3967+305703045+306535809+307255950+307635310+307789542+307732142+307214635
3957+306207820+305238615+305023896+305763856+306866003+307447232+307092573
3947+306074907+305043686+304635302+305097909+306123456+307223604+308145201
3937+308723372+308776390+308358744+307757813+307222751+306954014+307126242
3927+307631105+308062454+308119971+307888580+307609051+307396743+307308380
3917+307309468+307009090+306045943+304830731+304209275+304531912+305426075
3907+306370873+307138739+307828945+308833408+310458120+312213129+312957882
3897+312131558+310321620+308492539+307255214+306803722+306919315+307287825
3887+307998733+309257729+310655020+311511661+311823800+311793600+311166822
3878+309924205+308747367+308311166+308842023+310333176+312146319+312859462
3868+312086244+311133917+310879207+310676750+309721307+308265470+307003298
3858+306521694+307485577+310518637+314566245+316545617+315762725+313824991
3848+311896020+310400838+309564281+309646999+310686366+312238976+313418284
3838+313346917+312214658+311269389+311320348+312070924+312667826+312590666
3828+311912281+310936224+310150039+310302977+311582616+312648418+312573611
3818+312865284+314925845+317260200+317412521+315672950+314137395+314314563
3808+316028816+317408463+317130581+316251298+316250974+316686029+316438258
3798+316108740+316787125+318271103+319724440+320925802+322023539+322852391
3788+323174882+323210021+323508487+324539444+326616913+329747128+333233738
3778+336224542+338821195+341654621+344880051+348405183+352345225+356648809
3768+361145733+366008020+370899831+374611011+376668014+378032841+379528111
3758+380741734+381345165+382455869+385864702+392307182+399909680+405257511
3748+407599130+409526425+413898464+420260491+425199792+427791122+430271123
3738+434872525+441547456+448061392+452615862+455129062+456098591+456378208
3728+457536667+460706168+464749895+466879235+465891946+463249097+460715548
3718+458748174+457461301+457571659+459386214+461493853+461973869+461003664
3708+460030195+459611548+459700088+460256205+460829436+460840051+460763391
3698+461736625+463886373+466140010+467971267+470244342+473477800+475877436
3688+475197963+472466280+470306446+469984427+471360516+473613683+476181577
3678+479190318+481995809+482426776+480291760+478191707+477578573+477532113
3668+476630805+474743854+472770510+471700061+471718763+471806715+471078458
3658+470126632+470118251+471216517+472878192+474869474+476837672+477905268
3648+477791763+477170102+476641185+476397854+476250680+475764107+474883001
3638+474243255+474416806+475215165+476211688+477704223+480417763+484094273
3628+487265421+489321072+490596065+491036177+490462328+489253057+488251329
3618+488309170+489758743+491973007+493612951+493816731+493156578+492951651
3608+493840432+495326586+496885548+498873301+501615129+504216927+505485892
3598+505788534+506436513+507610263+508256714+507981949+507848271+508867172
3588+510443836+511053824+510373616+509504566+509629657+511265896+513991257
3578+516761020+519020597+521053634+522952818+524295120+525062898+525638834
3568+525838968+525063545+523551043+522587896+522901005+523425541+522328774
3558+519272602+516031469+514928880+517050487+521301464+524980562+526228767
3548+525927067+526012813+526600100+526009990+523406310+520140123+518223473
3538+518312454+519445683+520305911+520417711+520109189+519780376+519697276
3528+520040791+520610258+520558211+519165919+517088420+515662195+515198000
3518+514985692+514539258+514185921+514549902+515757116+517031962+517304786
3508+516427326+515162654+514185627+513882868+514508264+515728828+516750728
3498+517321488+517843906+518674377+519586418+519804842+519002189+518215121
3488+519032653+521696556+524450734+525051665+523045269+520191818+518194126
3478+516931219+515701598+514795497+514482564+513846993+512206284+510403021
3468+509409233+509188574+509571551+510545697+511267955+510528994+508599523
3458+506880478+505788298+504728113+503863650+504077781+505167196+505798767
3448+505437491+504726113+503799957+501887953+499022505+496707763+496281971
3438+497608571+499551980+501216155+502474828+503466029+504031026+503705683
3428+502333740+500471196+498747504+497112147+495179500+493145492+491758876
3418+491469232+492168318+493478157+494924966+496059783+496561794+496340488
3408+495746320+495416214+495606821+496073309+496584083+496829913+496137119
3398+494153777+491517662+489333157+488383301+488932096+490610120+492462549
3388+493879659+495125805+496330372+496906720+496620134+496152351+496035964
3378+496069840+496117359+496527801+497538409+498870537+499974949+500525890
3368+500751078+501127527+501626362+501684467+501289081+501131879+501371357
3358+501495566+501520031+502165129+503849947+506388229+509363654+512052493
3348+513478542+513285819+512142121+510915500+510099086+510147193+511240313
3338+512352547+511779669+509384944+507092726+506474917+507184707+508104805
3328+508796658+509315959+509525561+509105474+507812808+505771537+503810191
3318+502964077+503323235+503902289+503933635+503692274+503676807+503597648
3308+502729421+501072127+499577210+499056439+499451531+500416502+501972406
3298+504123300+506186684+507118074+506694106+505913742+505942560+506997159
3288+508314054+509130645+509466044+509817734+510444895+511062587+511188971
3278+510820932+510701487+511696099+513749191+515526106+515380137+512936599
3268+509515740+507054440+506820726+508582586+510682432+511544072+511267249
3258+511056999+511309063+511194147+510158661+508907516+508363103+508321935
3248+507911552+507028387+506328948+506078766+505938619+505530412+504744403
3238+503857298+503544012+504142531+505050809+505429081+505006230+503916462
3228+502569161+501813851+502176597+502958901+503094284+502561339+502009986
3218+501618657+501219860+500999495+501291845+501798031+501515150+499863502
3208+497786003+496901427+497384912+497661442+496694942+495438210+495175854
3198+495600645+495378928+493905477+491832213+490267929+489885775+490550780
3188+491499666+491898199+491413655+490338090+489161635+488069279+486886208
3178+485450073+483990031+483019120+482716420+482487822+481517999+479876907
3168+478566128+478354173+479025530+479732673+479632930+478296891+476052634
3158+473909473+472781831+472840259+473624975+474444565+474701304+474232110
3148+473303866+472184046+471034938+470165006+469862511+469932085+469844339
3138+469339976+468545821+467699619+466966687+466246752+465273607+464187632
3128+463557031+463592141+463923777+464245767+464517885+464585577+464299461
3118+463884520+463601110+463245774+462465352+461344385+460292198+459567293
3108+459199430+459089513+458998767+458763229+458587678+458753231+459051432
3098+458973920+458332909+457305804+456174310+455237892+454691038+454515134
3088+454498491+454237282+453368849+452148462+451373568+451300525+451267297
3078+450754730+450179117+450352962+451524595+452949644+453395167+452396850
3068+450829419+449866860+449757912+449889296+449700278+449262547+449013336
3058+449080998+449110933+448790295+448170604+447400679+446587235+445910909
3048+445474443+445138661+444783678+444452984+444051040+443346220+442466760
3038+441866417+441593328+441149658+440309131+439543853+439336221+439444669
3028+439208778+438395010+437394252+436661614+436265258+436052362+435985288
3018+436090119+436252466+436383556+436664320+437186914+437475029+436995720
3008+436136991+435896719+436442955+436767680+436068653+434710324+433518872
2998+432816934+432416813+432104409+431774597+431286907+430475462+429341409
2988+428117464+427058896+426329198+426133857+426646866+427725165+428899827
2978+429636699+429524047+428534699+427278908+426555503+426492810+426495692
2968+426018029+425088080+424212502+423897363+424110230+424272019+423989461
2958+423510387+423222331+423174400+423286052+423485892+423485775+422945919
2948+421973391+421032591+420333593+419647210+418796656+418117918+418173818
2938+418965591+419763950+419971082+419812028+419799707+419837228+419375092
2928+418293822+417109074+416340121+416073589+416130842+416334298+416486501
2918+416304481+415637682+414742108+414111478+413937956+413895259+413525426
2908+412761677+412003221+411671850+411741659+411778210+411493771+411134259
2898+411144022+411581252+412085468+412357440+412437922+412447362+412246257
2888+411564491+410439436+409323704+408679047+408582656+408741651+408752149
2878+408352087+407642944+407113645+407209830+407828875+408476884+408873682
2868+409016887+408745297+407815966+406453962+405340170+404955517+405155415
2858+405364224+405104544+404451154+403981606+404151423+404790640+405290563
2848+405196259+404581802+403869160+403360327+403073682+402982702+403112439
2838+403290342+403130200+402459019+401596703+401066963+401096839+401460320
2828+401741731+401680244+401238485+400439949+399348505+398228715+397476963
2818+397279770+397480080+397819008+398117738+398227832+398070189+397723410
2808+397235161+396452005+395359649+394440963+394263559+394748074+395221679
2798+395232206+394954030+394696202+394411822+393919368+393279534+392693776
2788+392267014+392078760+392253311+392723652+393106482+393019971+392451534
2778+391696930+391004901+390404587+389891197+389607904+389690475+390011524
2768+390232271+390105504+389622489+388941252+388321178+388012274+388009274
2758+387992454+387708015+387312217+387095351+386978053+386606279+385901517
2748+385185052+384709183+384334763+383803347+383165453+382739103+382680380
2738+382818262+382934326+382976435+382961791+382901509+382845610+382830672
2728+382809323+382684291+382312988+381590524+380724503+380203525+380239400
2718+380458059+380351582+379823165+379127608+378484009+377910690+377350016
2708+376881792+376736000+376946131+377115448+376855709+376376106+376228049
2698+376539777+376933751+377090277+376944249+376437181+375545283+374526735
2688+373803536+373606666+373859671+374326601+374800353+375146368+375173774
2678+374632565+373541592+372397365+371770704+371723156+371816930+371665550
2668+371315537+371095084+371208824+371514935+371678959+371530432+371208589
2658+370940969+370780445+370612657+370345861+370062333+369990584+370232179
2648+370524882+370491271+370126202+369772336+369638865+369602960+369438878
2638+369062723+368604291+368301591+368260394+368359725+368426446+368371958
2628+368136126+367700219+367204589+366887127+366850429+366982283+367119637
2618+367185328+367136074+366910946+366548376+366233708+366077506+365970029
2608+365805358+365691735+365772071+365971793+366109058+366139051+366128407
2598+366098148+366019195+365880871+365691117+365476516+365288938+365140264
2588+364969036+364747407+364576531+364612112+364886171+365173963+365148321
2578+364840799+364750582+365198075+365801506+365925303+365417823+364642017
2568+364056025+363946107+364257364+364567180+364500342+364185820+364050026
2558+364229311+364443736+364401980+364120599+363840982+363771262+363915966
2548+364084077+364063905+363824309+363544663+363434245+363523932+363658433
2538+363710186+363712951+363722272+363706570+363654110+363590212+363450330
2528+363170596+362902653+362899095+363246109+363873505+364615288+365157496
2518+365219159+364855707+364372398+364003536+363816017+363771291+363794492
2508+363889090+364126010+364436120+364593116+364497872+364299355+364186497
2498+364220166+364380514+364629579+364860206+364867852+364508546+363904322
2488+363387049+363193208+363297980+363535606+363741856+363816752+363807548
2478+363863566+363986804+363995861+363840218+363711274+363737445+363807872
2468+363805931+363840688+364133655+364696535+365175757+365148556+364594763
2458+363902028+363430687+363282483+363374199+363474825+363328885+362979695
2448+362799528+363045299+363564953+364021503+364248689+364330937+364440619
2438+364648722+364860500+364933896+364871763+364835858+364925898+365057370
2428+365145792+365272442+365549942+365946828+366318219+366511884+366475862
2418+366365768+366432430+366707695+366961053+367028891+366987047+366963817
2408+366988841+367061237+367201237+367408722+367689545+368108044+368690067
2398+369295232+369749312+370120203+370699050+371762177+373595757+376658398
2388+381415061+388110753+396983627+408524080+423179693+440888067+461123403
2378+483302795+506990454+531834573+557275211+581981418+603937505+621967252
2368+636569729+648073690+655334261+657691876+656658214+653764771+647642017
2358+635457966+617295953+595751661+572095054+547927732+527857302+516494312
2348+515688660+524775253+540563419+557231338+569202553+574890047+576659964
2338+577859002+579976669+582489722+584813991+587076450+589092433+589970304
2328+589117192+586873905+583608307+578785864+571631094+562593431+553303234
2318+544904612+537247420+529745312+522196156+514542022+506585246+498305246
2308+489909093+481461570+472956852+464686350+457086939+450291005+444073712
2298+438133389+432333684+426851499+422094777+418281383+415125556+412103435
2288+408981365+405957391+403364709+401382366+399962433+398874636+397844473
2278+396773230+395812788+395159839+394796622+394474367+393968534+393328582
2268+392805076+392536251+392423598+392290068+391985927+391398964+390590959
2258+389856881+389425002+389197609+388955867+388652343+388352289+388092080
2248+387951081+388067997+388426362+388775258+388891351+388779198+388556422
2238+388309710+388107841+388018096+388039679+388084611+388086669+388100931
2228+388183855+388164594+387748712+386929886+386053367+385388538+384890703
2218+384418510+383965400+383675992+383709484+383993894+384205849+384181296
2208+384148714+384345966+384662340+384844948+384813455+384645079+384453414
2198+384361287+384485172+384907082+385630428+386510005+387289369+387785057
2188+388020625+388195058+388521224+388987242+389289207+389189052+388928902
2178+389062991+389855940+390998637+391915266+392261839+392146746+391918059
2168+391798055+391817316+392025477+392481851+393002210+393232750+393093162
2158+392891058+392912700+393118627+393294178+393331787+393310057+393391157
2148+393660423+394039519+394387356+394676471+394998579+395408551+395852338
2138+396259987+396656432+397156178+397827565+398571583+399216298+399729248
2128+400228024+400829396+401626461+402710730+404055679+405485316+406855465
2118+408128341+409251337+410154409+410901397+411685789+412620178+413587236
2108+414323932+414657185+414661008+414581789+414594963+414637630+414507335
2098+414108390+413555802+413078668+412893061+413104604+413629874+414258976
2088+414834059+415294549+415581870+415636182+415459749+415073243+414467608
2078+413733529+413154152+412979542+413126305+413241839+413098752+412838249
2068+412777174+413028738+413375193+413562712+413688156+414112595+414945035
2058+415818438+416310362+416431395+416542989+416910205+417483789+418072075
2048+418593876+419081360+419550407+420046537+420731097+421704419+422776632
2038+423626127+424196653+424757592+425536955+426472462+427410674+428377585
2028+429524723+430962946+432736304+434763842+436791293+438647780+440483330
2018+442475611+444441192+446030442+447154202+447997023+448841843+450021474
2008+451733374+453726126+455431233+456586222+457515348+458654899+460021608
1998+461279722+462172473+462795752+463533448+464716872+466233843+467573440
1988+468390178+468887366+469577249+470810015+472570817+474560158+476392708
1978+477873952+479179262+480642597+482351586+484165846+486129605+488510744
1968+491301885+494017630+496241156+498136752+500189433+502647379+505341570
1958+507861386+509816911+511106165+512058198+513245827+515113488+517757101
1948+520901843+524033117+526771887+529186313+531575216+534101266+536868735
1938+540019417+543354236+546184868+548005363+549092955+550156493+551656761
1928+553657864+556079819+558823058+561771606+564876886+568094318+571091562
1918+573306384+574688737+575990165+577761905+579676733+581193527+582354221
1908+583586958+585122220+586828268+588310893+589230109+589760702+590449026
1898+591460516+592476300+593409513+594558739+595933916+597099374+597832335
1888+598456438+599361186+600537406+601645993+602296090+602353431+602139770
1878+602198170+602710237+603269471+603372802+603009585+602658954+602795278
1868+603314344+603526063+603049871+602371250+602164647+602307617+601979628
1858+600821816+599446344+598549418+598054523+597444771+596587189+595844759
1848+595525709+595585226+595765187+595683499+594954066+593527841+591722225
1838+589886969+588206739+586845911+586031320+585683865+585213259+584157837
1828+582852056+581792164+580806668+579471776+577906816+576615738+575789973
1818+575142228+574304171+573188997+571903801+570602195+569617935+569355226
1808+569695036+569937866+569648752+569102750+568736358+568662962+568881915
1798+569412684+570151350+571130965+572607886+574248007+574916453+574363512
1788+573775402+574203899+575686642+577600528+579351684+580743035+581943779
1778+583170459+584458361+585933341+587951911+590387804+592210945+592820344
1768+592910266+593534545+595251356+597960308+600878039+602904019+603792712
1758+604267494+604778620+605240639+605786052+606876114+608632211+610487639
1748+611772542+612429284+612954525+613960605+615745695+618021916+620008022
1738+621174244+622011478+623643483+626472292+629277930+631048435+632214892
1728+633310894+634373844+635357634+636330545+637428428+638922110+641082121
1718+643754434+646175506+647653132+648220364+648304817+648342633+648620750
1708+649292371+650429188+651847356+653318455+655284154+658476415+662032657
1698+663737764+663503344+663295388+664360749+666311216+668314083+669854932
1688+671025271+672673919+675582770+678811376+680318938+680295884+680389746
1678+681586256+683957162+686904299+689704526+692269274+694852018+697139942
1668+698530234+699356705+700570917+702517090+704581827+706008876+706996548
1658+708268453+710164696+712760614+716076790+719166543+720880472+721918075
1648+723160222+724221643+724053678+722841113+721791513+721800394+723116055
1638+725164736+726693351+727110851+727646148+729174882+731054011+732914085
1628+735443781+739184514+743454486+747132114+749834421+752067945+754582057
1618+757810369+761535752+765051885+768046012+770656632+772740247+774114601
1608+775259181+776843431+778774138+780371209+781181154+781263725+781103641
1598+781484972+782852269+784521619+785320684+785273635+785669727+787244098
1588+789106701+789770618+788953322+787742815+786978743+786458030+785998893
1578+786392515+788581225+791734318+793617034+793469125+792056426+790454120
1568+789661171+790124190+791615578+793533287+795378306+797336242+800029727
1558+803071667+805343771+807141212+808805445+809723132+809861044+810721861
1548+813571312+817569754+820850997+822909970+824693413+825940324+824732699
1538+821856723+820205899+820619928+822521405+825335747+828604992+831652989
1528+833634979+834056360+833608161+834279077+837737164+842995808+846931028
1518+848411242+848901373+849814061+851725125+854768241+858434930+861908837
1508+865238069+869018617+872717887+875595392+877648307+878952677+880790403
1498+885825212+893832565+899316691+899028811+896371495+895818142+898747871
1488+903564080+908175686+911726988+914354311+916656291+919075775+921239373
1478+922139828+921390988+920458775+922106835+927436523+933902146+938647723
1468+941600388+943486751+944006640+942628463+940005434+937489440+936010403
1458+936287932+938542451+941125254+942155270+941622971+940188689+937906646
1448+934553831+930615493+927224157+925301272+924780795+924703576+924666878
1438+925868034+929491615+933836160+935860964+935321667+934467261+935413824
1428+938037677+940319837+940877248+940204097+939508363+939033288+938230400
1418+937208794+935933772+933507759+930523395+929472501+932022017+937038242
1408+941660611+943839734+943639954+942094871+940561609+940327953+941243935
1398+941992834+941419838+939628808+937973925+937724626+938673129+939393682
1388+938790751+937259548+936160077+936861104+940355124+946299799+952630156
1378+957418489+960946325+964843554+969684640+974250785+977059892+978094084
1368+978507937+979012182+979263481+979297121+980698411+984640512+989084213
1358+990725039+989778300+989951440+993241092+997274232+998900474+998288016
1348+998153222+1000548594+1004876377+1008078872+1007471001+1004625607
1340+1004502692+1009509978+1016455087+1020637490+1021264298+1020763934
1331+1020926370+1022065539+1024029708+1026536116+1029057461+1031082794
1322+1032520723+1033999349+1036867797+1041058081+1044525342+1046303904
1314+1048396164+1052808753+1057874027+1059568137+1057650310+1057702652
1305+1063280170+1070140237+1071342217+1067569961+1066248831+1070142002
1297+1073741823+1071973611+1067183808+1064493205+1065381839+1066239892
1288+1062469754+1054469694+1046898836+1042177254+1038486040+1034388913
1280+1031001047+1028462411+1025100892+1021240303+1018765183+1017076014
1271+1014123466+1010636327+1010001286+1013454432+1017422410+1017602137
1263+1013866344+1008755198+1004363898+1002424312+1003356348+1004343903
1254+1001575316+994641264+986352148+979469143+974991686+971425622+965426959
1244+955498839+944399321+935576377+928797586+921447152+912823343+904670021
1234+898143941+892856479+888238522+884006306+879629238+874667178+869459346
1224+864522927+860014888+856256453+853750928+852439737+851786229+851689838
1214+852549008+854313338+856380368+858481744+860757024+863031422+864897083
1204+866417818+868144979+870572580+873587643+876239196+877742581+878928270
1194+881385217+885145122+888758058+891369090+893291798+895153872+897540599
1184+900846659+904739124+908059358+909946955+911089124+913160565+917126014
1174+922778339+929512552+936265760+941479237+945435395+951185052+960402147
1164+970374669+977479450+981290873+982782614+982050593+979649340+976947504
1154+974694043+973134552+973107616+976022407+982716922+991801987+999437536
1144+1002415019+1001347835+999395898+999179944+1001106945+1002690725+1001154347
1134+997727665+996567912+999821337+1004985531+1007383608+1005949090+1004211578
1124+1005445786+1010359092+1017506981+1023702014+1027081764+1029430205
1115+1032681865+1035675933+1036705596+1036733120+1037172438+1036942134
1107+1034135791+1028702831+1022387823+1017614252+1015824751+1017345486
1098+1022775858+1031926967+1040775905+1042439080+1034934679+1024121454
1090+1017302201+1017434173+1022535203+1028780226+1032707977+1031547989
1081+1025855084+1020155710+1018491830+1021002589+1024696743+1026104796
1073+1023896325+1019710511+1015513523+1011888883+1009667592+1009631247
1064+1010961669+1010501061+1005258884+996864084+989844992+987019947+987169326
1054+987871883+989402262+993638184+1000430501+1006603892+1008430091+1004353312
1044+996789512+990963930+990449334+993794856+995899349+993798620+989563052
1034+985997400+983910962+983607027+985598955+988794392+990771735+991251398
1024+992323170+994615152+996217046+995685394+994438484+995158918+997789887
1014+999856976+1000567531+1000520482+998099586+991313267+982303187+976282940
1004+976429791+979238663+977252028+968506950+957855925+949212296+941878388
994+934627344+928606157+924728277+921307241+916027425+908947286+902300702
984+897959862+895799734+894617633+893552448+892305949+890896014+889266420
974+886977261+883663261+879891065+877127595+876459031+877249392+877269447
964+874487922+868940045+862795766+858641357+857494954+858019313+857991201
954+856982240+856550685+857582288+859502879+862404673+867455832+874525855
944+881471316+886371331+889459026+892524609+896764764+901606203+905237724
934+906724289+907687555+911022373+917902966+926530952+934024296+939000236
924+941523287+941884504+941242111+941828634+944251882+946072729+945131930
914+942441503+939799360+937299481+934745731+933067265+933437951+936134964
904+939497189+940287138+937085879+932586367+930901197+933014335+936095384
894+937679870+938893729+941514818+944329924+945585480+946789106+950389986
884+955076399+957097675+956311195+956046487+957797643+960818646+964669708
874+968926448+970941666+967177997+959139710+953032541+952676087+956869135
864+961994278+964554733+962925551+959249804+958114046+961560782+966899057
854+970897382+973025928+973478302+972354248+970754059+970882679+974266899
844+980348309+986288161+987642637+983082491+977480626+976707026+981762361
834+989372387+995806310+998959756+999196058+999441300+1003144982+1010355916
824+1016934279+1019194856+1017796801+1015707834+1014587014+1014653941
815+1016016592+1019734153+1027404989+1037406976+1044409837+1043775384
807+1035593127+1025834265+1019771675+1017517214+1017761867+1021259358
798+1028480172+1034076509+1032627994+1028382311+1028596383+1032756673
790+1032496140+1023381376+1011964279+1005905335+1003950339+999108077+989751129
780+981320808+977668762+977392174+977584898+977203450+976448375+975629373
770+974697572+973169192+971432973+970868035+971444500+971345463+970529283
760+972700174+981914211+997173195+1011871946+1020050439+1021664212+1019617943
750+1014914945+1008004770+1001111297+996042377+995353112+1000554122+1007164831
740+1009047959+1005499421+1000720439+998289193+997471014+996033673+993106532
730+990498852+991184236+996150472+1002763886+1006613184+1007216702+1009186636
720+1016143977+1023931141+1023262225+1013001940+1004032440+1005783831
711+1016199494+1025014087+1025123946+1017997817+1011270897+1009641597
703+1008544419+1002240351+992561942+986117080+986457008+989866752+989286758
693+984799890+984193137+990158101+995215259+992457141+986287397+983504813
683+985422934+991061086+996927718+994989425+981434195+966080702+962116958
673+970822633+978863861+970390019+948566492+934569474+935692000+944408260
663+957621622+977999221+1004464465+1024260483+1021182315+995906053+966857654
653+949271812+944992136+947046757+948678586+948676469+950468263+956650946
643+967565150+983055085+996117655+993106179+975074315+955892049+941851923
633+930505517+924299486+930735879+950269953+969546846+971867234+957782999
623+938958363+922423062+908735214+900695338+903209567+913642698+920064741
613+914215928+905781490+907852284+920557812+935206809+941402901+936379324
603+929746502+927534973+925357025
##END=
