##TITLE=<SNM>
##JCAMP-DX=4.24
##DATA TYPE=INFRARED SPECTRUM
##DATE=29/4/2025
##SAMPLING PROCEDURE=Instrument type and / or accessory
##ORIGIN=Admin
##XUNITS=1/CM
##YUNITS=ABSORBANCE
##RESOLUTION=4
##FIRSTX=4497.3318
##LASTX=599.83466
##DELTAX=-1.4281778
##MAXY=2.2076402
##MINY=0.61276811
##XFACTOR=1
##YFACTOR=2.0560251e-09
##NPOINTS=2730
##FIRSTY=0.62496483
##XYDATA=(X++(Y..Y))
4497+303967507+303754284+303655050+304435989+306039497+307337187+307541365
4487+306938745+305892401+304599726+303931240+304686001+306032365+306380045
4477+305579828+304791207+304575432+304456949+304148348+303896539+303751472
4467+303681576+304143449+305507178+307150055+307936966+307402415+305847872
4457+303783129+302009971+301479971+302402498+304064190+305550838+306322963
4447+306311222+305669871+304481214+302945370+301765902+301673278+302549537
4437+303691143+304687451+305320510+305254760+304739372+304853970+306168764
4427+307743659+308147232+307000320+305144655+303788029+303662211+304438164
4417+304801382+303770866+302097173+301638316+303227763+305737506+307469614
4407+307887769+307477528+306703344+305976704+305940060+306713375+307494401
4397+307592011+307155360+306482845+305556665+304612946+304153972+304216504
4387+304327943+304147623+303795189+303602375+303642845+303616174+303349174
4377+303117108+303159317+303338506+303434870+303281627+302830974+302484164
4367+302797693+303653485+304241436+303889523+302475960+300454761+298984811
4357+299221487+301010417+302916872+303791913+303928631+304398331+305612152
4347+306861863+307205223+306623592+305916839+305503004+304953146+303988525
4337+303240490+303403270+304215055+304899920+305038522+304513712+303397472
4327+302328399+302084273+302497847+302679616+302367942+302208989+302663324
4317+303406401+303921413+304043114+303806321+303227502+302499297+302130135
4307+302544696+303634525+304788974+305192982+304259613+302167967+299955984
4297+298709926+298637943+299177480+299927515+301098460+302877011+304643675
4287+305373591+305041566+304979382+306134527+307402067+306768746+304191747
4277+301913462+301590366+302520895+303108440+302979984+302848020+302998306
4267+302898405+302139499+301054974+300387880+300723297+302152893+304133447
4257+305639722+305913621+305157875+304126258+303186945+302158749+300895644
4247+299675126+298938948+298759992+298692387+298350099+298035323+298397585
4237+299561630+300930027+301767467+301845973+301624691+301815794+302594327
4227+303368047+303578313+303358654+303065447+302685385+302079866+301368446
4217+300736198+300226318+299939662+300075597+300605684+301113796+301186706
4207+300902979+300821081+301409264+302372783+302805782+302301033+301505860
4197+301232221+301497684+301914622+302498311+303373033+304099529+304144029
4187+303752776+303535785+303461106+303023527+302183825+301481102+301361720
4177+301846872+302653699+303375961+303662414+303350827+302546638+301630489
4167+301040566+301007836+301571030+302577831+303578864+304235232+304869509
4157+305836768+306527982+306128729+305067947+304377110+304035460+303351784
4147+302600850+302823958+304116807+305314451+305527674+305196200+305233945
4137+305722083+305897619+305192489+303984640+303315488+303968116+305679989
4127+307293093+307788217+306910972+304948218+302616185+300932317+300451485
4117+300826995+301459156+302124714+302833583+303630902+304540238+305321554
4107+305561071+305260645+304864291+304656576+304632891+304742039+304790830
4097+304425466+303550280+302548928+301943873+301988634+302559915+303306704
4087+303998469+304615932+304928620+304477590+303330969+302343329+302260185
4077+302996798+303938633+304451325+304156755+303308269+302708461+302848977
4067+303508360+304240479+304671506+304475358+303720713+303040863+303059156
4057+303826122+304731313+304924620+304240015+303528479+303543438+303962347
4047+304111096+304062595+304385372+305205680+305883501+305594729+304283385
4037+302837323+302198030+302653206+303951794+305536082+306709113+307086711
4027+306804665+306165459+305460823+305075717+305195823+305359009+304886671
4017+303882392+303174682+303228923+303761097+304435467+305310509+306428459
4007+307371105+307486950+306615214+305486392+305046813+305448038+306186101
3997+306929352+307409430+306980114+305440907+303826673+303355378+303982959
3987+304684609+304819269+304620309+304568272+304801324+305183647+305649491
3977+306245965+306920858+307498633+307810771+307779752+307432883+306782662
3967+305818533+304875800+304662461+305353501+306093999+306165691+306136817
3957+306826640+307709102+307584183+306595182+306251821+307321474+308823226
3947+309548330+309633648+309799385+309987851+309678032+308872480+307976102
3937+307255695+306919524+307219399+308198979+309470984+310307149+310236790
3927+309640750+309238134+308978411+308310592+307570181+307787898+309120028
3917+310461580+310699532+309623240+307720061+305905968+305099721+305657435
3907+307609695+311134472+315874752+320168437+322249762+321735533+319063706
3897+315042181+311376599+310048701+311642410+314303655+315334200+314694676
3887+314518850+315548003+316439974+316644240+316961741+316830792+314816174
3878+312000063+311132907+313143785+316782929+320561197+323243199+323462742
3868+321708804+320423203+320568821+320357714+317840840+313776526+310557741
3858+310079489+313511294+321070758+328845735+329521440+323457814+316477024
3848+312089410+311277336+313407132+317008415+321006168+325156149+328743226
3838+329772060+327316993+323288656+319881434+317597178+315966825+314899868
3828+314526590+314637217+315621203+318783835+323735511+326711474+325874468
3818+324322360+323810654+322359432+319088754+316279340+315938588+318038583
3808+320719194+321907242+322261097+324149115+327491283+329075367+327488558
3798+324678650+321916258+319241793+317153163+316384806+316947246+318326456
3788+320185976+322463768+324983280+327587849+330573959+334133496+337376981
3778+339157387+340044372+341869046+345867147+351962401+358524746+363013680
3768+364435013+364095683+363709678+364435361+366998504+371338544+376067982
3758+379450388+381516029+384174781+389487357+397564586+405269523+409640525
3748+412497368+417207266+423846927+428178329+427756956+426261234+428727868
3738+437545334+449916219+458721219+460307391+457927525+455783059+455369108
3728+456615166+458834774+460506583+460118548+457422660+453315469+449381987
3718+447226708+447366383+449160792+451933446+455349307+458459872+459809484
3708+459228577+458280481+458723770+460657303+462299571+462363059+461926843
3698+462581095+464468359+466945197+469980706+474162721+479097438+482010435
3688+479936358+473984431+468146668+465264547+465899838+468869221+472872134
3678+478089622+484337916+487982481+486463103+482810739+479901251+476972483
3668+472551009+467458295+463789408+462791245+463863217+465547317+467450468
3658+469827696+471805989+472599655+473843481+477760003+483913412+488223795
3648+486666962+480582202+474185392+469872515+467701146+466744440+466446652
3638+466977318+468525774+470754746+473335717+476792802+481726302+486590196
3628+488343873+486955937+485045654+484631268+486563583+490039569+492193718
3618+491339260+489840928+490547014+493325380+496187296+498081750+498956211
3608+498204842+495637583+492981556+492321159+493984038+496666215+499286468
3598+501849204+504251393+505423816+504742719+503956040+505895661+511020496
3588+515521403+514760062+509603627+504725963+502801011+503227864+504042895
3578+504105978+503503445+502651480+502107623+502697110+505049958+508952043
3568+512771854+513896385+511608476+508318548+506262445+505289997+504138099
3558+502738451+502635477+505071758+508813064+510693718+509621427+508419956
3548+509854567+512700248+513290895+510369723+506264358+503621783+503092479
3538+503469584+503029570+501253629+499493574+499431245+501045711+502621330
3528+502896737+502464551+502402512+502599703+502145368+500622106+498432068
3518+496125605+494336618+493952207+495086711+496377530+496606727+496527641
3508+497615935+499726887+501248585+500863710+498765281+496465660+495358001
3498+495531653+495857155+495603085+495799117+497823969+501158889+503494052
3488+503363828+501773482+500503362+500133156+500001773+499124702+496940520
3478+493719705+490594269+488910400+489228249+490949921+492839910+493758784
3468+493143959+491324648+489350240+488080120+487465991+486976752+486393526
3458+485829869+485388609+485054061+484734473+484438541+484352556+484529889
3448+484624600+484084367+482737336+481214189+480517061+480840389+481166935
3438+480595074+479604710+479365714+480014515+480289894+479097873+476938333
3428+475252464+474709738+474960503+475787247+477074790+477971516+477729244
3418+477140395+477473087+478268579+477921160+476302287+474981173+474794708
3408+474885941+474345070+473488350+473087155+473370679+474136601+475079798
3398+475771157+475855055+475396806+474744033+474291641+474301874+474384004
3388+473629910+472047797+471101788+471924646+473839132+475285745+475691086
3378+475892916+476757782+477914115+478183203+477252210+476355774+476854087
3368+478612983+480297866+480991457+480923417+480800528+481113419+482013479
3358+483377469+484877511+486211641+487336462+488364224+489337484+490131469
3348+490452854+490111987+489441733+489064048+489156991+489318814+489084921
3338+488299054+487115267+485965572+485352922+485303348+485185590+484475764
3328+483488415+482861559+482605285+482276623+481771961+481308697+480984674
3318+480824155+480910082+481076486+481003111+480784554+480879207+481540039
3308+482653496+483857635+484522265+484060856+482673963+481301827+480569794
3298+480321812+480319058+480619252+481039320+481155484+481184880+482062530
3288+484157683+486553784+488014660+488137752+487400009+486655772+486720768
3278+487717162+488734835+488727877+487709219+486562829+485899996+485860570
3268+486622259+488058841+489221697+489243092+488606988+488551965+489439298
3258+490439983+490741771+490552291+490381306+489880007+488534165+487013047
3248+486392772+486419791+485991866+485049423+484452891+484413957+484470778
3238+484567895+485017766+485659725+485880225+485390000+484490810+483619451
3228+482945109+482321790+481453330+480199850+478829917+477869035+477673380
3218+478280784+479430101+480338249+479924414+478070257+476120808+475334535
3208+475501838+475596056+474951516+473490032+471737978+470743063+471004062
3198+471636368+471553803+471002583+470969853+471749980+472735735+473056599
3188+472269949+470771589+469370752+468425902+467686970+466766327+465455360
3178+463821703+462142704+460572883+459033763+457694675+457108406+457397699
3168+457728594+457176069+455945897+455061753+454904597+454857285+454419823
3158+453867385+453729913+454145865+454613014+454339955+453119437+451548311
3148+450158520+448918086+447766854+446918629+446436348+446110324+445806361
3138+445615286+445763368+446365757+447108022+447402824+447103065+446696535
3128+446565209+446489110+446079739+445299844+444329280+443258699+442187394
3118+441359868+440913448+440677728+440492046+440472361+440646303+440602875
3108+439944420+438838791+437704606+436727026+436090633+436071586+436392479
3098+436246774+435423597+434508955+433731553+432746059+431687220+431243379
3088+431621731+432386638+433188682+433900421+434211747+433778546+432772179
3078+431822923+431318957+431045202+430630960+430094612+429740294+429704809
3068+429833758+429872315+429684893+429343910+428928683+428307712+427367037
3058+426359714+425733786+425663397+425917931+426169828+426318721+426331796
3048+425859603+424563711+422918457+421997901+422274671+423117359+423515656
3038+423005979+421961461+421203743+421277871+421972941+422543324+422440263
3028+421803435+421122164+420505542+419661984+418544701+417556221+417030976
3018+416757511+416165647+414983773+413731859+413344839+414079770+415137334
3008+415632893+415512584+415172412+414643485+413614071+412107913+410749373
2998+410184063+410485561+411325698+412365723+413169390+413146807+412104318
2988+410685623+409857111+409926630+410268396+410173801+409770981+409628871
2978+409700216+409406487+408610792+407750246+407138407+406767071+406618439
2968+406651980+406574808+406026400+405067287+404278173+404224918+404866733
2958+405571456+405675995+405053546+404187724+403628966+403398059+403093545
2948+402525714+401877086+401256144+400578614+399931349+399557665+399438573
2938+399304174+399063294+398896426+398951450+399178530+399393870+399390043
2928+399151714+398998878+399196678+399461765+399221871+398331494+397237171
2918+396438084+396080286+396047730+396100580+395941684+395443081+394808485
2908+394365862+394245900+394336060+394466516+394509219+394323884+393768199
2898+392858138+391896126+391364271+391558593+392195479+392528780+392160372
2888+391556100+391351748+391462780+391413642+391207115+391241005+391617936
2878+392058761+392288248+392190464+391785702+391186011+390456732+389606014
2868+388816929+388440230+388587181+388958662+389211399+389271583+389150896
2858+388703983+387857352+386936246+386386069+386214969+386093702+385958695
2848+386059349+386405000+386633935+386512959+386221752+386037693+385940808
2838+385675721+385159086+384619926+384248445+383945497+383605007+383350183
2828+383265097+383192650+382975861+382631979+382230232+381900729+381926791
2818+382443049+383033610+383007605+382178108+381092656+380385758+380143167
2808+380019814+379781108+379555043+379570697+379787399+379917623+379775745
2798+379438763+379023797+378503567+377853606+377216835+376791085+376624797
2788+376601373+376580297+376481295+376245460+375831479+375305683+374857639
2778+374693323+374868917+375164588+375228077+374975224+374676161+374515990
2768+374362312+374067337+373651704+373129793+372501284+371912232+371551448
2758+371449490+371499933+371548897+371425747+371017245+370364762+369696219
2748+369325781+369407041+369771100+370073526+370068627+369750633+369303865
2738+368882260+368468337+368046877+367723665+367503079+367243819+366971398
2728+366846102+366788701+366532544+365995181+365345104+364825947+364596982
2718+364628088+364804233+365074045+365275962+365080858+364460003+363827987
2708+363428241+363052034+362553808+362147916+362056452+362221087+362422077
2698+362497509+362432687+362287736+362049668+361640007+361099455+360626857
2688+360361886+360227284+360066214+359867515+359740074+359714592+359699807
2678+359601588+359393815+359115654+358848219+358668248+358610412+358632763
2668+358593105+358359820+358007270+357787959+357845998+358048639+358122101
2658+357906326+357492259+357108109+356875984+356749993+356642903+356491980
2648+356287251+356143894+356211644+356431448+356541756+356379121+356002857
2638+355537273+355104130+354879978+354991213+355305178+355466305+355235514
2628+354757436+354406365+354338440+354297506+353970236+353413971+352965637
2618+352842979+353000976+353241363+353367181+353368427+353428002+353601741
2608+353681174+353538890+353313549+353124243+352965086+352914614+353060348
2598+353246146+353240870+353082265+352992569+353053303+353134853+353074263
2588+352835674+352536031+352377280+352519419+352909193+353255481+353310505
2578+353143753+352999498+352977726+353016486+353069045+353136303+353198429
2568+353226839+353240175+353303605+353443338+353559270+353510190+353300648
2558+353046375+352780998+352472861+352198034+352124572+352320517+352657065
2548+352892640+352836254+352484051+352022875+351675369+351531403+351538390
2538+351627303+351771500+351910596+351929584+351807245+351722681+351909784
2528+352388789+352879710+353073133+352984191+352853329+352717886+352426941
2518+352092886+352058562+352359335+352666110+352776708+352774186+352765372
2508+352788217+352854054+352863070+352666980+352352697+352239345+352474224
2498+352813061+352912904+352713161+352404415+352141126+351958951+351895173
2488+351980665+352112860+352098133+351875343+351634522+351655279+352017975
2478+352510577+352834717+352873767+352763575+352715683+352752472+352685388
2468+352444219+352265871+352383455+352722960+353078177+353360107+353514886
2458+353418464+353048607+352644947+352482892+352474832+352234098+351663193
2448+351196102+351239211+351671745+352101177+352309559+352283729+352116716
2438+352007887+352106830+352311385+352424157+352476253+352678344+353064813
2428+353385416+353408695+353225042+353174541+353510914+354170848+354856670
2418+355316542+355506544+355496339+355335096+355073807+354835217+354770482
2408+354941553+355274941+355634478+355917161+356070607+356086870+356057387
2398+356171812+356549062+357125532+357845389+358901445+360648628+363398902
2388+367529228+373720556+382818067+395374780+411425454+430658008+452640634
2378+476927027+503127268+530710487+558438484+584517459+608095620+629751323
2368+649459810+665485784+676344887+682025697+682428487+677414801+668319232
2358+655808903+638046414+613504328+583946989+554572405+531699692+519529013
2348+519416241+530589714+549296183+568462495+582431264+590855941+595675103
2338+598299937+599629951+600337428+600834901+601025888+600326528+598424015
2328+595625298+592025987+586956523+579625705+570205213+560029758+550469475
2318+541902166+533836214+525764000+517614904+509335758+500574214+491098177
2308+481165341+471267554+461788502+452960512+444910998+437706026+431331017
2298+425555119+419989777+414528510+409582226+405596214+402462341+399656956
2288+396831017+394019835+391392421+389087698+387269865+386093818+385535148
2278+385324563+385106382+384680979+384087433+383456374+382848333+382259164
2268+381692956+381165334+380668412+380159663+379589483+378963555+378360326
2258+377865086+377510014+377258552+377023587+376748353+376446072+376113177
2248+375729376+375415469+375391031+375691920+376115758+376460915+376655498
2238+376720291+376747078+376816046+376862024+376725538+376346549+375820521
2228+375278462+374759623+374202489+373552006+372845862+372165780+371561566
2218+371077255+370768248+370625327+370564447+370539631+370572999+370634893
2208+370616195+370497103+370427178+370545980+370837100+371218206+371654625
2198+372130441+372608780+373037053+373318490+373364034+373261437+373273526
2188+373597231+374223246+375010708+375774253+376357362+376737424+376999061
2178+377187265+377310474+377449859+377694623+378004036+378271413+378457675
2168+378573085+378621412+378621586+378592451+378532499+378521947+378764914
2158+379358779+380070489+380505893+380506473+380290003+380203090+380395151
2148+380755963+381136054+381542700+382068612+382694250+383273823+383737492
2138+384226616+384971346+386063582+387398495+388835019+390362137+392055544
2128+393879957+395623458+397105555+398400751+399747174+401254463+402799439
2118+404197928+405374555+406338886+407085268+407589350+407875368+407990923
2108+407883746+407423410+406625744+405739890+405000900+404368043+403590844
2098+402525395+401357552+400426560+399787934+399149482+398387416+397842400
2088+397807495+397991960+397856866+397307327+396717405+396397469+396337111
2078+396401991+396523605+396680877+396850934+397011047+397163130+397390268
2068+397825092+398427249+398899905+399038769+399038102+399226915+399658406
2058+400140107+400522605+400821320+401148852+401606317+402218475+402945144
2048+403693817+404332762+404843251+405447088+406374167+407537342+408639666
2038+409514447+410174612+410686116+411169354+411782121+412586802+413523738
2028+414525031+415590509+416780210+418148317+419676074+421304484+422983308
2018+424604848+426018325+427218027+428365171+429592791+430961565+432505759
2008+434138952+435690915+437195393+438905555+440887472+442827818+444365720
1998+445499412+446630031+448215449+450280974+452252948+453463493+453861993
1988+454010046+454490414+455551398+457108464+458846718+460446863+461864108
1978+463301125+464894254+466548582+468103415+469648884+471609754+474276015
1968+477242875+479729657+481537894+483180452+485085951+487253144+489569928
1958+491986901+494426545+496765767+498892143+500835648+502899056+505403407
1948+508262365+511168056+514148020+517388432+520541990+522910434+524394386
1938+525642067+527322399+529608105+532175248+534560680+536635337+538676249
1928+541018254+543882199+547287566+550757696+553588129+555804664+558071874
1918+560416488+562029620+562622760+562982993+564000956+565827051+567829522
1908+569200470+569786421+570213795+571079095+572364812+573803307+575382579
1898+577181945+578930693+580113669+580665933+581225444+582311940+583497119
1888+583909070+583499206+583102388+583387362+584270114+585196352+585750471
1878+585915020+585786129+585391340+585092045+585754298+587897952+590565691
1868+591638619+590249118+587878064+586176628+585310979+584654061+583913244
1858+583079601+582072365+581012308+580237109+579865396+579821447+580121148
1848+580864342+582072887+583215334+582834344+580049078+576185434+573197527
1838+571664930+570793077+569804684+569101033+569626800+571128784+571759612
1828+570362167+567919218+565537148+563101563+560401703+557886104+555930365
1818+554408726+553128633+552191785+551826044+552031875+552413560+552406777
1808+551821116+551171039+551404294+553107529+555760541+557909992+558483419
1798+557895613+557561182+558634632+561038560+563028218+562747070+560890826
1788+559631026+559855759+560943762+562170165+563503715+565017411+566507335
1778+568075127+570422466+574283617+579465853+584005955+585517680+584181172
1768+581931356+580208003+580070473+582133766+585345594+587420077+587846117
1758+588123844+588926003+590031227+592120785+596266446+601872461+606352206
1748+607851348+607170136+606227490+606354815+607834128+609881650+611294228
1738+612317178+615046550+620548896+625700112+626099887+623080207+619996748
1728+617805724+616832116+617695040+620104244+623045187+626649368+632202041
1718+639388604+644183878+643193340+638617754+634354914+632366242+633077952
1708+636255456+640781700+644683032+647419826+650922194+656287474+660775451
1698+661699138+660441252+658245706+655274555+653004330+652867148+654589748
1688+657641491+663156593+671697927+678255170+677040015+671537611+667423781
1678+666764253+669378013+673607050+677347485+680400447+683637322+685955845
1668+685462953+683605491+683368003+685272255+687043442+686579773+685007748
1658+685367111+690205233+700620669+713231246+717595900+712737311+709056479
1648+710138858+712681765+711966171+708230083+705024576+704586127+707582500
1638+713548805+720093060+722588945+719570772+715703359+715020407+718141554
1628+723594616+729615655+735471334+740626899+744300831+747489351+753065564
1618+762610366+773130457+778442395+777613159+774728283+772575526+771955831
1608+772791503+774586115+776758121+778798685+780123481+780242341+779473346
1598+779075426+780374014+783623761+787648939+791067989+793757239+796376332
1588+798826703+800115086+799764479+798586663+797926614+798785131+801628087
1578+805971461+809499166+809828553+808911998+810455032+814902888+819504797
1568+821891505+823062304+824664884+827188542+832128246+842341446+856829430
1558+864088526+859049792+852442455+849658407+849420977+849479943+848703642
1548+847400937+847195744+849783181+855673474+864013732+871427288+871162549
1538+862922307+854741264+850488107+848781336+847046677+845284187+845668887
1528+848950929+853210290+856174367+858242646+861102533+864474270+866761426
1518+867560049+866744611+864017964+860810601+860136230+864337668+873564100
1508+884679012+890316917+886600717+880699697+878677513+880911790+885298824
1498+888895468+890166399+890563160+892675504+897462893+903533215+907737669
1488+908052850+905981904+903823871+902346123+901913821+903450187+907513574
1478+913281992+919490251+926111388+933241013+937608218+935056382+928149865
1468+923036510+922403015+924040731+923793213+921586360+921323245+925151173
1458+930429483+930956815+925427334+918831245+913756968+910464838+909634326
1448+911321963+913161451+912295977+908866316+905790337+905627354+908552236
1438+912566861+914590843+912911671+909040142+905257091+902890038+902906621
1428+905513248+909065943+910670436+908849966+905846926+905812949+910458982
1418+916233720+917883496+915030625+910375316+905584680+901364166+899048137
1408+900288745+904692361+909073539+910684700+910676698+911925713+914810647
1398+917304387+918092921+917588028+916055082+913219316+909913907+908088682
1388+908796276+910981270+912896190+914215652+915830814+918777555+923557116
1378+929495823+935393480+940716608+945155361+948338894+950551197+951800618
1368+950594914+946475286+942511104+942530353+946925098+952339488+955908649
1358+958164031+960370768+961570963+960525054+959153294+960983795+966938795
1348+974165712+978667083+979163164+977949169+978053186+980044119+982170262
1338+983412668+984530183+986013787+987696844+990773172+996884544+1005036018
1328+1012182110+1016334786+1018191089+1019804337+1022668340+1026743091
1320+1029867311+1029336905+1025855642+1024324726+1028611918+1037127160
1311+1045135190+1050836177+1056253292+1062013767+1065684162+1065059365
1302+1060968959+1057454299+1058184505+1062861673+1068379790+1072434595
1294+1073741823+1070186229+1060770434+1048420943+1037621154+1030924295
1285+1028446441+1028057740+1026170708+1021057875+1015357120+1012944901
1277+1013676150+1013620721+1010770981+1007717962+1007189528+1007549123
1268+1005252749+1000201955+995187108+991406550+987985703+984477653+981036280
1258+977306861+973451276+970953420+971042710+973193379+975114156+973834875
1248+967674509+958081989+948036642+938187558+927372521+916057923+906163731
1238+898451344+892042125+885825286+879338490+872702104+866213974+860069321
1228+854514966+849723171+845276417+840594611+836137942+832957076+830955359
1218+829199362+827931388+828437035+830776837+833122321+833747350+832672276
1208+831176148+830855690+832833462+837068239+842646076+848632500+854098551
1198+857937321+859747935+860484229+861411105+862906769+864725152+866996305
1188+870364796+874709504+878270896+879605142+880088061+882622909+888440495
1178+896314706+904107048+910163629+913901688+916040703+918298926+922350949
1168+928299222+934272660+938734952+942534354+947009866+951217914+952564858
1158+950255670+947096778+947232453+952570540+961020729+968346212+972501788
1148+975022431+977609403+979386736+978632410+975903734+973605852+973169839
1138+974216966+975996039+978030341+979560330+980200782+981123483+984630373
1128+990654544+994422810+992613935+990130168+993832221+1002924253+1010854705
1118+1015742806+1020826533+1025064789+1023597419+1016795035+1010823048
1110+1008925231+1008047523+1005276984+1002556425+1003119647+1006444015
1101+1008661304+1008144698+1007364049+1009249574+1013835597+1017255400
1093+1015251480+1008898560+1003251263+1001485526+1002733034+1005177722
1084+1008517049+1011266366+1010522129+1007745677+1008137856+1012886920
1075+1016391259+1012974935+1003985412+994437189+988982735+990044125+994775447
1065+997904421+997791011+996467317+996121174+996201882+994204108+988978792
1055+982758532+979546414+980647463+982836574+982546903+979781583+976581525
1045+974915979+975576376+977197974+977247837+975072874+972597108+971543371
1035+972485090+975496827+978750575+977946154+971187023+962952406+958978193
1025+960128004+963183574+965468584+966790191+967656187+967695498+966462833
1015+964817985+964559624+966161219+967875295+967713588+965263681+961546090
1005+958071495+955470433+952535810+947526762+939960601+931008649+922190923
995+914089718+906672220+899986203+894976517+892791407+892333477+890011418
985+883743845+875787650+870037960+867718393+866640884+864843200+863111903
975+862771094+863282192+862942311+860860638+857629619+854218802+851054866
965+848192777+845502599+842509474+838733090+834545335+831242536+830022395
955+831180903+834000319+837048004+839245463+840947132+843159203+845934148
945+848565011+851133256+854762833+859987684+865667682+870153979+873264225
935+876566328+881095878+886031001+890853932+897050884+905723601+915355490
925+923394713+928585936+930811168+930279197+927771194+924929456+923069790
915+922385157+922447718+921823732+918478781+912630002+907782604+906687527
905+907877634+908297644+907865226+908927834+912270987+915736769+917223968
895+917782784+920610723+927018550+934184529+938164656+938557938+938021734
885+938211388+938449456+937663937+935567537+933003873+931951528+933661430
875+937507390+942178586+947190881+952374914+956661410+958187282+955793094
865+951117666+948610764+951900634+959211332+963415380+959765452+952677514
855+949667574+951668306+953968043+954070785+954115835+955903721+958467443
845+961487761+966289124+972154833+975381562+974723484+974010324+976159660
835+979895805+982830312+982981061+978063738+969878056+966022066+971205867
825+980573480+985273029+983731676+981435650+981125686+980750089+979858349
815+981334416+986106904+991100065+995384822+1000981212+1007441395+1011391604
805+1009393134+1000129595+985999988+973505546+968766687+973023033+983100153
795+995247640+1006978479+1014044790+1012891443+1007447541+1003325478+1000182357
785+994850358+987251206+978992005+970787828+963313682+956395279+949030659
776+942901544+942514003+949222052+958067726+962752547+962051795+958236507
766+952738278+947044770+944222049+946625571+952452666+956674223+958261496
756+962344829+971125332+979645097+983521671+985542174+990270829+997005492
746+1000992460+999118068+992805271+986874913+987060335+995419378+1006590938
736+1011507217+1008392159+1001296394+992537981+984778224+981531086+984749001
726+992034942+996507671+991381619+978615480+968967009+970127140+979801413
716+988332078+988086937+982124574+977261636+975069743+974762099+975704977
706+975813052+973826526+971750883+970607972+968408483+965032919+963180965
696+961705304+956528287+950836576+953342144+965773677+979385693+985368581
686+987188355+992787297+1001285493+1006218935+1005529315+999760491+984412947
676+960685718+939182619+927585309+927461405+936642843+947997447+951973515
666+951507236+956047107+967545792+978569328+978169147+965663572+950931142
656+942003891+939503019+940559481+943689846+947432659+949998643+952512386
646+956728667+961706348+963118056+958139216+952859109+955103359+963642141
636+969636568+963024881+945048271+925787915+912892712+910182299+915081938
626+920972811+926557199+935989867+946172628+945293934+931257212+917161117
616+912597359+917432872+925944636+933768577+944331226+956511588+961143821
606+956383509+942396244+920851342+902408510+894490292
##END=
