##TITLE=<SNM>
##JCAMP-DX=4.24
##DATA TYPE=INFRARED SPECTRUM
##DATE=29/4/2025
##SAMPLING PROCEDURE=Instrument type and / or accessory
##ORIGIN=Admin
##XUNITS=1/CM
##YUNITS=ABSORBANCE
##RESOLUTION=4
##FIRSTX=4497.3318
##LASTX=599.83466
##DELTAX=-1.4281778
##MAXY=2.1935501
##MINY=0.63684082
##XFACTOR=1
##YFACTOR=2.0429027e-09
##NPOINTS=2730
##FIRSTY=0.65066981
##XYDATA=(X++(Y..Y))
4497+318502590+319490505+319274307+317458978+314808968+312933681+313246891
4487+315437925+317459474+317940506+317893152+319019713+321160302+322344486
4477+321064165+317949142+315111120+314251173+315530444+317826251+319608115
4467+319841176+318862219+318274693+319131926+320585993+321084706+320382195
4457+319457098+318968450+318722726+318240148+317485091+317271898+318451735
4447+320507100+321671969+320846947+318794909+317105563+316676757+317303117
4437+318188827+318663323+318463377+317482523+315638192+313601705+312992618
4427+314600999+317125403+318753887+319183773+318967458+317960842+315819145
4417+313286658+311857742+312223177+313607745+314929876+316124243+317629310
4407+319139979+319797120+319138753+317448853+315880357+316106037+318710647
4397+322277847+324920154+325862641+325090544+322814285+319614154+316202990
4387+313278168+311733304+311985359+313105706+313762643+313846904+314104124
4377+314729638+315378522+315983058+316466162+316275668+315355735+314888037
4367+316063147+318656846+321287161+322576848+322012021+320247108+318511285
4357+317415067+316657851+315876301+314941138+313721533+312599961+312575395
4347+314014552+315940956+317140108+317343118+316908943+316215186+315738151
4337+316033241+317214158+318547142+318860410+317614459+315491172+313817815
4327+313408236+314048630+315153484+316482792+317850584+318575881+318024417
4317+316634655+315615551+315453243+315436787+315051746+314949570+315730828
4307+316711302+316887849+316347063+315760062+315318623+315139421+315806570
4297+317513713+319338233+320088884+319577509+318703732+318516303+319399562
4287+320919363+322209312+322604565+321965134+320404486+318165048+315893049
4277+314580750+314690921+315553551+316230474+316652278+317357502+318408700
4267+319134902+318856559+317554151+315996333+315272524+315951401+317598850
4257+319198040+320079898+320316898+320343886+320469491+320655462+320544124
4247+319767856+318404791+317066146+316387181+316379945+316577353+316853333
4237+317345219+317679581+317397299+316988099+317195135+317690464+317755264
4227+317563692+317525208+317318055+316757401+316643467+317720690+319433669
4217+320400576+319845845+318185588+316527578+315760179+315910759+316255478
4207+316240277+316278324+317025357+318076789+318505303+318471838+318906625
4197+319793794+320141752+319479447+318320266+317363571+316938732+316999945
4187+317299062+317598850+317721041+317506885+316929075+316183208+315596412
4177+315471157+315848700+316319346+316449764+316511122+317223932+318632221
4167+319850921+320194328+319923104+319523824+318985402+318325460+318166886
4157+319008743+320290785+320903286+320475064+319690655+319419226+319751079
4147+319943877+319309727+318054469+317053454+316849978+317197936+317549921
4137+317648450+317564684+317469948+317552430+317820007+318075972+318401640
4127+319137090+320009816+320005761+318596246+316514682+314981460+314693488
4117+315657040+317290221+318562898+318680537+317809416+316737152+315895849
4107+315173616+314563624+314441666+315067734+316283896+317834303+319518018
4097+320902090+321403225+320866378+319649458+318096104+316453820+315228905
4087+315021548+315969432+317617493+319162211+319770774+319157251+317991944
4077+317274874+317274466+317492939+317571278+317740297+318211876+318484530
4067+317825813+316451923+315485220+315595945+316386306+317138941+317542306
4057+317604072+317324620+316727612+316092761+315831428+315930540+315818678
4047+315180968+314518809+314452170+314893930+315247811+315105080+314665595
4037+314634260+315453301+316586456+317079159+316882305+316887557+317604831
4027+318618479+319395915+319871987+320077476+319798024+318905371+317681798
4017+316521334+315544682+314782739+314451003+314688528+315265755+315875105
4007+316403082+316711331+316614903+316313744+316388085+317111515+318116965
3997+318861665+319187770+319366826+319606598+319612141+318957013+317860591
3987+317055759+316830546+316742813+316351031+315818444+315673000+316196600
3977+317161057+318104419+318775682+319180446+319320464+319249857+319307539
3967+319882257+320885343+321660795+321509106+320395004+319097177+318417424
3957+318422617+318794705+319637875+321344347+323704342+325672294+326188950
3947+325268579+324082469+323701600+324055160+324252130+323751871+322916228
3937+322485438+322867795+323849670+324770158+324949564+324178314+323087348
3927+322798472+323799808+325169175+325440487+324488342+323726049+324244136
3917+325334664+325310185+323747173+321827130+320623280+320278239+320739782
3907+322421687+325760902+330318526+334556143+336899712+336664433+333725810
3897+328889435+324432411+322634063+323798378+325879738+326701551+326987159
3887+329006257+332720565+335215559+334976313+333749560+332385094+329884643
3878+327084229+326583299+329195525+333288017+337096711+339345952+338551419
3868+335392077+332933699+332574449+332479100+330552521+327549390+325491429
3858+325493033+328357315+335016401+342872305+344667882+339607753+333095365
3848+328611441+327072238+328317722+331801711+336517413+341019980+343744127
3838+343640259+341218380+338078207+335144398+332446335+330174686+328927656
3828+328758957+329017723+329955980+333224325+338943113+343498403+344241965
3818+342957034+340823973+336663266+331101768+326936130+326198228+329392816
3808+334880789+339098274+340754125+342088393+343784449+343464762+340730667
3798+337999547+336177186+334596464+333260708+332790822+333334846+334711245
3788+336756980+338945652+340448239+341264829+342523705+344910397+347548648
3778+349240970+350197111+351689370+355118798+361332711+369192846+375387268
3768+377947531+378220972+378150219+378801904+380991743+384622606+387809753
3758+389032188+389774466+393088415+400960833+412449526+422362370+426319834
3748+427600359+431514292+438207194+442186132+441127261+439821410+442603910
3738+450402132+461129758+470140729+473092014+470004650+464842023+461669435
3728+462335387+466053867+469927682+471466069+470896632+469693600+468112382
3718+465489682+462337925+461282555+465225781+473076025+478152144+476016077
3708+470075257+465802453+465660773+468450829+470585845+469735497+467565324
3698+466976455+468980498+473231156+479146535+485523281+490024390+490315279
3688+486674788+482083612+479096527+478427365+479548937+481643777+484738552
3678+489720255+495573692+497776514+495009070+492281597+493229773+495029668
3668+492780748+486976998+481329050+477801647+476094708+475750017+477303051
3658+480790716+484227322+485646581+486433353+489551907+495453193+500579145
3648+500301794+494264487+486076496+479520957+476298739+475507036+475231931
3638+475140492+476585368+480111517+484654786+489793838+496271476+502067903
3628+501999513+496285422+490519164+488019822+488881024+491875869+495113521
3618+497147762+498631267+500738974+502843471+503799525+504087613+504201518
3608+502904742+499796575+497050604+496809373+499031801+502419012+506035258
3598+509394926+511803791+512453726+511285910+509732030+510098895+513432946
3588+517501777+518419493+515673230+512198315+510037916+509188415+509276703
3578+510127196+510814943+510259424+509351453+510527439+514623753+519566769
3568+522611973+523216101+522691041+521570491+519500188+516826692+514605256
3558+513225618+512112887+510973546+510318185+510504623+511291978+512416205
3548+513551402+513942658+513156937+511698815+510205506+508863914+507857619
3538+507631910+508339789+509165132+508702160+506552673+504075534+502842362
3528+503026816+504055052+505844269+508045573+509196001+508354027+506720963
3518+505956073+505826062+505034389+503526141+502568220+503003241+504428102
3508+506196428+508324208+510776489+512371157+511605800+508934288+506203781
3498+504334913+503314262+503403075+504812823+506691261+507704501+507334076
3488+505987233+504444033+503428867+503087911+502877082+502103848+500299693
3478+497328364+493939811+491767450+491869625+493768837+496330588+498743188
3468+500234221+499907212+497737009+495156702+493871772+494328208+495366423
3458+495464981+494605384+494006158+493879999+493014159+490879085+488378343
3448+486282190+484662693+483837612+484269774+485643926+486984409+487584656
3438+487286443+486222962+484928228+484113417+483762424+483080133+481888975
3428+481233264+481721473+482342319+482113226+481732035+482131373+482566219
3418+481835174+480524043+480365586+481791614+483248919+483063415+481434698
3408+479913467+479205472+478498643+477100654+475666456+475137662+475429222
3398+475851785+476106291+476145942+475686179+474741125+474172038+474801812
3388+476381746+478054373+479291046+479724025+478867025+477018551+475803031
3378+476805096+479861125+483186540+485122134+485442346+484929161+484274413
3368+483864046+484157152+485524273+487684381+489764895+491027010+491335346
3358+491028760+490600392+490414013+490560362+490957278+491453861+491833447
3348+492019301+492164833+492274303+492117100+491717558+491455670+491517349
3338+491831696+492571261+493970213+495542882+496130087+495048224+492869386
3328+490749367+489554591+489783334+491411147+493274471+493549197+491828954
3318+489794597+488922746+488756732+488337116+488148228+489325439+491498968
3308+492658090+491436414+488975935+487553641+487634606+487780196+487221613
3298+486679456+486629769+486576726+486244786+486228213+487240986+489234759
3288+491216948+492183914+492394160+492957499+494218621+495504836+496252511
3278+496460598+496227595+495819708+495817432+496384214+496807389+496450503
3268+495736613+495476185+495651593+495708137+495678319+495963314+496269200
3258+495855595+494635844+493243603+492327521+492164891+492540100+492727180
3248+491981021+490380751+489030582+488997934+489991713+490630794+490275891
3238+489832351+490249107+491094699+491283237+490662888+490016979+489665578
3228+489091298+488022798+486917419+486184916+485751704+485497081+485453345
3218+485584056+485759144+485760573+485338098+484550655+483736749+482943558
3208+481816793+480217369+478646538+477852939+478053790+478715920+479203429
3198+479316138+478972118+478109517+477149962+476621839+476443512+476312335
3188+476212464+475889218+474720060+472793918+471110495+470278558+469954525
3178+469690419+469564902+469706904+469667574+468822916+467325756+465930830
3168+464813926+463479804+461918981+460763798+460252860+460081740+460097933
3158+460201772+460008624+459409339+458877774+458675610+458360505+457462278
3148+456189222+455193489+454879988+455002850+454912053+454282950+453449116
3138+452962220+453054943+453503618+453783449+453345073+451979294+450029958
3128+448225920+447273425+447366323+447951515+448184372+447764844+447099417
3118+446628101+446398365+446297706+446287582+446317780+446226691+445773464
3108+444773529+443402177+442262370+441805992+441742183+441339811+440381423
3098+439482847+439313886+439672085+439661057+438930799+438235875+438351005
3088+438934271+439009196+438288071+437422785+437040020+437037977+436940615
3078+436648151+436433441+436242190+435680776+434910664+434757780+435460640
3068+436060595+435693235+434778903+434173492+433963334+433825709+433758836
3058+433785387+433614267+433095977+432403503+431558524+430499652+429627335
3048+429486442+429928757+430241382+430021158+429442268+428812757+428261002
3038+427704140+426983365+426234902+425928549+426178562+426401003+426145009
3028+425735138+425534608+425221574+424437428+423567970+423213797+423298380
3018+423222463+422707382+422160294+422179142+422763692+423131636+422599458
3008+421547180+420911163+420882103+420781619+420132006+419232904+418626501
2998+418489693+418573254+418443477+417863683+417081316+416557745+416389018
2988+416354356+416454344+416813185+417123155+416860334+416030468+415149777
2978+414600530+414383429+414280669+414004864+413358927+412377956+411304730
2968+410494441+410230307+410427277+410681054+410788744+410944838+411300003
2958+411683002+411863838+411758744+411341025+410622293+409720040+408854813
2948+408272480+408048813+407982699+407909029+408025676+408576323+409265617
2938+409339638+408355312+406689132+405185262+404401845+404266583+404410510
2928+404679079+405158040+405721496+405833562+405042706+403636401+402507564
2918+402185164+402277479+402134689+401704803+401307770+400935391+400380572
2908+399858226+399923202+400765876+401917704+402696511+402770736+402258631
2898+401458466+400655414+400099894+399820267+399436509+398599262+397659547
2888+397419658+398172031+399324559+399944909+399529028+398386595+397338956
2878+396913214+396949246+397062072+397125180+397128098+396954148+396559653
2868+396146252+395917596+395699473+395045308+393908915+392946967+392795483
2858+393297639+393800787+393967122+393897273+393651170+393137606+392491231
2848+392120924+392208015+392502668+392763973+393007129+393179533+393035839
2838+392508708+391879751+391489866+391451412+391586586+391567651+391202011
2828+390603398+390101476+389976046+390160354+390233470+389899633+389380176
2818+389122460+389253579+389441184+389207072+388429286+387529222+386980384
2808+386785981+386677591+386533371+386320267+385988647+385674767+385620528
2798+385728189+385589688+385060778+384437598+384019762+383828861+383753877
2788+383671074+383440201+383037362+382639337+382418384+382371409+382419463
2778+382495001+382504075+382371789+382114161+381752898+381232886+380530259
2768+379821446+379431474+379510484+379825823+379995105+379834663+379353252
2758+378619698+377830475+377313818+377265706+377507900+377600418+377276764
2748+376747591+376425337+376381222+376273561+375778203+374935442+374134752
2738+373807013+373990008+374224412+374041504+373481842+372945725+372615972
2728+372325900+372016630+371943280+372229209+372546620+372464517+371902550
2718+371158930+370678073+370719270+371096230+371359839+371244621+370781649
2708+370136791+369541358+369198243+369145376+369320872+369635569+369878726
2698+369793705+369337823+368697605+368073929+367570548+367255559+367283160
2688+367836666+368749364+369341704+369041566+368069640+367145184+366696567
2678+366645508+366742199+366825877+366824418+366705437+366493353+366254165
2668+365987025+365615434+365164483+364828078+364747376+364814190+364813169
2658+364691474+364601406+364702853+364987207+365272990+365354509+365206030
2648+364983326+364738886+364306783+363615709+362889624+362380437+362144545
2638+362163831+362405033+362700503+362799644+362581929+362142591+361729452
2628+361577910+361689597+361822087+361775813+361589668+361434566+361461758
2618+361702697+361953002+361881082+361441772+361016263+360947961+361136820
2608+361243022+361093872+360802721+360613686+360612286+360586465+360387481
2598+360317604+360727212+361340413+361506486+361075229+360539141+360351069
2588+360510810+360777220+360975153+361051450+360974657+360684498+360213356
2578+359839373+359906070+360368137+360763216+360814129+360740866+360736898
2568+360587311+360163844+359855245+360081887+360688641+361140555+361122961
2558+360742384+360321455+360156433+360311856+360534968+360497914+360160722
2548+359746095+359408903+359178176+359144273+359374446+359680565+359771537
2538+359595633+359318077+359053505+358816563+358630242+358515316+358436802
2528+358372848+358393825+358608885+359055927+359633299+360120079+360335431
2518+360304037+360185930+360076519+360000252+360030245+360225873+360469759
2508+360519884+360263598+359872109+359644095+359672425+359748517+359641644
2498+359387546+359245486+359417219+359834617+360204195+360256071+359952811
2488+359512859+359281548+359462996+359891832+360205741+360283496+360330762
2478+360520789+360750086+360803450+360640995+360425878+360274277+360103332
2468+359831116+359590468+359568265+359735183+359900147+359973701+360018633
2458+360061289+360038064+359950156+359865952+359748575+359527622+359319594
2448+359319098+359503172+359650805+359635750+359573167+359644328+359823851
2438+359911322+359869541+359919958+360188790+360495347+360608697+360525778
2428+360420305+360412661+360461327+360515916+360668567+360979267+361292914
2418+361461029+361541089+361595999+361579427+361515560+361505085+361574904
2408+361726243+361967532+362195517+362292207+362369846+362659043+363168230
2398+363690897+364120520+364575994+365250262+366333204+368157695+371283805
2388+376279163+383505119+393265953+405968241+421818521+440472512+461337407
2378+484223295+509342291+536433848+564009793+589927756+613129334+634204008
2368+653235804+667897903+675740591+677859384+676759724+672449896+663978106
2358+651651173+635598058+614553378+588152836+560270714+537679391+525304492
2348+524670897+534647608+551022189+567173628+579047742+587475476+594154607
2338+598863102+600424334+599231484+597698145+597575662+598104222+597535690
2328+595125307+590847456+584856715+577839312+570707713+563781983+556811905
2318+549572820+542096238+534396807+526297075+517618366+508389447+498907510
2308+489652566+480991508+472859186+464825188+456612077+448504555+441139252
2298+434922743+429730648+425133957+420777389+416527897+412451773+408734401
2288+405502089+402726854+400359360+398430243+396980232+395989546+395315978
2278+394634941+393643205+392424650+391368376+390685209+390289489+390094269
2268+390051117+389971787+389675733+389228458+388751803+388147033+387292572
2258+386371909+385725417+385453143+385367335+385291768+385228892+385196273
2248+385050887+384632876+384034875+383559649+383424971+383614589+383950205
2238+384216616+384286347+384190328+384038056+383878577+383651205+383250146
2228+382687565+382191157+382012422+382113694+382142841+381742920+380875533
2218+379858238+379077826+378691763+378642339+378825829+379100613+379248275
2208+379114151+378759628+378407264+378261790+378357664+378536049+378611820
2198+378586845+378670406+379070357+379752823+380434181+380871828+381146816
2188+381579444+382360760+383303247+383968557+384085176+383831457+383617769
2178+383649717+383856461+384165936+384623160+385218622+385795266+386215202
2168+386491795+386664811+386685147+386571155+386536464+386759781+387125099
2158+387350954+387302608+387068088+386823152+386717300+386812969+387067971
2148+387418293+387844123+388278823+388583542+388761022+389019817+389478034
2138+390022845+390553740+391097881+391652758+392189080+392780691+393532393
2128+394480015+395629012+396900026+398073999+399017186+399843200+400661424
2118+401368253+401866849+402296502+402875537+403616181+404303199+404725295
2108+404865313+404849762+404756339+404539062+404162890+403763902+403570258
2098+403639668+403787126+403811401+403680486+403476922+403281469+403129110
2088+403004468+402886595+402825120+402920031+403170074+403381924+403359750
2078+403236421+403420553+404045659+404692646+404912024+404824145+404908902
2068+405369890+406004770+406592296+407090396+407444715+407530815+407424496
2058+407452388+407824680+408454308+409212837+410076926+410952891+411660186
2048+412192131+412775048+413587466+414539523+415388061+416008819+416492798
2038+417021359+417715846+418537250+419292570+419868776+420445507+421300756
2028+422493168+423921501+425516490+427165047+428686686+430067199+431452497
2018+432812527+433917994+434750690+435640571+436888390+438469491+440158865
2008+441796189+443388815+445010383+446612666+448030146+449271312+450641175
1998+452382455+454380750+456391240+458266410+459806460+460802952+461407897
1988+462038458+462870717+463799403+464814335+466053225+467541982+469186659
1978+470965868+472889238+474834781+476654692+478444462+480560864+483297556
1968+486484529+489434034+491540223+492947170+494290921+495914065+497729948
1958+499688505+501908424+504389181+506928349+509326128+511545346+513718350
1948+516095122+519008740+522674352+526649118+529729159+531187865+531832314
1938+532941486+534828852+537061550+539437155+542154183+545302671+548590157
1928+551606827+554338092+557119658+559895972+562169284+564013236+566110322
1918+568385851+569800851+570073417+570296734+571458190+573504684+575863717
1908+578102425+579917492+581071304+581690895+582302959+583312405+584621494
1898+585896563+586990213+587978244+589072245+590585335+592511214+594067661
1888+594419295+593872646+593439083+593602121+594158691+594735860+595106517
1878+595331001+595606835+595896849+596277368+597635940+600882987+604949776
1868+606667101+604344364+599940121+596231736+594277790+593651838+593556723
1858+593464350+593174511+592649044+591937897+591243848+590799665+590667088
1848+591069606+592539282+594671088+595198482+592574585+588464849+585192361
1838+583247984+581841270+580538192+580072769+581407008+583946059+585341394
1828+584233272+581749773+579102536+576214651+572958151+569825126+567288350
1818+565488747+564390545+563975715+564361661+565488280+566624061+566724544
1808+565548208+564020413+563499205+564767680+567301655+569468473+570041206
1798+569499750+569347916+570671243+573325774+575520893+575081905+572393353
1788+569960271+569444373+570768575+573073515+575655572+577845673+579051185
1778+579703862+581312243+585183549+591201425+597072018+599831001+599206859
1768+596930512+594406691+593023844+594047821+596951636+599380634+600149783
1758+600221849+600404844+601120250+603568504+608686170+614942476+618612873
1748+618066748+615603555+614028728+614386664+616443545+619354596+621902109
1738+624017343+627624310+633767878+639022673+638914312+635421541+632266633
1728+630194872+629080390+629172354+630426008+632907581+637658149+645505680
1718+654275711+658381830+655632825+650218785+645996136+644050125+644666273
1708+648182619+653650635+658245167+660704275+663507081+668914994+674710545
1698+677139776+675958539+671975603+666903045+664105548+665227733+668957942
1688+673529191+679314822+686576023+691145405+689097802+683686563+679277651
1678+677791753+679460121+682572839+685043267+687518306+691369655+694629131
1668+694070986+691298698+690489226+692660071+695017761+694765910+693127536
1658+693651662+699118861+710625877+724387007+729067434+724036539+720540384
1648+721564536+722516622+719280195+714607587+712533433+713622590+717138060
1638+723007078+730409492+734935810+733079779+728863724+727541973+730308309
1628+735244613+740365080+745793066+751789118+756837869+760382282+764698412
1618+771435488+778223446+781232705+781543960+782617244+785175902+787649073
1608+788738580+788983720+789747793+791171662+792026357+791804558+791716503
1598+792770823+794335148+795618620+797243806+799828898+802113122+802525793
1588+801892314+802359779+804385033+806734729+808666502+810740131+814071322
1578+819290055+824791799+826796922+825392543+825103637+828350567+833343416
1568+836543139+837081678+836525458+836564554+839685617+849759545+868038472
1558+882981132+882290583+873517751+865573879+861252031+860403404+861328064
1548+862423232+863652202+865874630+869497411+874339535+878640727+877936465
1538+871517005+864660773+860432289+858453367+857625515+857954158+860084564
1528+863743758+867512188+870495363+873363699+876510846+879131066+880986746
1518+882495402+882902063+881466524+879666395+880030868+884213836+893018413
1508+905408600+914291720+911929244+904783290+901569913+902521882+903872810
1498+903600361+903380370+904731006+906893098+909618061+913612025+917953772
1488+919897799+918652140+916350760+915213520+916305887+919955102+925817934
1478+932426866+937601075+940199997+940770688+939602930+936334059+932296681
1468+930025294+930805239+933327601+934748494+934383964+934382038+936589411
1458+940126355+940683450+935753389+928983812+924069506+921922294+922248254
1448+924364538+926522487+926523829+924207219+921450803+919806710+919530526
1438+920231111+920724835+919539104+917339200+916444708+918167811+921800629
1428+925504987+927872597+928320689+927471363+927359676+929318932+931499580
1418+930545802+926842319+923868422+923188085+923919422+924716173+924871450
1408+924324508+923383334+922447529+922249537+924107377+928096848+931430840
1398+931182782+928217580+925362139+923904309+923942880+925711265+928699983
1388+930569785+929546975+927636502+928129350+931117602+934149560+936174230
1378+938815691+943376028+948071277+949881967+949281691+949715662+952440508
1368+955337380+956426361+956809915+959226075+964447434+969866550+972041713
1358+970842269+969736073+971060509+972922258+972657511+971570338+973296300
1348+978969310+986024584+991082496+993074781+993663445+995500977+999567357
1338+1003744374+1005941127+1007448499+1010792353+1015956935+1019917462
1330+1020068013+1017665858+1017005420+1021055811+1028293904+1034466940
1321+1037474565+1038879703+1040923104+1044621161+1049381123+1052878095
1312+1053414008+1052698018+1054394337+1060057252+1067094261+1070855222
1304+1069028076+1063061376+1056300026+1052727078+1055153508+1062608674
1295+1070358172+1073741823+1072294438+1068842514+1065239573+1060522675
1287+1053670995+1046697824+1042656769+1041871339+1041768871+1040252980
1278+1037622781+1035177095+1033393597+1031589325+1029319048+1027335049
1270+1025904003+1023230857+1017401169+1009362474+1002253808+998238078+996708182
1260+995422318+993050389+989873074+986706496+984577432+984606375+986354161
1250+987002462+983844870+976448815+965947628+953978691+942344582+932516263
1240+924926768+918740311+912350494+904573395+895888617+888017453+882216592
1230+878438709+875774899+873076194+869195727+863686805+857630183+852819745
1220+850117364+848947856+847994136+846388381+844514728+843352397+842969368
1210+842463157+841713322+842228753+845382786+850487905+855503745+859162705
1200+861695046+863635980+864905039+865424904+865803673+867036553+869658057
1190+873504796+878011391+882484023+886444201+889872667+893402142+898190580
1180+904730014+911600718+916145183+917273669+917047552+918571613+922797938
1170+928476433+934910423+942725977+951945734+961697028+971536435+980626241
1160+985908111+984420579+978316516+973614148+973752036+977118065+980045746
1150+981187129+982167224+984305391+986541240+986744658+984580583+982081445
1140+981418089+982937482+985575967+988489177+991121709+993164761+995491174
1130+999564439+1005529389+1011219963+1013498060+1011357443+1007558903
1121+1006256933+1009430397+1015871740+1021881388+1024179441+1021892124
1113+1016033144+1010021045+1007026374+1007017971+1009069893+1014633841
1104+1024322172+1032950932+1033829610+1027729748+1021894225+1022302229
1095+1029651192+1039421334+1045255457+1045348588+1043112972+1041121738
1087+1039139957+1036795921+1034654836+1032213234+1027515476+1020047239
1078+1013067416+1010676698+1012789073+1014116134+1009591101+1001792470
1070+997818871+1000000452+1004359880+1006977591+1008228327+1009191267
1061+1008670525+1006159017+1004167666+1004520234+1005105747+1002128816
1053+994446190+984989870+978513107+977621650+981478776+987414200+991832097
1043+991774095+988134391+984419879+982485131+981746616+981395565+982300035
1033+985781252+990438280+992023028+989342879+985594173+983057806+981972092
1023+982580479+985555660+989976592+992726414+991333764+986362097+980579442
1013+976216279+973965491+973576861+973919509+972737221+968343423+961670478
1003+954837820+948581048+942270007+935863326+930412582+926706240+924689914
993+923570880+922191943+919350624+914107791+906931961+899788983+894564240
983+891662817+890010321+888248589+885880629+883276689+880916665+879012201
973+877377095+875395605+872369774+868297617+864084597+860440342+857032708
963+853557443+851049960+850807854+852503006+854445574+855389374+855302778
953+854853169+854978336+856505781+859558163+863489631+867255902+869807032
943+871071072+872236496+874520545+878127746+882673553+888055149+893895632
933+899132863+903638173+909094577+916770784+924829552+929303410+929110146
923+928057751+930414333+936831576+944699472+951045291+953996722+952132930
913+944743411+933674334+923131366+916446750+914541820+916577344+920433945
903+923235176+923147413+921504254+921735682+925101594+928675942+929053018
893+927173063+927295604+932177115+940906534+950256010+956296059+956505196
883+953034424+950839655+952668201+956988183+960224376+961188483+962119795
873+964865007+967904843+968105752+964852578+961301337+960793550+963157076
863+965458923+966369345+967649724+970296786+973108287+975743445+979429540
853+984263843+987595444+986081536+979756432+973616132+972878727+977395124
843+982407404+984382883+983953873+982794518+980875057+977167373+971842088
833+967838379+969267208+976929643+987171685+995137906+998048548+996972871
823+995791341+997246196+1000185548+1001197737+999914090+999500951+1000948453
813+1002409377+1004636473+1010791420+1019840904+1025956637+1026528145
804+1025561821+1026218058+1025420724+1019043336+1008206620+997190877+990099717
794+989818339+996635358+1007149149+1016347316+1022234889+1025393882+1023592878
784+1012907529+995503545+979852014+971611477+969911832+970578456+970191401
774+967512361+962852474+957604331+954261819+955400868+961148803+967190370
764+967414737+961641476+955996767+955033594+959993591+970040559+980747615
754+985279067+981861338+976778334+975999556+979572621+985114162+991308438
744+996575254+999685930+1000796502+999467457+995461531+990775560+988327189
734+989814954+993656442+996438592+996109831+993351490+991588999+993991388
724+999223075+1002662628+1003214880+1003252109+1002384868+998309269+994503843
714+997902666+1007498799+1013912133+1011955210+1005483290+997393595+986384971
704+974563200+968817949+972875867+982019591+987944161+988531424+987638275
694+986897543+986454645+989270055+996847995+1004032054+1000272377+983173695
684+964936314+956940567+960258804+970637509+983885717+992917928+992633283
674+986707079+978476928+965663041+945234685+922819353+912175844+916435430
664+927984110+942510596+959580744+977085095+988106498+983684283+964298517
654+942735955+930483131+930968394+940159150+951578578+962107191+966423029
644+961003446+954339020+956669284+966124496+974207130+980362019+985138087
634+978033388+956257488+935732966+931507983+947831038+975292844+991114357
624+980112735+954322273+928350449+909818503+901571780+898027776+891289183
614+879943572+869159315+864761199+867614247+875431959+886538382+896966512
604+899448494+891619227+882558015+884450107
##END=
