##TITLE=<SNM>
##JCAMP-DX=4.24
##DATA TYPE=INFRARED SPECTRUM
##DATE=29/4/2025
##SAMPLING PROCEDURE=Instrument type and / or accessory
##ORIGIN=Admin
##XUNITS=1/CM
##YUNITS=ABSORBANCE
##RESOLUTION=4
##FIRSTX=4497.3318
##LASTX=599.83466
##DELTAX=-1.4281778
##MAXY=2.1514854
##MINY=0.4832482
##XFACTOR=1
##YFACTOR=2.003727e-09
##NPOINTS=2730
##FIRSTY=0.50113595
##XYDATA=(X++(Y..Y))
4497+250101912+250158223+250205997+249629502+248343440+246776716+245701544
4487+245735961+246726354+247684606+247576669+246292868+244657681+243673773
4477+243742116+244398154+244898512+245022229+245076874+245288271+245557539
4467+245836312+246569424+248325145+250727638+252429487+252634384+251746975
4457+250370527+249053572+248675742+249535502+250629325+250892049+250297111
4447+249302078+248438481+248290371+248744889+248947391+248725152+248896182
4437+249773150+250727638+251153078+250821043+249658743+248087081+247219156
4427+247761933+248965477+249366435+248411694+246732765+245026647+243512575
4417+242561567+242939620+244854293+247238536+248583690+248408258+247590308
4407+247310806+247798566+248149936+247584582+246669255+246627029+247624695
4397+248614761+248858686+248686868+248575019+248390202+247886825+247223782
4387+246710202+246495994+246485018+246312069+245711004+245021292+244832028
4377+245170086+245607380+245940114+246219913+246388370+246183057+245208772
4367+243403790+241653468+241174677+242047109+243136425+243568469+243469739
4357+243212592+242769869+242028309+241305698+241350199+242799200+245446732
4347+247978862+248894486+248002526+246503282+245480688+245061168+245104955
4337+245716864+246698719+247328535+247126494+246368231+245684187+245428542
4327+245547574+245865390+246126315+245892266+244988779+243966021+243592088
4317+244094483+245208266+246454988+247107888+246591407+245236020+244077349
4307+243826434+244467658+245612378+246683980+247052246+246571432+245807175
4297+245400342+245430773+245686894+246296229+247611547+249413435+250634411
4287+250351994+248887897+247270931+245822718+244142212+242396694+241656146
4277+242579623+244340088+245426400+245392890+245153904+245488824+246069439
4267+246259685+246102190+246026395+246121912+246128947+245927040+245766273
4257+246053093+246984498+248291472+249285226+249489855+249383198+249829223
4247+250532647+250105601+248173659+246187355+245583895+246281445+247258764
4237+247724883+247615801+247452699+247654234+247951852+247880296+247718800
4227+248286058+249759466+251321624+252105276+252093675+251836959+251468068
4217+250579171+249169481+248067225+248036422+248836837+249584138+249710889
4207+249147364+248091588+247134273+247097685+248235518+249873902+251063510
4197+251387008+251087724+250644823+250375108+250364904+250555106+250670643
4187+250265728+249236382+248114136+247428604+247017829+246433496+245824235
4177+245904373+247071492+248908541+250604575+251627422+251880449+251451053
4167+250477229+249280080+248394946+248179386+248450811+248756981+248915115
4157+249004773+248957445+248659218+248448461+248847635+249736293+250491329
4147+250940537+251386115+251848531+252104324+252184224+252192910+252019010
4137+251673381+251415565+251319750+251296547+251477557+251928609+252172326
4127+251685904+250610822+249410327+248309781+247576937+247717074+248799460
4117+250125531+250983015+251221972+250972455+250396287+249811107+249594103
4107+249911116+250633638+251372670+251734213+251751348+251821312+252117740
4097+252344263+252114676+251434751+250761431+250521730+250595740+250591963
4087+250590892+251040694+251950176+252766758+253028917+252752301+252279950
4077+252013090+252147130+252469378+252522595+252103580+251465539+250930274
4067+250607312+250605200+250973228+251263290+250871791+250055864+249843590
4057+250714520+251970225+252604578+252416101+252041261+252119346+252697864
4047+253386504+253752391+253505224+252652500+251605796+250941042+251005920
4037+251743197+252788354+253756437+254481606+254897587+254827384+254210672
4027+253401913+252909662+252958387+253449954+254144158+254793770+255298337
4017+255740614+256116555+256160878+255695636+255045816+254746205+254781455
4007+254556420+253852370+253308865+253578015+254444958+255187708+255488717
3997+255611423+255803945+255834525+255394181+254839104+254893630+255585097
3987+256192796+256240272+255798352+255024963+254199725+253926500+254679423
3977+256308839+258141872+259350904+259425867+258580490+257490742+256661637
3967+256297803+256422650+256799692+257122148+257390495+257750908+258126939
3957+258364438+258434968+258250329+257734845+257267730+257474976+258352361
3947+259154188+259419649+259524924+259959883+260511241+260492471+259634303
3937+258381572+257450792+257385974+258347631+259911306+261197919+261713730
3927+261797378+261930346+262100647+262188222+262451274+263053440+263594893
3917+263618750+263202383+262629160+261937872+261151335+260500503+260215141
3907+260425094+261289628+262879480+264962715+267148605+268957662+269674265
3897+268899448+267315634+266182218+266188792+266852475+267104937+266889718
3887+267251232+268468118+269153010+268301952+266955548+266254592+265782063
3878+264999958+264668280+265535550+267156310+268826657+270243025+270585918
3868+269312543+267818862+267908757+269358264+270270601+269773828+268612688
3858+267822729+268504498+271802506+276551538+278300476+275880626+272189156
3848+269557330+268868451+269879340+271592493+273234343+274921259+276798348
3838+278047657+277917188+277192315+277047805+277291997+276688879+274846000
3828+272842011+271872858+272355471+274301840+277105246+278903267+278735316
3818+277974926+277767590+277547077+276697208+275841033+275834191+277083650
3808+279188837+280687545+280699474+280308094+280992570+282715004+284495415
3798+286020032+287157613+287531858+287423699+287689011+288676727+290162881
3788+292112939+294768146+297951985+301060089+304070147+307676125+311904496
3778+315632168+318371738+321286814+325858554+332428809+339925323+346718471
3768+351961896+355738055+358371875+360597239+363585612+367842987+372373676
3758+375630871+377436180+379107241+382207730+387517609+393860390+398579288
3748+401284975+404396322+409600451+415095802+418223092+419923157+422832611
3738+428582328+436656199+444405977+449270992+450985335+451055954+451196211
3728+452549129+455350393+458780388+461659411+463281836+463214519+461181200
3718+457822390+454946401+454449747+456888308+460614820+462709358+461997633
3708+459733508+457469978+456339448+457294055+460373096+464110704+466910154
3698+468396427+468876453+468676584+468525797+469891952+473895199+479222153
3688+482446330+482280520+480754326+479962107+480267102+480890002+481456561
3678+482765067+485601047+488838014+490440122+490298497+489416264+488142829
3668+486520642+484998702+483925077+483050043+482292360+482552556+484780836
3658+488325713+490851670+490940167+490057815+490252062+491335920+491289247
3648+489622648+487973361+487318900+487338057+487266397+486714562+486197710
3638+486469715+487263541+487304829+485911128+484478786+485859458+491277408
3628+496777697+497236453+493613937+490319736+490257298+493364271+497177346
3618+499398874+500483862+502189072+504974690+507764651+509545716+510478103
3608+511109986+511411382+511389607+511707304+512946321+514732384+516200928
3598+517170736+517972891+518444855+518094377+517363139+517813864+520622209
3588+524743759+528026209+530530600+533133750+534919575+534948489+534042815
3578+533321394+532521976+530955505+529184613+528797963+530866621+534505201
3568+537256491+537667712+536705102+536000815+536460940+538099993+539795685
3558+540124686+539072241+538023425+538047936+539154759+541199679+544370995
3548+548272716+551115805+550960704+548111547+545060528+544098394+545509349
3538+547482995+547620069+545224195+541867675+539230375+537328240+535500710
3528+534366640+535278798+537915444+539835606+539084556+536230580+533358280
3518+532017171+532410068+533824711+535489882+537219129+539053322+540548519
3508+541346926+542113444+543772606+545861552+546501348+544267595+539761655
3498+535336091+533384814+534606876+537677409+540631216+542502712+543584428
3488+544423944+544637229+543260960+540657155+538871568+539254589+540425486
3478+539880345+537455914+535443120+535491905+536942780+538002781+537639452
3468+536343797+535465192+535932814+537614822+539285169+539126499+536316370
3458+532307025+529386832+528130918+527406701+526444032+525570485+525069785
3448+524796352+524688013+524771840+524947168+524894159+524189396+522870419
3438+521468032+520129124+518616257+517421205+517732001+519724566+522037684
3428+523388134+523662817+523107621+521566613+518996006+516099372+513982762
3418+513228024+513642160+514679494+515598911+515482422+514079499+512624460
3408+512646770+513777271+513830934+511581355+508278975+505944498+505426783
3398+506386240+508037370+509601819+510623327+510874629+510073664+508224776
3388+506137139+505021512+505469321+506932987+508099482+507808795+506181997
3378+504900204+505557789+507767507+509649057+510154932+509892862+509653935
3368+509571418+509844077+511044840+513268242+515597304+516794081+516364477
3358+514815854+512906579+511032347+509519182+509091481+510450855+513273596
3348+516181593+517928449+518125969+516856490+514462104+512014649+511081191
3338+512460852+515188761+517101307+516780160+514938768+513477184+513500565
3328+514910330+517056389+518866726+519282171+518513214+517972534+518460859
3318+519330004+519734383+519932914+520795157+522390899+523706663+523729152
3308+522361807+520448487+519293534+519862532+521861107+523817143+524485854
3298+523756460+522227946+520656239+519590051+519035569+518773618+519039852
3288+520300823+522462173+524799029+526500015+527147903+526987983+526582593
3278+526253116+526208377+526771367+527865695+528775295+528877744+528432373
3268+528214507+528499839+529010534+529360357+529241667+528728831+528385849
3258+528579263+528890475+528539938+527363568+526062260+525441205+525682630
3248+526227236+526321177+525826962+525381532+525667697+526658804+527630278
3238+527935779+527759856+527786211+528181131+528540831+528858527+529498740
3228+529983495+529156472+526993576+524925394+523713208+522341400+519993716
3218+517931007+517921488+519706183+521332029+521553822+520860898+520196531
3208+519677923+518876364+517737534+516593409+515498723+514237277+512854939
3198+511589803+510706618+510742315+511919161+513170613+512994809+511378006
3188+509687252+508885811+508774617+508666517+508230249+507651672+507183694
3178+506809657+506336860+505457482+503750606+501144302+498395095+496575358
3168+495952488+495833739+495709188+495861850+496462350+496933719+496704966
3158+495863010+494840609+494110412+493989253+494095330+493401752+491422513
3148+488927463+487133398+486505114+486453176+486054508+484989183+483613716
3138+482315384+481290782+480791123+480974572+481578553+482088950+482349355
3128+482754240+483589800+484380918+484364766+483630523+483089130+483123993
3118+482960653+481614012+479038466+476297677+474686913+474596691+475267007
3108+475664098+475374393+474629442+473849478+473308561+473003596+472875208
3098+473112410+473830173+474405180+473849954+472156137+470525145+469982026
3088+470356985+470770616+470632590+469991426+469295973+469053893+469460741
3078+470091494+470138703+469252483+467965008+467028338+466646358+466570355
3068+466521689+466363733+466263843+466580053+467158719+467159522+466134474
3058+464779741+464100679+464253310+464529748+464272973+463572196+462930853
3048+462399335+461456716+459890245+458234354+457068038+456437107+456185835
3038+456267609+456427052+456107511+455109354+454036682+453582833+453573790
3028+453354913+452971594+453182916+454244880+455293250+455164089+453628852
3018+451565161+449913703+448797957+447838114+446969981+446430253+446306060
3008+446710528+447844331+449343664+450205520+449832078+448600110+447175889
2998+445871785+444776891+443972416+443467403+443193762+443126504+443252780
2988+443418946+443412193+443278987+443280950+443364301+443096728+442318668
2978+441416683+440763441+440376255+440237278+440394104+440617949+440505000
2968+440012897+439504612+439238645+439049038+438548815+437555566+436342637
2958+435441365+435058374+434808649+434266304+433575343+433146958+432968001
2948+432614578+431805344+430692929+429752570+429461319+429885985+430538067
2938+430752006+430185893+428951725+427489397+426403606+426158283+426680996
2928+427297946+427225126+426191600+424580122+423014067+421888950+421264593
2918+421046518+421147063+421487576+421927770+422225655+422128502+421648000
2908+421189422+421119309+421214142+420882583+419945854+418868540+418223896
2898+418239572+418775819+419399344+419472670+418518717+416742381+415054394
2888+414347608+414701001+415308938+415212261+414213152+413067956+412610479
2878+412814513+413036127+412978270+412857973+412794255+412678986+412527931
2868+412457431+412376371+412060162+411555178+411228766+411243312+411212702
2858+410721789+409952297+409324727+408810641+408158976+407500648+407166739
2848+407141989+407124409+406959492+406746564+406594587+406407539+405926561
2838+405035553+404001432+403267308+403052893+403238364+403494069+403439989
2828+402888214+402045157+401264480+400584049+399779277+398826157+397996933
2818+397566674+397623520+397990478+398239995+397994910+397257693+396340061
2808+395559770+395043989+394700591+394440930+394438967+394891417+395513543
2798+395664271+395058951+394068826+393242577+392735809+392303497+391728311
2788+391051986+390367213+389667536+389021374+388598760+388388747+388152438
2778+387765728+387387794+387189263+387083305+386860203+386490152+386122659
2768+385846132+385650100+385518053+385354058+384990343+384441126+383921210
2758+383554520+383342485+383326927+383456415+383444427+383039393+382266331
2748+381348342+380576173+380125626+379872034+379560524+379171911+378863257
2738+378649556+378431957+378185385+377957137+377847758+377953895+378113666
2728+377882889+377025524+375852039+374890620+374411338+374355949+374510038
2718+374611297+374443941+374012045+373548470+373185141+372751164+372103872
2708+371438791+371003058+370767522+370626076+370614683+370710349+370680007
2698+370309272+369654632+369024950+368741313+368834926+369010225+369008738
2688+368859111+368632856+368211134+367538260+366879604+366529424+366438487
2678+366464278+366780101+367513123+368110768+367752616+366471328+365211755
2668+364658493+364597839+364528261+364308789+363977289+363460080+362832034
2658+362511690+362812669+363426258+363656945+363203186+362481824+362073964
2648+362043146+362004684+361737646+361410371+361190809+360955630+360503626
2638+359864425+359295396+359031601+359068130+359197618+359232125+359080059
2628+358664792+358044599+357609135+357781101+358417149+358848063+358669819
2618+358170607+357787437+357523404+357204398+356979333+357152282+357664910
2608+358098739+358147464+357853743+357422265+356997449+356604374+356205766
2598+355828188+355588726+355525127+355487943+355319844+355079132+354952291
2588+354973530+354958657+354756289+354486068+354410689+354582775+354788624
2578+354869684+354878192+354859273+354703191+354319486+353830000+353486156
2568+353430321+353582655+353758429+353815484+353656130+353242380+352721274
2558+352385610+352402358+352661007+352880509+352813192+352461614+352117859
2548+352028975+352094002+352091592+352026655+351980339+351849928+351594700
2538+351530298+351959754+352655623+353105426+353138950+352931882+352607909
2528+352279682+352221080+352561296+353050156+353388110+353514148+353473573
2518+353318889+353177026+353190829+353396618+353708008+353952409+353994293
2508+353896871+353842107+353855375+353776783+353551748+353381774+353465512
2498+353704409+353850437+353872895+353923614+353996880+353939796+353767651
2488+353662406+353692243+353793204+353979508+354329629+354795733+355212100
2478+355445851+355420477+355113638+354655477+354295569+354197047+354373387
2468+354783210+355320885+355787465+356017230+355975316+355732909+355460189
2458+355351643+355442847+355593545+355678323+355699682+355751382+355901306
2448+356044210+355971390+355684541+355416462+355254430+355073777+354908206
2438+354983020+355301192+355570045+355622429+355628557+355817301+356172955
2428+356497345+356695489+356877212+357169951+357561183+357934833+358130806
2418+358046354+357840446+357856956+358189020+358573915+358813051+358977759
2408+359168110+359395078+359685973+360053109+360402665+360648315+360865765
2398+361200179+361614315+361876623+361899856+361927134+362199288+362602388
2388+362806154+362547535+361650666+359976273+357482532+354254161+350448196
2378+346212774+341616106+336670210+331466765+326275278+321450571+317172968
2368+313352396+309974875+307370059+305792581+305020977+304832619+305600089
2358+307955805+312111148+317993566+325684237+334647183+342714153+347209443
2348+347001959+343175438+338403085+335285789+334543486+335227426+336344808
2338+337610211+338974969+340064122+340439289+340259886+340384287+341656056
2328+343970602+346247191+347673287+348726951+350488294+353241756+356264426
2318+358747399+360528346+362024108+363675447+365535996+367381077+369076471
2308+370687712+372245050+373552724+374362196+374711990+374937441+375346997
2298+376022013+376827321+377487315+377813073+377929175+378103938+378431898
2288+378884883+379469945+380113162+380614368+380885778+381050546+381264010
2278+381582659+381917728+382008128+381642480+381024785+380662677+380749686
2268+380909100+380708189+380213320+379851866+379852431+380024784+380083713
2258+379987541+379860998+379745729+379594942+379424670+379314101+379323353
2248+379486098+379751232+379917606+379833452+379656458+379702239+380078418
2238+380663658+381344029+382039154+382582571+382819296+382808766+382741776
2228+382654617+382397099+381910172+381357028+380911747+380572752+380247291
2218+379885033+379489162+379117088+378862216+378726808+378591311+378414050
2208+378320555+378379216+378472859+378532323+378684003+379001223+379306040
2198+379383679+379270076+379214062+379419673+379870576+380387161+380869804
2188+381406289+382055218+382694121+383231291+383752278+384294861+384742700
2178+385078840+385448505+385853330+386063492+385966487+385796692+385870316
2168+386207080+386571480+386837268+387096126+387410253+387699482+387879450
2158+387911756+387785450+387599145+387533464+387668694+387968513+388395113
2148+388872550+389245071+389434320+389559912+389823380+390289127+390769866
2138+390971283+390827040+390603403+390611197+390928120+391401423+391793457
2128+391959564+391976668+392057461+392362902+392955103+393799260+394713828
2118+395464193+395956534+396230057+396371622+396600049+397225596+398291576
2108+399409464+400130975+400367641+400371686+400482375+400941339+401744357
2098+402575663+403045872+403098852+403067498+403282182+403788146+404459653
2088+405136305+405590540+405648249+405450819+405371960+405620525+406088295
2078+406564483+406955268+407313302+407726486+408168019+408497555+408674341
2068+408849104+409159691+409581680+410047160+410525638+410914073+411066496
2058+411039278+411127567+411547176+412212823+412903545+413529450+414151874
2048+414819513+415477008+416062249+416681876+417590257+418866547+420188321
2038+421149770+421752977+422311802+422977300+423695181+424503583+425498230
2028+426597675+427665796+428752777+429975672+431313092+432688678+434120931
2018+435669554+437300844+438865946+440251259+441555422+443005881+444660968
2008+446348449+447947434+449554093+451294524+453120834+454877210+456501658
1998+458091480+459772001+461563626+463376432+465036784+466327620+467154465
1988+467691039+468259592+469080665+470177225+471451760+472783290+474108128
1978+475503227+477169559+479273586+481782795+484450615+486966042+489146132
1968+491045590+492907121+494941035+497134243+499328374+501437547+503538867
1958+505793027+508268266+510813172+513185843+515364267+517579875+519954510
1948+522289760+524427431+526653271+529390164+532564871+535689187+538539653
1938+541229604+543708175+545793729+547671531+549839365+552485887+555247766
1928+557712237+560047427+562881294+566435810+570056304+572909625+574816817
1918+576063628+576910701+577607195+578511024+579940481+581920077+584073871
1908+585903067+587227041+588209045+589039043+589840246+590832900+592351002
1898+594589991+597243354+599452715+600571436+601017818+601739418+602921441
1888+603890773+604274032+604534495+605277275+606537948+607894050+609065244
1878+610044036+610652181+610604884+610278798+610665924+612130661+613665422
1868+613860443+612596319+610983740+609948608+609638348+609602057+609173523
1858+608091866+606876647+606211923+606042187+605779581+605219507+604648010
1848+604274865+604055392+603709674+602693044+600807329+598649549+596828921
1838+595375904+594026883+592683930+591574668+591091698+591341333+591739347
1828+591502264+590557979+589266250+587673780+585711259+583713041+582163942
1818+581120064+580208560+579222213+578447306+578178275+578081538+577486422
1808+576407562+575676562+575912633+576895649+577977067+578712827+579036176
1798+579113339+579213051+579623320+580458910+581347330+581637065+581351614
1788+581212220+581656758+582520964+583573647+584889471+586456597+587880402
1778+588867166+589780217+591434679+594264382+597475083+599607280+600487967
1768+601002528+601490020+601964840+602874262+604480892+606124824+607157874
1758+607921833+608985879+610513263+612599175+615215295+617609146+618790633
1748+619032297+619505867+620630894+621936664+623094829+624239192+625348394
1738+626378053+628060002+631264753+635012326+636803802+636549466+636028360
1728+636029669+636480692+637356381+638628952+640155444+642153899+645139535
1718+648884371+651683077+652187049+651371271+650942737+651717346+653547731
1708+655717589+657341888+658070806+658850828+661220228+665519843+669815175
1698+672231872+673303593+673557512+672743697+671576369+671306446+672479128
1688+674979652+678600264+682525069+684459152+683476672+681975287+682007057
1678+683971422+687353763+690780842+692742709+693441464+694394494+696217979
1668+697954364+698946185+699854477+701171788+702300623+702634859+702775919
1658+703647324+705594079+708813347+713215827+716827814+717972891+718282199
1648+719272235+720475675+720275300+718458181+716541768+715913037+717012363
1638+719441375+722307845+724225627+724261443+723250227+722517561+722607634
1628+723408480+724503701+725171102+724527261+722684143+721322569+721943267
1618+724499537+727491300+729253982+729918825+730433922+730923258+731161828
1608+731462689+732526556+734669641+737658311+740939572+743914499+746487248
1598+749127343+752079782+755010683+757578732+759719675+761402219+762830665
1588+764632672+767171093+770165117+773467736+777382248+781801505+785989154
1578+789419446+791956499+793492509+794157293+794242904+793934072+793639399
1568+793761064+793611616+792029557+789275233+787159515+787481079+790403354
1558+792676076+791161900+787468585+783800675+780810220+778565401+777456080
1548+777943096+779759917+782030854+784190538+786154487+787356737+786907738
1538+785597209+785009708+785446570+786557795+788184772+790453329+793611497
1528+797424750+800486657+801550584+801915519+804233159+808895448+813483252
1518+816594657+819059128+821806729+825115059+828954609+833062179+837248220
1508+841635351+845580205+847373943+847619771+848830350+852238154+857209752
1498+861954678+865130277+866906464+868283210+870195161+873280985+877569891
1488+882127591+885594234+887430390+888614019+890797203+894422397+898369035
1478+902064016+906878907+914792472+925829877+936454811+942545070+944783881
1468+946898825+950879613+955650241+958906990+960399927+961376815+962229182
1458+962610954+962935492+964509400+967591713+970993627+972519286+970002996
1448+963675416+956738561+952173781+950098341+948897221+947795039+947167320
1438+946549061+944389496+941236981+940128552+942216486+945822583+948643183
1428+949317307+947742149+945176599+943288386+942298469+941546170+941717333
1418+943817999+946507891+947967809+948741050+950287948+952116132+952364994
1408+951104857+950295027+950474996+950029745+948120827+945963285+944935411
1398+945310044+946495457+947473594+947604005+947330036+947254003+947454378
1388+948297048+950592794+954344650+958437643+962120784+965673812+969454820
1378+973255878+976428443+978289706+978752211+978980250+980828187+985114833
1368+990806543+995956146+998924350+999037745+997153934+995081825+994644070
1358+996541743+999593774+1002322159+1004564003+1007068573+1010038859+1012866479
1348+1015280023+1017492359+1019455772+1021129332+1022657608+1023969208
1340+1025640746+1028537736+1031229948+1031195204+1029438828+1029927986
1331+1034119085+1039281717+1042473796+1043571457+1044111898+1045283212
1322+1047616320+1050757948+1052850820+1051756730+1047748039+1043652963
1314+1042025927+1043580619+1047180825+1050104231+1049865304+1047020192
1305+1045695861+1049774397+1058562580+1067471655+1072710201+1073741823
1297+1071086854+1065418762+1058879444+1053488356+1049171606+1045104492
1288+1041333539+1038365632+1036283112+1034585040+1033024518+1032332249
1280+1033005837+1033782231+1032992511+1030408577+1026314810+1021051990
1271+1015886502+1012544261+1011189826+1009938552+1007100699+1002584645
1263+997185466+992105649+988815167+987757844+987511004+986218264+983298725
1253+979474763+975598803+971452562+965881089+958603334+950978611+944042945
1243+937254050+930274895+924080402+919092325+914195214+908754210+903892021
1233+900615520+897959242+894031403+888279604+881771818+875769669+870867679
1223+867524902+866312597+866803302+867261821+866377802+864433724+862591380
1213+862297303+864500179+867961527+869490220+867378607+863587544+861518946
1203+863118317+868293026+875326678+881912759+886911723+890848843+894190668
1193+896413891+897306714+897706929+898822497+901860368+907701825+915221541
1183+920710318+921550429+919913637+920341575+924635241+930583013+935154396
1173+937984277+941156604+946854562+956060748+967221840+975596482+977623257
1163+976018710+975821964+977857900+980601099+985309853+993680806+1002232799
1153+1005041262+1002314901+999853762+1000660736+1002534076+1003203738
1144+1003713242+1005464025+1007623887+1009553628+1012814839+1018576335
1135+1024718711+1027593212+1026418210+1023299070+1018973992+1011910771
1127+1003216350+999054879+1004320674+1015931837+1024745245+1025552457
1118+1022362638+1021731766+1024743936+1027267662+1026372281+1024239548
1110+1024214323+1025690482+1026046731+1025866703+1028280842+1034110756
1101+1040706117+1046294844+1051961269+1057108433+1059738534+1059888102
1093+1058078301+1052352976+1041459190+1029538897+1022083850+1021027717
1084+1026580985+1037205741+1047829545+1051762322+1046406097+1035942450
1075+1026683196+1022508636+1023999193+1029432760+1035571804+1037679431
1067+1031948276+1020203133+1008010359+998417225+991612267+988041867+988550598
1057+992704930+998370820+1003746797+1007974068+1009015209+1005227240+999106163
1047+995075935+995217709+998421628+1001729244+1002126662+998290622+992620627
1037+989951617+992075426+995315338+995226038+992179362+989844707+989805025
1027+989930021+987814720+983280104+978049054+974942348+976109973+982497880
1017+992550068+1000946901+1003051077+1000682748+999318794+1000808637+1002303716
1007+1000933812+996746580+991424743+986351232+982000274+977212452+970019059
997+960192769+950139094+942634073+937978328+935276358+934435949+934272877
987+931852491+925945770+918825852+913153477+908938581+904461079+899452358
977+896421982+897053985+898720525+897225684+892110052+886496695+882492169
967+879537231+876557902+874075405+873520150+874455273+874246390+872001095
957+870342527+871453217+873761218+874492932+873980929+874865661+877956660
947+881162959+882734784+883862846+886816831+891801458+896995205+901146383
937+904493860+907393052+910447165+915270683+922855723+931886522+940165022
927+946847244+951785823+954283252+954333882+953488534+952816552+951791593
917+950468273+949878868+950277179+951472766+953630130+955840681+955795287
907+952583575+948140936+944990324+943859288+943710434+943541115+944106009
897+946881750+951572240+955788683+957399715+956705304+955658570+955031625
887+953767977+952235655+953465748+959331240+967927794+975632952+979727790
877+979320733+976348722+974068742+973656688+974110387+974797302+975141176
867+973239160+969096430+966386488+968241802+974193441+981283493+986005811
857+986959913+986554701+987460910+989263631+990058885+989224841+987198424
847+984771970+983854754+986395020+991314620+993979168+991768498+988514843
837+988921483+991790986+992819753+991803064+992256763+995534157+1001215931
827+1010667351+1023742894+1033381957+1030475567+1016862081+1002003391+992173650
817+988827601+990086728+994010997+1001099324+1011180426+1020527969+1024817590
807+1023956834+1021801136+1022189749+1026166790+1032104031+1037971783
798+1041697284+1041077953+1035581442+1026928191+1019320364+1016797114
790+1020972745+1029828870+1036115696+1032962883+1022616796+1012207883
781+1005498413+1001817890+999701220+997126091+991190337+981483451+971795841
771+967097142+968446401+971884784+973211496+971903703+969180376+965913810
761+963065189+962144284+964777836+971636933+980819144+987783486+989580079
751+988377769+988526860+992536622+999819850+1006334776+1006461736+999170892
741+990006590+984571535+984502523+988789406+995422249+1002228397+1007270732
731+1008493092+1003968947+993562116+982288224+977091561+979005059+983979513
721+988948195+993311945+997435637+1000349821+1000415383+996517708+988907739
711+981027312+978068806+982251754+991171597+999686584+1002892109+999025609
701+991728518+986464449+983539675+979570905+974160183+970392085+969785487
691+969835283+968861608+969274138+972442122+975668232+975100364+970855840
681+967086968+964749517+960621184+953756970+947393159+943475850+939187241
671+930435290+917655074+910561334+919008260+933361670+938776556+935050520
661+929059377+926182496+929990395+940340231+948960582+946509319+936329874
651+929525333+930314339+931515400+924283276+912503924+906903180+910250122
641+918331697+927785675+937849405+947016028+950716303+945050532+934534530
631+927811555+925684890+920350618+908677523+897999758+896272713+903982690
621+916182008+929512184+939171713+935109954+915866334+891479894+873003446
611+868014714+877928222+895127160+902174674+891310098+876071064+870272741
601+876770176+887120249
##END=
