##TITLE=<SNM>
##JCAMP-DX=4.24
##DATA TYPE=INFRARED SPECTRUM
##DATE=29/4/2025
##SAMPLING PROCEDURE=Instrument type and / or accessory
##ORIGIN=Admin
##XUNITS=1/CM
##YUNITS=ABSORBANCE
##RESOLUTION=4
##FIRSTX=4497.3318
##LASTX=599.83466
##DELTAX=-1.4281778
##MAXY=2.250442
##MINY=0.68394446
##XFACTOR=1
##YFACTOR=2.0958875e-09
##NPOINTS=2730
##FIRSTY=0.69357014
##XYDATA=(X++(Y..Y))
4497+330919550+331846856+333919025+336361979+338241276+339069416+338549724
4487+337063026+335957863+336372843+338078691+339643255+339459113+337221402
4477+334646235+333674735+334123102+334411159+334222268+334563990+335545926
4467+336015822+335366392+334354452+334091933+335033288+336803834+338619058
4457+339796370+339963448+338995901+336939345+334159589+331658050+330654329
4447+331153886+331646589+331030575+329880110+329162000+328854832+328488028
4437+328234211+328733256+330329671+332988107+336147806+338319910+338143702
4427+336291451+334897748+334990373+335820987+336302514+335841292+334355874
4417+332832831+332752719+334040487+335004763+334802165+334609549+335673759
4407+337354325+337774196+336225985+334384370+334361420+336129094+337736941
4397+337558772+335762346+333800293+332992003+333697685+335392982+336989597
4387+337099655+335016111+331919830+330165096+331074684+333819517+336184805
4377+336456965+334920044+333314870+332790855+333116964+333921812+335365226
4367+337115495+337974719+337208320+335411240+333713298+332796173+332715492
4357+333160788+333738580+334184473+334299736+333887287+333224775+333202593
4347+334090170+334704847+334035766+332746093+331661378+330226239+328025868
4337+326326902+326395980+327615069+328552555+328986987+329834010+331516197
4327+333163603+333611288+332944169+332249635+332115660+332299688+332473563
4317+332587375+332720896+332974343+333228672+333145033+332822280+332998829
4307+334218770+336028562+337104717+336449031+334597036+333169462+332858312
4297+332611292+331442199+330119025+330037547+331263177+332673886+333471511
4287+333728883+333817811+333885069+333706302+333057754+332233681+331670990
4277+331188752+330570947+330536166+331817479+333614103+334310400+333675531
4267+333008640+333138890+333544798+333515506+333152711+332956597+333272752
4257+334303888+335914778+337269094+337366468+336101195+334385251+333291948
4247+333222671+333729878+334100351+334039179+333698254+333263367+332814915
4237+332378179+331878110+331329752+330989680+331093368+331720616+332828196
4227+333987506+334576531+334495594+334106437+333605003+333097625+332865763
4217+332982277+333316263+334096995+335434588+336465810+336234346+335092611
4207+334102683+333654458+333552107+333655510+333769266+333520141+332846453
4197+332173561+331846202+331737793+331597163+331523591+331684072+331745614
4187+331228766+330240316+329236425+328463030+328172186+328693925+329806538
4177+330779176+331376534+332123850+333331705+334472246+334881993+334739685
4167+334820992+335397049+335939094+335935596+335429327+334747022+334285801
4157+334430754+335283606+336591339+337887980+338399624+337301287+334712782
4147+331985126+330553144+330828005+332259987+333891752+334705217+334095801
4137+332474445+331150445+331317239+332964531+334666370+334850966+333562572
4127+332370102+332340924+332853449+332696154+331718056+331023409+331755539
4117+333735850+335483389+335905678+335506141+335329791+335590888+335903915
4107+335797127+334750236+332796657+331058815+330786143+332063930+333825774
4097+334768237+334297546+332967347+331785200+331164096+331069025+331612406
4087+332792590+334188654+335372194+336174112+336447723+336084473+335195816
4077+334005507+332883850+332410315+332857402+333800293+334643135+335216178
4067+335433024+334872381+333331307+331447404+330289885+330474909+331774906
4057+333382867+334536973+334921352+334507027+333427687+332296901+332120438
4047+333307589+334944615+335530854+334572720+333127827+332542271+332974286
4037+333517752+333482659+333015437+332738016+333261575+334588163+335688092
4027+335445964+334155465+333181292+333314244+334268652+335396224+336104523
4017+335945720+334851307+333073139+330893585+328820620+327826256+328550821
4007+330261134+331562837+332338649+333764431+336200703+338346471+338760115
3997+337359472+335221240+333476687+332535361+332105166+331821005+331792765
3987+332413955+333606738+334561459+334576417+333889790+333226965+333018025
3977+333502737+334779585+336282749+337127696+337208775+337030748+336697786
3967+336025349+335237934+334972343+335868338+338031767+340546956+342004590
3957+341786379+340346093+338538348+337407847+337975742+340099528+341921037
3947+341715395+340173469+339484737+340428907+341609006+341636335+340720092
3937+339730192+339324313+340010713+341556223+342420309+341412322+339616437
3927+338852484+339281143+339715262+339469181+339007135+339020671+339693705
3917+340572893+340711816+339579211+337846886+336557952+335972708+336063798
3907+337585817+341314493+346182059+349589575+350462761+349944463+348659197
3897+346219172+343121782+340793948+339910865+339616750+339037223+339319137
3887+342040366+346163830+348770763+349397044+349958370+350253622+348674469
3878+346402460+345934755+347311082+348930760+350359500+351620251+351458491
3868+349720280+348314063+348051175+347555855+345672805+343458299+342743033
3858+344680345+350014480+358101154+363511049+360354308+352568516+346367281
3848+343682625+344039732+346346094+349533436+352896161+356183778+358801717
3838+359312735+357433666+355183924+354109163+353479157+351923978+349660046
3828+347804837+346861918+347342365+350320112+355317274+358715661+358280006
3818+356041726+353438859+349892164+346125580+344315873+345589336+349341076
3808+353355619+355054897+354872377+355829600+358720552+360535748+359315778
3798+356890256+355034990+353697681+352458060+351484513+351078974+351435996
3788+352756839+354959343+357313767+359256198+361489871+364985832+369006887
3778+371558421+372053599+371921102+373227640+377435738+383939704+389872590
3768+393197633+394528799+395088106+395761510+397425837+400011271+402186274
3758+403362818+404977435+408817192+415401925+423194144+428512438+429593598
3748+429723620+432585309+438173686+442530377+443124465+442630823+444863927
3738+451727902+462038808+471272336+475030161+473752147+471513867+471265852
3728+473187920+475980673+478387254+479551314+478641213+475543795+471856953
3718+469818456+470549192+474059770+479632933+484575038+484927054+480437980
3708+474541894+470366615+469515440+471910873+475303089+476994803+477268925
3698+478374059+481142866+484840372+488924135+493479244+498143046+501020433
3688+500074670+496024920+491718196+489678050+490804570+494201648+498695044
3678+504413928+510591644+513057009+510281490+506412611+504021130+501412946
3668+497055146+492219403+488282782+485596334+484376705+484902710+487105072
3658+490110491+492045073+492083579+492664812+497145240+505523555+511749902
3648+509083759+500021433+491621845+487007641+485223728+484316529+483768000
3638+484288488+485900857+487589955+488979079+491334386+496062289+501485579
3628+502821864+499546504+495586450+493259582+493114715+495187623+498489488
3618+500918565+501547803+501369776+501487285+502235113+503312491+503866594
3608+502917703+500598969+498601253+498746177+501407144+504998403+507264184
3598+507589126+507252581+507318730+507491581+507671997+509461143+514531393
3588+521259514+524539311+522021846+517275117+514379131+513878835+513843343
3578+512977323+511761903+510752380+509901945+510045447+512904121+518375359
3568+522687259+521704184+516645367+512182912+510734578+511755362+513639209
3558+514808160+514641224+514437146+515718317+517591812+518191929+518076012
3548+519153105+521202580+522130540+521044289+519143436+517996895+518064523
3538+518626076+518818494+518464885+517678550+516437308+514915886+513540299
3528+512560068+511975422+511842840+512215617+512902756+513633350+514257470
3518+514402110+513078053+509642810+505660289+504282540+506708375+510340245
3508+511851997+511128911+510082702+509328219+508220241+506904887+506411360
3498+507134503+508457763+509593099+510282059+510872449+511713841+512355024
3488+511687678+509588549+507698161+507414057+507981810+507721708+506370408
3478+504839544+503632769+502859119+502904450+503903223+505086791+505617802
3468+505719215+506058035+506150405+504654350+501694491+499339810+499139146
3458+500354907+501060304+500414913+499294422+498880181+499283558+499729252
3448+499714634+499398110+499044103+498727522+498165797+496548934+493574059
3438+490649578+489278142+488859466+488112377+487479442+488143944+489774742
3428+491162672+492128114+492995556+493246557+492096945+489722926+487299594
3418+486101920+486609440+488183644+489641989+490147063+489500079+488014092
3408+486417364+485465629+485457496+486265045+487477678+488496870+488950356
3398+488904171+488555909+487942938+486772395+484630039+482077879+481000501
3388+482672421+485974287+488491353+489131000+488973392+489670485+491377158
3378+492598606+492421546+491846114+491846228+491760343+490949210+490486964
3368+491918292+495279424+498886950+500884495+501121163+501076230+501629934
3358+501929907+501190440+500435730+501271093+503570318+505362136+505144238
3348+503609165+502330782+501541603+500326127+498423283+496581696+495366674
3338+494653030+494207393+494028114+494246240+495194733+497087965+499262968
3328+500376236+499814227+498264708+496639484+495480259+495316622+496237074
3318+497442085+498214769+498753173+499195682+498929267+497767824+496587327
3308+496282235+496780427+497189946+496649039+495223342+494019810+494021061
3298+494946120+495814074+496397810+497271509+498508770+499314329+499200118
3288+498849183+499283558+500541636+501738343+502276463+502513928+503045848
3278+503742487+503916077+503062684+501075775+498459627+496712230+497439583
3268+500535550+503760062+504714527+503119562+500705956+499320813+499361310
3258+499758487+499400100+498296843+497180903+496496664+496357655+496797888
3248+497407219+497354323+496286273+494793859+493779103+493635487+494074242
3238+494677828+495451479+496601717+497865028+498327842+497119418+494445198
3228+491796801+490643606+491008931+491880298+492648261+493266123+493457687
3218+492808883+491420157+489809892+488423555+487584097+487542121+488161803
3208+488722845+488528153+487634604+486467359+485184426+484158807+484199304
3198+485318828+486139403+485603614+484358391+483637523+483747467+484118594
3188+484201238+483835343+483061408+481984997+480768383+479421860+477662348
3178+475461550+473493240+472463042+472281745+472295367+472028752+471448514
3168+470759014+470216799+470011101+469934145+469340001+468033235+466838035
3158+466468416+466342261+465554504+464359361+463538019+463081291+462527416
3148+461975929+461960743+462690143+463804007+464599471+464507926+463583037
3138+462445284+461636711+461048282+460107496+458644715+457363346+457056917
3128+457533979+457793170+457070596+455331674+453081591+451222572+450636504
3118+451338147+452380232+452954725+453176122+453457923+453675651+453329379
3108+452211874+450753558+449769005+449720716+450199029+450329705+449670151
3098+448440455+447018171+445746414+445083930+445207981+445567846+445517765
3088+445192965+445075086+445086945+444840636+444420253+444331609+444799798
3078+445384245+445341217+444493511+443547692+443172953+443180546+443068924
3068+442820396+442619561+442320413+441735397+441143613+441084972+441693820
3058+442429419+442535496+441746090+440461052+439300377+438600610+438272853
3048+438087204+437984653+437950640+437817148+437534864+437380811+437527840
3038+437730950+437731889+437506255+436908783+435731812+434324032+433446636
3028+433375966+433779058+434353039+434883936+434905294+434131643+433074343
3018+432464244+432277998+432014569+431649471+431514216+431362893+430481231
3008+428891983+427629667+427425704+427814946+427952903+427662144+427193017
2998+426480197+425278115+423884696+423210183+423916889+425521096+426548791
2988+425956353+424337272+423255174+423471252+424244163+424339860+423415341
2978+422208737+421574238+421686543+422133886+422386793+422045441+421009243
2968+419673015+418730238+418538589+418710729+418492603+417637106+416821934
2958+416987448+418231620+419516516+419650093+418533726+417162177+416509619
2948+416740315+417309860+417507737+417038240+416221818+415505642+414938201
2938+414364675+413793736+413288463+412940571+413134723+414232235+415822394
2928+416821110+416457604+414900463+413014625+411708599+411344724+411563988
2918+411644839+411118152+410165080+409437472+409390178+409813206+410138433
2908+410077034+409833625+409821311+410230148+410804244+411063634+410789967
2898+410211436+409663163+409263625+408965927+408749451+408662314+408691606
2888+408696668+408509285+408029095+407253368+406343524+405606701+405248002
2878+405161605+405090763+404933013+404724215+404413862+403965040+403625736
2868+403722513+404182426+404602383+404812375+404983748+405128075+404907646
2858+404131578+403183227+402695785+402846938+403150295+403009067+402382218
2848+401785884+401676423+402007479+402419274+402608933+402400760+401768735
2838+400975519+400423577+400278710+400441977+400766607+401055176+401035951
2828+400550358+399657776+398575051+397669615+397327439+397554352+397825688
2818+397596414+396950311+396531208+396782010+397427828+397780953+397397313
2808+396366660+395167991+394346506+394181276+394564661+395143562+395550778
2798+395624833+395482809+395247591+394789157+394029470+393335107+393169820
2788+393438283+393572998+393275470+392834981+392624477+392568879+392300018
2778+391673566+390922240+390379513+390211724+390327186+390409459+390127829
2768+389440576+388636041+388010329+387614318+387331749+387034250+386650639
2758+386238076+385979169+386020832+386376715+386961077+387525503+387653307
2748+387138365+386285654+385537058+384936088+384241953+383432583+382805790
2738+382580014+382613401+382642039+382640418+382736798+382894918+382925034
2728+382697097+382177036+381459125+380882015+380820531+381221092+381619492
2718+381719170+381676398+381738736+381887613+381924811+381713596+381287269
2708+380810719+380418149+380101938+379857306+379812686+380037979+380373102
2698+380589180+380581701+380367869+380048416+379739655+379432544+378991201
2688+378325305+377516078+376798338+376411455+376403066+376605380+376829336
2678+377004918+377139803+377227907+377166962+376776724+376047950+375305610
2668+374917221+374901750+374984650+374971681+374908775+374880137+374837649
2658+374732568+374655072+374671225+374642359+374409019+374070056+373904343
2648+374034934+374263156+374272114+373964633+373529092+373200964+373064828
2638+373066022+373119629+373178611+373217317+373187399+373025212+372693814
2628+372224772+371756100+371437471+371231972+371007618+370889994+371178876
2618+371807375+372295357+372383944+372330963+372431125+372576589+372451345
2608+371963419+371355339+370976932+370996725+371273691+371511611+371575797
2598+371590500+371661541+371632618+371289532+370713446+370255381+370212097
2588+370633192+371347917+372032042+372334774+372134337+371649283+371205637
2578+370992431+371074563+371389836+371629803+371437386+370898924+370544377
2568+370669963+370952418+370943260+370685377+370556549+370671243+370767252
2558+370643998+370414355+370266672+370237237+370322014+370562521+370862409
2548+370957281+370750047+370461193+370306571+370234507+370064358+369730798
2538+369377616+369263917+369500415+369933368+370384863+370792677+371005598
2528+370812385+370318914+369940336+369934961+370194721+370446064+370475555
2518+370223245+369751928+369188014+368775167+368852350+369534769+370465516
2508+371090033+371161415+370838492+370410828+370126610+370173904+370542983
2498+370938682+371070581+370944910+370689728+370338082+369992777+369884140
2488+370069732+370360235+370612488+370821002+370932027+370811133+370397121
2478+369790264+369203400+368865034+368929476+369399741+370056707+370517815
2468+370537466+370267582+370109604+370291214+370638652+370785994+370579243
2458+370212552+369988966+370022097+370136166+370052925+369774167+369655350
2448+369899327+370212666+370279355+370277734+370538831+370984810+371253301
2438+371141479+370710915+370183118+369865286+369947730+370287603+370582656
2428+370758635+370954920+371166932+371231545+371165624+371181550+371364042
2418+371608616+371816248+371935293+371949399+371965780+372127398+372413492
2408+372755925+373238817+373865097+374309824+374281726+373973250+373820334
2398+373995091+374398838+374985190+375892333+377408351+379928404+383817958
2388+389286778+396508570+405790729+417478929+431758818+448590072+467609240
2378+487985938+508670144+528913492+548349972+566804857+584284573+600289052
2368+612796745+619732357+621886828+622180715+622091247+620823329+616915716
2358+608947034+596176850+579352592+560068146+540768798+525158311+516502149
2348+516233743+523901427+536603245+549110256+557365488+561189718+562302701
2338+562285865+562639758+564779157+568897501+573169757+575180328+574608195
2328+573393400+572801133+571902124+569322207+564991254+559370314+552506993
2318+544902045+537829529+531943879+526622685+521046451+515001316+508377679
2308+500905255+492729198+484583683+477189410+470760095+465054037+459673320
2298+454308870+448886774+443567571+438508781+433653984+428915388+424469143
2288+420612663+417410931+414725990+412514073+410856514+409720268+408883569
2278+408123057+407352477+406570807+405776111+404938957+404000560+402921703
2268+401772574+400733845+399993468+399673474+399776394+400092606+400245465
2258+399979419+399370856+398696514+398169286+397815961+397506916+397090685
2248+396571875+396156184+396071721+396326021+396639560+396662965+396332704
2238+395983845+396011345+396431558+396876427+397035997+396981366+396966038
2228+397009037+396837835+396290359+395640560+395342691+395457954+395529705
2218+395129400+394396985+393886081+393925696+394282775+394499422+394416352
2208+394175475+393829772+393279025+392572433+391975104+391714035+391838882
2198+392265009+392798608+393226868+393513475+393841517+394395990+395129684
2188+395755993+395993429+395846229+395597930+395533942+395778943+396351787
2178+397138377+397811411+398068840+398013896+398055758+398408457+398903890
2168+399281217+399441185+399423951+399321970+399252209+399308006+399481910
2158+399641821+399634769+399499741+399535830+400004388+400784637+401475189
2148+401817963+401907830+402030913+402387878+402928671+403411506+403666574
2138+403761218+403828931+403842127+403721432+403605146+403776774+404283669
2128+404816442+405056978+405010111+404923657+405027345+405411781+406009993
2118+406604308+406936587+406913865+406730548+406745763+407175389+407914088
2108+408712679+409455076+410155553+410815648+411456375+412144652+412819961
2098+413268186+413428553+413545095+413879280+414428435+415001705+415443645
2088+415735513+415947070+416117248+416204640+416194715+416212091+416436986
2078+416901933+417424184+417797842+418047734+418385417+418912731+419536907
2068+420156618+420702530+421045872+421143247+421220743+421554530+422103115
2058+422531547+422614361+422520626+422640382+423173867+423995693+424891688
2048+425754096+426545322+427267384+427980290+428695783+429304005+429773530
2038+430319471+431162200+432224675+433262580+434163750+434929865+435562686
2028+436178132+437003968+438069031+439124454+440022240+440951053+442183394
2018+443725492+445287268+446578620+447631682+448772479+450229686+451863157
2008+453362852+454664271+456028682+457672959+459481699+461213967+462842433
1998+464498513+466273581+468239133+470367070+472309558+473636998+474393472
1988+475050154+475953286+477097495+478283908+479315954+480177765+481083827
1978+482263926+483774029+485563231+487551164+489617759+491696128+493839564
1968+496057227+498203450+500141274+501858753+503411288+504968998+506841071
1958+509169246+511676643+513943334+515819389+517463553+519200655+521401026
1948+524255548+527642161+531301332+534843335+537551738+538957470+539665882
1938+540732055+542461024+544481775+546585682+548856013+551288445+553803919
1928+556435765+559310933+562536582+565993098+569282620+572115301+574389386
1918+575733918+575888569+575697687+576580259+579071730+582462836+585532982
1908+587441684+588229725+588666034+589504184+590877667+592423774+593823989
1898+595088381+596301469+597319694+598147264+599344995+601260978+603116329
1888+603858583+603596434+603083226+602654141+602528384+603106660+604349552
1878+605668717+606745184+607825519+609287789+611480538+614553812+617610136
1868+618566762+616466894+613059293+610644493+609866235+609917937+609874482
1858+609454838+608906537+608569139+608509531+608631989+609068923+610098979
1848+611786597+613823388+615130268+613922242+609911737+605404065+602613473
1838+601634721+600988875+599758212+598985414+600122969+602494883+603504349
1828+602083544+599736485+597463196+594851599+591959936+589656218+588276535
1818+587347950+586452126+585772209+585749856+586349803+586770243+586182866
1808+584738457+583378795+582968764+583926983+586037715+588151347+588742193
1798+587568180+586182355+586413733+588707953+591314886+591620547+589563337
1788+587527740+587079373+587813152+588679002+589514877+590713802+592163615
1778+593510366+595135533+598110806+602865896+607697545+609837910+608966885
1768+606946361+605336664+605187360+607071492+610128555+612372608+613261607
1758+614078655+615370633+616590887+617993833+620755872+624973866+628695944
1748+630186879+630113735+630134267+631098288+632895510+634714971+635596007
1738+636137198+638763470+644769415+650823934+651582911+647912250+643794474
1728+640949167+639834932+640572750+642573196+645286263+649485431+656322019
1718+664411053+668920034+667367785+662965734+659237912+657546937+658240561
1708+661072218+664616666+666967707+668529284+672120259+678993248+685674332
1698+688032425+686472156+682491569+677807177+675037005+675222825+677321100
1688+680625866+686356922+694767543+700683224+699058000+693738113+690127857
1678+690185531+693431372+697256626+699071878+699821242+701637745+703459425
1668+702731447+700761089+700862218+703433489+705729926+705620778+704431579
1658+704838141+708842559+717639892+728973573+733768365+730060279+726837076
1648+727575064+728965781+726861135+722688756+720081539+720263832+723224203
1638+729018791+736417046+741010320+739939653+736839591+735664099+737064258
1628+740309586+745368063+752539148+760358639+766035547+769407258+773427716
1618+779911776+786719413+790015533+790281152+790749767+792504161+794279257
1608+795048301+795804604+797905382+800671402+801987553+801093719+799611941
1598+799640949+801783020+804811133+806785757+806948825+806432944+806616716
1588+807373076+807642619+807307439+807571408+809748403+814336387+820869759
1578+827834379+832425264+832851391+831881399+833055412+836200294+838385138
1568+838411529+839315544+843495032+849527824+855414326+862191874+871136236
1558+876874401+874305918+867848647+861466570+856459340+854181160+855421151
1548+859167004+863642711+868154308+873424882+880014791+884823517+881630118
1538+872900583+867446124+867425420+869175661+868386028+865394090+863687986
1528+864674473+866963630+868645675+869716341+871571521+874931971+879425708
1518+883621862+885309821+883543484+880630549+880008363+883402939+891017614
1508+901771882+910444254+910463308+905211448+901566951+901645101+904331208
1498+907097797+907696549+906282796+905466999+907910466+914091140+921026239
1488+924553283+924524560+924183635+925617409+928140504+930043746+931508632
1478+934377259+938742169+942075373+942826728+942428357+942232868+942358966
1468+943790862+947553380+951799017+952029429+947376490+942803579+943412569
1458+949308626+952975817+947958975+939040890+931967635+927568655+925011604
1448+924026027+924574157+925994963+927432888+928678852+930444506+933589503
1438+937200214+938138696+935463055+932904638+932957648+933668620+932264025
1428+929605503+928530913+929928569+932779792+936219756+940042905+942826387
1418+941866120+937729916+934451143+934244507+935905848+936895691+935998445
1408+934165219+932926991+932306228+931371556+930740555+931914966+934216693
1398+935045572+933630569+931664192+930029811+928355047+927185186+927657157
1388+929799968+932627132+935759103+939642941+944171488+948526159+951786219
1378+953524004+954947369+957979975+962151273+964811899+965371234+966069692
1368+967749064+968495755+967629734+967231932+969087510+973038009+978036991
1358+982866023+986111352+987144933+986926978+986348645+985193232+984526738
1348+987456737+995108951+1004038525+1010404506+1014786593+1019238867+1022316747
1338+1021018684+1016198525+1011914837+1010791502+1012524794+1015773762
1330+1020143108+1025460606+1030690057+1035136188+1038219984+1038440442
1321+1035812691+1033720160+1035740229+1041385001+1046823307+1049885376
1312+1051909540+1054521364+1057646454+1060891555+1064280670+1066676815
1304+1066220997+1062845418+1060034180+1060180811+1061159562+1061995892
1295+1064326400+1066989414+1066059009+1060988133+1055640149+1052808776
1287+1052585474+1054723166+1058012974+1058280413+1052054237+1042119292
1278+1034866360+1033580241+1036134733+1037405950+1034616326+1029927440
1270+1026478490+1024805488+1023373421+1020498708+1016058265+1011788682
1261+1009358411+1008676789+1008704431+1009227024+1010670125+1013023270
1253+1014994083+1013463731+1006310562+996512807+989668143+987602003+987004787
1243+983474501+975173198+963439781+951133775+940594960+932952757+928175768
1233+924655094+919887604+913162270+905766745+898322078+890639832+883688977
1223+879276404+877506085+876906139+876369157+875264364+872909456+869011967
1213+864461580+861047210+860061349+861258682+863303947+865244843+867293464
1203+869928267+872996138+876279290+879958823+883989405+887764948+890999072
1193+894012226+896501536+897441497+897007520+897292250+900130106+905294375
1183+911315223+917148203+922489077+926548952+927916463+926978549+926728230
1173+929511484+934441360+939044701+942386381+945699053+950761283+958293030
1163+967422700+976206211+982376192+983943287+981295857+978097623+977884104
1153+981494815+988131421+995904443+1001443650+1002311490+1000577402+1000773858
1143+1004085733+1008424138+1012410242+1015985803+1019284710+1022544372
1134+1025803806+1027701929+1025206135+1017221528+1008030772+1003883704
1125+1006351173+1010882848+1013317100+1016116621+1023493547+1033711174
1117+1040997891+1043537254+1043553521+1042194143+1039323411+1035584725
1108+1031904624+1029861690+1030769117+1032375116+1031149856+1026950575
1100+1024219648+1026567105+1032586587+1039266989+1046113814+1051856643
1091+1053784457+1053205100+1054270534+1059459260+1067633953+1073741823
1083+1070480910+1056012698+1038551126+1027064103+1024246039+1028316777
1074+1034520657+1036632868+1033074143+1028510958+1026548449+1026378954
1065+1026307743+1025600753+1022823073+1017573032+1013080261+1012528320
1057+1015053577+1017527075+1018772469+1019690021+1018748353+1013591592
1048+1006817229+1003383293+1003695097+1003507287+1001474364+1001790262
1040+1006715304+1012090817+1013153634+1011381096+1011037441+1012431969
1031+1013697953+1014953244+1015665581+1012464276+1003748221+993527978+987119338
1021+986074722+988047810+989813181+990261946+989856635+987795614+983297270
1011+979319129+980036925+985862341+993040764+997449583+997283955+992442638
1001+984169319+975135318+967272656+959702460+951127689+943089958+938457780
991+937386659+936476104+932740830+926614930+919907625+913974313+910389254
981+910058510+911483240+911882749+909944072+906785880+904682542+904512534
971+904385299+901954573+897741015+894251681+892865173+892940593+892249813
961+888297210+881036599+873428863+868473051+866927968+867953871+870514449
951+874136308+878870809+884161631+888160988+889758171+890410103+891980497
941+894238258+896339719+898965990+903135184+908741563+915299734+922189901
931+927630993+929977427+930501441+932325566+936425710+940821675+943968150
921+946062672+947306474+947665543+947510892+947326893+947242259+946618310
911+944897987+943841085+946412356+951991889+955921684+955660274+953360481
901+950942097+948048671+945148476+943677562+944530728+948018298+952750410
891+955753213+955800990+956224046+961861652+972149124+979407175+977485164
881+970517757+966313698+965756296+964606798+962223166+962560792+967993183
871+977255946+988060096+997484051+1000942671+996591071+988830675+983305005
861+981480823+980660988+977691288+972576617+968356177+967470704+969765493
851+973931671+978777198+982695049+983972408+983468017+984700670+990855181
841+1002081476+1013214948+1016856373+1012206620+1004961081+999165811+994833208
831+992087152+993111064+999279566+1008689643+1016050302+1016926219+1012010733
821+1006142773+1005557160+1013937522+1027067629+1033022157+1025899702
813+1015121944+1012208326+1018428018+1027203794+1031237107+1028596957
804+1024370146+1022954119+1021676532+1015987281+1007421270+1001007398
795+1000071759+1005428047+1014318944+1019536337+1014722321+1003483398+996978180
785+1002081704+1015097600+1025424204+1026451302+1021849554+1017591574
777+1015849524+1013931379+1009235328+1004038866+1001428975+1001228083+999314489
767+992385077+982005691+973271549+970636859+973019467+974688486+973794027
757+975778377+983982419+993292163+996403260+992563901+987114219+985601727
747+989453714+995019312+997013217+994838327+993424347+995651678+998692133
737+998349502+994666215+992511118+994987119+1000528032+1004645637+1003653349
727+999931157+999586479+1003009721+1003189454+994751759+982371301+977201571
717+982652504+991861234+997367793+998007326+996981365+999866772+1009731643
707+1020589143+1023817978+1022934325+1026856385+1031894386+1029993419
698+1023982582+1018653140+1011452762+999437914+987494731+983231747+989630945
688+1002967972+1014269006+1013719226+1000484009+983981622+971840050+964014246
678+958216814+955464956+958214425+965398763+972389944+975138389+971584328
668+960277266+946949111+937541366+928635454+920870110+921806715+938208144
658+964647295+982668999+982698234+975354411+970215282+965855491+958630884
648+950351991+944290135+940272293+937669626+935747102+935187425+938868437
638+947334344+958392680+969638087+976388561+971876566+959102400+947512826
628+935144255+916186116+895654456+885176557+890880652+907955627+924032966
618+929452616+922370374+909614977+900509367+901954288+915180917+930140609
608+933424330+927161752+921342821+915495223+904319378+891551070+882638901
##END=
