##TITLE=<SNM>
##JCAMP-DX=4.24
##DATA TYPE=INFRARED SPECTRUM
##DATE=29/4/2025
##SAMPLING PROCEDURE=Instrument type and / or accessory
##ORIGIN=Admin
##XUNITS=1/CM
##YUNITS=ABSORBANCE
##RESOLUTION=4
##FIRSTX=4497.3318
##LASTX=599.83466
##DELTAX=-1.4281778
##MAXY=2.1834538
##MINY=0.52389514
##XFACTOR=1
##YFACTOR=2.0334998e-09
##NPOINTS=2730
##FIRSTY=0.54306233
##XYDATA=(X++(Y..Y))
4497+267057968+267088951+267659262+267533926+266152482+263979045+261952838
4487+260811806+260815088+261935222+263759766+265176472+265275515+264450313
4477+263744847+263586067+263882258+264811047+266440319+267971633+268407463
4467+267776302+266914196+266328203+266075627+266365429+267369665+268571695
4457+269168504+269066764+268864046+268899865+268765590+267703727+265463665
4447+262971027+261889438+263140095+265850721+268075952+268724554+268345675
4437+267931212+267658294+267141301+266314339+265519884+265104894+265252359
4427+265807487+266179653+265892168+265127112+264310937+263514372+262746531
4417+262460599+263034105+264069968+264948635+265639504+266281657+266400544
4407+265479786+264071727+263249162+263212347+263390238+263492241+263562413
4397+263511616+263359783+263467796+264092861+265060722+265936926+266231974
4387+265658263+264577348+263920451+264296750+265317460+265966384+265656153
4377+264825322+264359535+264632688+265240928+265498487+265118143+264423669
4367+263948502+264049304+264814360+265825631+266099956+265101083+263689624
4357+263023436+263080739+263346652+263967525+265040907+265684350+264953999
4347+263195992+261622851+260963257+261053829+261317895+261216713+260472820
4337+259242153+258094467+257632256+258058619+259141615+260460978+261596910
4327+262301819+262669266+262998902+263346593+263354742+262798412+262151130
4317+262171911+262937289+263678281+263605618+262639164+261432972+260891034
4307+261495288+262855921+264041214+264445066+264269960+264191171+264567705
4297+265032729+265014322+264525203+264057423+263885541+263951873+264264449
4287+265009749+266178071+267247378+267557903+267063508+266340690+265723774
4277+265004297+264129529+263442295+263214985+263437986+263817217+263761027
4267+262751778+261026189+259674935+259653391+260732753+261792124+262207231
4257+262530653+263519677+264859030+265307963+264218577+262507145+261634693
4247+261984055+262857211+263752673+264707227+265484945+265547056+264973520
4237+264556537+264853021+265567193+265931914+265569772+264907951+264656342
4227+265001425+265520470+265629714+264982607+263790778+262774025+262429646
4217+262557707+262888809+263599492+264681931+265510592+265629860+265449771
4207+265747135+266675309+267397775+266913170+265378662+264030545+263605501
4197+263676317+263789810+264274356+265409849+266527169+266596989+265562942
4187+264512922+264366101+264898044+265439952+265986140+266856541+267752648
4177+268039547+267675793+267107036+266464765+265555439+264581071+264191992
4167+264689259+265670926+266511106+266860322+266877322+267225366+268399842
4157+269813559+270198182+269186647+267643492+266286112+265015318+263739131
4147+262928115+263003680+263694373+264370732+264732200+264907892+265153082
4137+265662982+266421941+267048853+267012829+266209815+265242306+264968362
4127+265726412+266981935+267730957+267325347+266100425+265196199+265426410
4117+266339371+266861729+266741347+266592270+266620819+266329962+265582757
4107+264970179+264856392+264956021+265182276+265945397+267120226+267675207
4097+267024260+266010117+265828064+266618327+267607439+268110070+268056196
4087+267721871+267238292+266580574+265934024+265698508+266013868+266537281
4077+266741904+266371584+265755313+265621301+266297456+267223021+267669227
4067+267653370+267617962+267679486+267720053+267749629+267727704+267428611
4057+266836052+266257710+265844625+265440421+264980321+264615922+264464206
4047+264573274+264989642+265624027+266269727+266782500+266995271+266661825
4037+265802475+264935533+264698463+265349409+266683193+268060974+268597196
4027+268030637+267387252+267961579+269603308+270835968+270747213+269827921
4017+268901418+268260320+267874260+267543452+266896316+265848318+264907130
4007+264664315+265174655+266008211+266752691+267354511+267958677+268495603
3997+268663645+268287902+267443501+266339019+265343606+264978533+265570446
3987+266901504+268244082+268773533+268172591+267002599+266452278+267417150
3977+269550841+271398453+271676442+270358721+268468783+267059581+266531859
3967+266774088+267633614+268913700+270097703+270688444+270803784+270835089
3957+270675928+269963603+268896025+268142665+268036323+268287287+268450023
3947+268502608+268887144+269876813+270992960+271302693+270429683+269025787
3937+268119626+268289133+269430811+270945124+271934558+271664718+270440763
3927+269645722+270280577+271654693+272238312+271791870+271458190+271904660
3917+272451640+272107583+270811083+269310840+268369886+268273862+268903294
3907+270138592+271997636+274357640+276735700+278454958+278952225+278029035
3897+276060953+273971199+272898726+273587748+275368618+276207744+275417920
3887+274729455+275481907+276643135+276660165+275743598+274568301+273099626
3878+271829741+271905774+273592526+275938226+278051809+279428974+279254015
3868+277527341+275802632+275327846+275669148+275680227+275211275+274889465
3858+275248266+276933728+280599758+284787179+285677980+282791896+278836123
3848+275697756+273980315+273543312+273846772+274583426+276149619+278842132
3838+281573687+282672657+282076933+280904508+279803661+278939035+278524895
3828+278463106+278192182+277847920+278772312+281544317+283975694+283942836
3818+282832815+282644372+283000095+282490399+281077035+279933863+280320450
3808+282365005+284351202+284877898+284916852+285779662+286782022+286621279
3798+285566744+284496117+283711130+283333746+283823128+285478634+287791036
3788+289927365+291776648+293859865+296452866+299502302+302891047+306181482
3778+308836329+311034183+313576328+317180599+322060852+327423893+331640948
3768+334025017+335505299+336920305+338327660+339988061+342427177+345407233
3758+348064367+350551172+354339430+360702135+369144188+376792049+381168323
3748+383767420+387619695+393799204+400218802+404486038+407384169+410883007
3738+416159081+423011081+429584124+433923319+436152507+437670249+439135993
3728+440344793+440968597+440839305+440129853+439358993+438908331+438584939
3718+437793796+436371228+435367372+436504243+439958352+443126998+443677641
3708+442132815+440150869+439227092+440462771+443479057+446238399+447378640
3698+447610288+448356965+450302888+453443629+457624924+462165811+465119956
3688+464692479+461623375+458202680+456429460+457298953+460394262+464639895
3678+469275223+472530249+471533546+467491099+465055764+465583457+465516392
3668+462277780+458344049+456598118+457049660+457752429+457321083+456354834
3658+456370222+457909655+460062105+462268664+465395131+469668991+472109455
3648+469367231+463442321+458633851+456477941+456079952+456376876+457031633
3638+457669741+457832654+458107331+459972149+464183165+469940913+474811200
3628+475924329+473577661+470820898+470101334+472332485+476668368+480481483
3618+481669003+481418274+482261650+484611776+486851838+488119085+489265130
3608+490757254+491482505+490357154+487986422+486229148+486471025+488417358
3598+490721319+492596806+494095672+495254232+496074071+496998434+498573040
3588+500524708+501798814+502007101+501782459+501787441+502523215+504401311
3578+506867862+507975245+506323023+503127381+501071717+501814525+505370286
3568+510539638+514837445+515758760+513476343+510393374+508177787+506664969
3558+505402118+504873928+505306798+505799991+505591528+504936009+504332547
3548+504099756+504528581+505330892+505537537+504592187+502924019+501338743
3538+500397204+500314135+500930905+501658589+501663279+500365313+498032480
3528+495788051+494612900+494402913+494449694+494770185+496010114+497907673
3518+499045246+498575151+497375671+496801345+497093403+497472164+497104190
3508+495841632+494493134+494336611+495723156+497174185+496915600+495194906
3498+493611800+492915831+492810134+493165505+494166605+495565167+496659009
3488+496901590+496462974+496163529+496338870+496334532+495637215+494621459
3478+493726407+492521652+490274613+487237488+484617169+483443836+483925626
3468+485574361+487512399+488931538+489707439+490350237+491000158+490904544
3458+489506744+487521016+486167213+485783146+485731851+485207705+483648341
3448+481029781+478351632+477037486+477277224+477685179+477148459+476295557
3438+476240364+476865135+477322129+477714461+478958758+480838056+481680406
3428+480674381+479041914+477864682+476664382+475148662+474133932+473704110
3418+472797920+471279797+470230157+470016946+469827126+469248901+469136345
3408+470501756+473133213+475734098+477240321+477572418+477210863+476703102
3398+476347702+475834284+474824742+473797584+473359966+473035049+471926025
3388+470439177+470062467+471412431+473295744+473978084+473109617+471974476
3378+471991682+473385525+475249317+476517063+476823982+476644098+476715735
3368+477345636+478314230+479305218+480071915+480358346+480259860+480556139
3358+482006406+484312302+486257638+486962430+486673449+486380717+486816547
3348+487756181+488384617+488264763+487716289+487418485+487868473+488881767
3338+489347290+488172667+485786693+483799998+483188153+483438853+483452160
3328+482999710+482825923+483369502+484069135+484013443+482811443+480848608
3318+478975231+477777510+477250873+477309232+478049666+479267641+480398649
3308+481222709+481894144+482243682+481901355+481046254+480135990+479218779
3298+478386747+478167908+478655884+479060029+478870619+478664794+479093590
3288+480058930+481384888+483161450+485050127+486406628+487270258+488124889
3278+488759304+488533050+487688414+487321846+487958313+488818894+488634614
3268+486983153+484806697+483477045+483337289+483435189+482786675+481589247
3258+480643897+480098999+479633036+479415106+479867879+480860831+482082733
3248+483632952+485357926+486306354+485899922+484807957+483871693+483131523
3238+482358788+481685447+481442075+481799615+482365178+482309105+481527019
3228+480877450+480566691+479597892+477603078+475857381+475585519+476386686
3218+477053725+477010256+476289929+474964352+473429785+472753514+473645400
3208+475290119+476222982+476107876+475577751+474797834+473388280+471543775
3198+470228193+469942554+469917522+469148304+467860979+466980055+466582124
3188+466136240+465651987+465307842+464704497+463482037+461829346+459973321
3178+458203003+457230540+457348958+457735780+457565745+457036000+456542778
3168+455796511+454461935+453023979+452411313+452859894+453541940+453363434
3158+452034134+450358726+449504329+450063531+451511366+452434205+451681987
3148+449446498+446923904+445015822+443759068+442877529+442377272+442312494
3138+442335093+441979839+441210885+440351681+439758712+439737374+440174787
3128+440217699+439136637+437474595+436518078+436806414+437697391+438146295
3118+437635925+436461947+435246668+434331538+433718521+433302973+432948482
3108+432552515+432145995+431797776+431504428+431227055+430886985+430440104
3098+429995392+429695126+429617334+429936036+430817224+431884714+432236861
3088+431397149+429883334+428523961+427565421+426755138+426026751+425650041
3078+425733344+425946760+425814654+425164352+424377928+424095484+424386135
3068+424524661+423945351+423012136+422462401+422444140+422472514+422150030
3058+421606832+421186537+420983262+420872290+420759968+420616519+420463455
3048+420355003+420149383+419510513+418338674+416857952+415265525+413811652
3038+413034696+413282318+414175552+414952538+415158011+414822513+414225792
3028+413604127+413030680+412571312+412311379+412074807+411492479+410594378
3018+409931092+409883021+410253722+410650422+410828254+410614105+409930857
3008+408972112+408061906+407292219+406497940+405599166+404836132+404620577
2998+405046881+405599576+405641286+405125289+404453883+403812668+403157530
2988+402628782+402413842+402391155+402325585+402212473+402152414+402110029
2978+401990351+401811493+401670154+401549069+401301446+400891175+400431485
2968+399893299+399122821+398291961+397856541+397906927+398056268+398043635
2958+397939463+397743487+397312053+396719143+396228353+395799558+395013749
2948+393728505+392532953+392152521+392479430+392657673+392252414+391794248
2938+391874210+392253821+392321090+392044743+391922866+392139976+392234212
2928+391680051+390606347+389722199+389477595+389551255+389415133+389073832
2918+388852355+388803727+388683521+388253319+387474868+386616572+386068157
2908+385911312+385918903+385976354+386084600+386038083+385643113+385107975
2898+384720098+384372876+383844978+383325112+383234276+383581059+383816693
2888+383462611+382671029+381978958+381721810+381867692+382194924+382457847
2878+382534672+382459694+382183346+381485443+380362554+379281639+378800376
2868+379055091+379674118+380068473+379896474+379416530+379214135+379440770
2858+379611538+379320095+378817083+378608533+378762505+378909297+378743482
2848+378307564+377920361+377932554+378334735+378579339+378149751+377254348
2838+376502336+376085001+375798834+375586854+375473302+375222514+374627523
2828+373946971+373645797+373845730+374251487+374478298+374338220+373905584
2818+373386216+372953082+372718884+372772670+373080586+373331785+373055613
2808+372036838+370582936+369279079+368530994+368402933+368717942+369148057
2798+369355992+369225292+368888183+368527330+368272292+368165423+368053014
2788+367683603+367069413+366543684+366327513+366228587+365874506+365127623
2778+364199567+363414257+362918865+362634252+362421745+362240835+362165358
2768+362183121+362036975+361554011+361059441+360991409+361184336+361083535
2758+360559917+359972282+359567961+359314037+359203768+359326026+359630834
2748+359864065+359803302+359461913+358994250+358498302+358014254+357591409
2738+357243688+356961449+356812107+356854081+356945240+356834238+356454831
2728+355975444+355540112+355093377+354528371+353892227+353303977+352816910
2718+352564071+352786397+353393993+353771992+353420402+352565566+351803294
2708+351384083+351139539+350912551+350768398+350782262+350795159+350540004
2698+349985609+349355972+348812480+348365922+348092681+348128734+348387173
2688+348553104+348473231+348375800+348548414+348838597+348665279+347703925
2678+346452623+345818208+346124189+346764906+346918498+346411646+345736136
2668+345398616+345454688+345586824+345489803+345165502+344852897+344716599
2658+344715192+344727122+344639422+344392064+344127411+344134710+344438082
2648+344668733+344559314+344284315+344103698+343995657+343840805+343656729
2638+343452312+343095212+342511916+341878673+341483878+341436072+341556541
2628+341573688+341432701+341351010+341522423+341856836+342063159+341919943
2618+341470600+341011233+340816429+340857583+340896889+340815491+340707860
2608+340709912+340848643+341023016+341100896+341031751+340822995+340496525
2598+340190104+340123597+340293632+340416271+340312274+340149508+340213641
2588+340551631+340869571+340820855+340435704+340105570+340073826+340172048
2578+340160002+340091384+340164017+340356182+340433945+340302689+340124505
2568+340015233+339850298+339502548+339095090+338881528+338959496+339186073
2558+339362938+339452191+339554282+339705236+339805950+339744982+339501199
2548+339173293+338972979+339091690+339477399+339809438+339808646+339543320
2538+339310382+339247422+339228662+339133078+339004167+338917991+338891846
2528+338939154+339066453+339246718+339451605+339604170+339540623+339209639
2518+338831405+338674091+338797639+339126248+339546163+339850415+339875183
2508+339749408+339729769+339801348+339749672+339582802+339544434+339708020
2498+339855984+339816824+339708694+339750111+339954177+340102082+340001134
2488+339737302+339606632+339742051+339910767+339819931+339520457+339310617
2478+339327852+339462010+339612993+339805744+340046215+340240373+340307643
2468+340264321+340154520+339990230+339807327+339683721+339614400+339460984
2458+339160044+338915910+339022017+339516441+340142444+340601489+340714895
2448+340426061+339860791+339366602+339289190+339660800+340198575+340579916
2438+340627459+340325816+339856834+339577233+339738475+340196084+340545329
2428+340542368+340286832+340037949+339977538+340151912+340555441+341145889
2418+341733289+342046569+342063774+342081361+342300170+342560924+342653490
2408+342659733+342801190+343084454+343305697+343397529+343543734+343857278
2398+344166513+344274525+344292112+344617351+345665642+347612854+350393271
2388+354067685+359161706+366496669+376740960+390163247+406629460+425785284
2378+447415016+471519652+497719494+524788007+551303122+576475717+599635795
2368+619364744+634018313+642751047+645440540+642385417+634995085+625519074
2358+614092744+598006787+575440206+548238326+521251474+500225556+489209585
2348+489704244+501194355+520407952+540614265+555278035+562811289+565809196
2338+567378058+568714949+569469716+569823446+570930946+572756106+572837240
2328+568733356+561061284+552576935+545036470+538168174+530795077+521988362
2318+511778101+501255558+491654504+483349072+475794157+468139495+459884947
2308+451204711+442659628+434568843+426894748+419715458+413383178+408082541
2298+403547634+399377068+395434631+391825260+388626100+385750832+383027484
2288+380373575+377924640+375954507+374612076+373771309+373155213+372557760
2278+371969334+371538574+371343537+371190238+370775981+370042083+369215180
2268+368570154+368265551+368251774+368247583+367964288+367356928+366530259
2258+365593703+364769585+364341229+364300720+364333256+364266250+364243153
2248+364400613+364650786+364852389+365028551+365320814+365722263+365929611
2238+365630958+364947944+364377369+364229582+364302274+364177847+363688406
2228+362986897+362262379+361556942+360883250+360349725+360062649+360015311
2218+360137247+360333750+360442554+360323198+360068687+359990924+360309832
2208+360935248+361588247+362058694+362318481+362481130+362726642+363195975
2198+363864479+364539080+365026587+365296896+365500053+365850382+366441622
2188+367149374+367794693+368373065+368977641+369563311+369986362+370249871
2178+370555032+371094009+371802582+372333410+372379429+372032060+371711423
2168+371762044+372199751+372762030+373105999+373059013+372752211+372472581
2158+372429933+372694145+373219786+373862760+374483956+375082054+375765243
2148+376617705+377664062+378940074+380537191+382546221+384968248+387753589
2138+390947033+394648325+398734416+402826165+406747556+410851791+415605243
2128+420923027+426135320+430554916+433966671+436678821+439215925+441874084
2118+444512517+446762838+448305934+448975318+448878942+448409403+447816083
2108+446867509+445302399+443421694+441777181+440447442+439050843+437348410
2098+435459352+433528026+431482152+429164268+426556759+423816205+421091187
2088+418372060+415595571+412827201+410223590+407862501+405708526+403684372
2078+401743550+399965610+398561069+397651185+397061968+396477090+395809113
2068+395279515+395068327+395021751+394843157+394491362+394202118+394170080
2058+394365792+394615877+394766654+394815839+394944574+395383864+396198661
2048+397198178+398123714+398972424+400017755+401402131+402900146+404283203
2038+405722567+407591957+410010027+412740615+415436996+417871363+419976271
2028+421777893+423377033+424929246+426476622+427851793+428958121+430039476
2018+431402513+432976709+434389809+435365819+435913209+436305776+436895520
2008+437774509+438687412+439364621+439810066+440241324+440884972+441758158
1998+442584650+443138224+443637397+444442052+445455815+446254315+446697239
1988+447024149+447544337+448521050+450100874+452160847+454367875+456382416
1978+457962591+459129711+460306240+461989737+464253923+466771153+469194704
1968+471326578+473153409+474924284+476971682+479355985+481868731+484371481
1958+486924442+489539748+492040711+494304720+496448846+498605166+500700283
1948+502662737+504706794+507181963+510132855+513101216+515519110+517368598
1938+519188482+521398500+523962540+526746182+529743913+532739768+535230472
1928+537044259+538692730+540791071+543399372+546192979+549047554+552037899
1918+554899919+557020595+558250617+559203940+560436365+561781640+562733790
1908+563249201+563797792+564721745+565901058+567033297+568075727+569288924
1898+570789783+572265551+573345381+574104663+574923974+576006970+577250886
1888+578371107+579028678+579052010+578664279+578346603+578385411+578661172
1878+578920578+579093046+579315930+579864052+581032696+582763356+584253897
1868+584403502+583046504+581064587+579264224+577889580+576846916+575980649
1858+575253434+574614270+573734695+572342874+570746226+569449726+568584923
1848+568256109+568700117+569375627+568850074+566741415+564328211+562618010
1838+561623769+560957990+560216472+559324175+558748735+558820547+558937969
1828+558204423+556519430+554257238+551743554+549390673+547573837+546317728
1818+545365168+544433418+543449436+542659260+542326225+542286537+542143322
1808+541885440+541846280+542193796+542894806+543951774+545264806+546347860
1798+546632356+546217718+545999407+546809338+548350061+549409549+549655823
1788+549923846+550737647+551872055+553092228+554591973+556509054+558493667
1778+560076422+561315472+562837376+565223497+568213314+570671775+571795690
1768+571609387+570650202+570043984+570983589+573540830+576386083+578363897
1758+579611564+580541613+581287353+582305630+584297864+587263001+590130180
1748+591967299+593037808+594041898+595192310+596303211+597326353+598556668
1738+600496025+603626127+607824100+611379802+612250994+611105623+609729162
1728+608974219+609228407+610595899+612486951+614111210+615702641+618440088
1718+622748682+626676345+627677094+626106415+624230137+623856475+625532440
1708+628597940+631735838+633972470+635788602+638735449+643409908+647684618
1698+649073624+648196570+646618622+645189459+644605225+645280266+646950251
1688+649246620+652509854+656779933+659918241+660003186+658680716+658022207
1678+658706627+660705720+663345091+665707118+667923232+670538861+672653558
1668+672893853+672232706+672776256+675172928+678448473+681280185+683304251
1658+685077178+687607452+692012304+697972418+701584984+700949397+699577156
1648+699472514+699884691+699412074+698232585+697548224+698078994+700068590
1638+703520413+707667091+710261029+709782551+707993561+707343435+708779223
1628+711830770+715576351+719943099+725420454+731530290+737158716+742507512
1618+748633351+754874736+758557943+759088127+758571837+758576527+759083379
1608+759272144+758846777+758374513+758355988+758968654+760636764+763745233
1598+767902170+772258014+776245356+779397030+781109283+781487282+781840718
1588+783598462+786867910+790396529+792937061+794331461+795181901+795918203
1578+796590664+797266173+798242124+799783257+801855922+804011655+805619090
1568+807153950+810091652+814681166+819708826+824651249+830539374+836999539
1558+839569793+837498184+835846723+836469531+837500294+836887745+834919839
1548+833760634+835205215+838952672+842520216+843338179+841416526+839136396
1538+838338482+838650237+838709915+837232506+834402494+832562444+833412063
1528+836081624+838441716+839552207+840258259+841223247+842221182+843662011
1518+846483171+849951994+852017683+852580637+853971813+857756378+863613785
1508+871018948+878571723+882144133+880596200+877627194+876331691+877281027
1498+879097510+880466351+881831498+884229519+887571190+890705571+892289381
1488+892392264+892964891+895599923+899705214+903269710+905142647+906311291
1478+908629468+912357110+915858235+917708661+918157360+917974808+917322455
1468+916395102+915636348+915470915+916087919+917357335+919072167+920746432
1458+920768357+916987485+910609098+905920394+905208656+907503149+909507870
1448+908743196+906629026+905599904+905068606+903360458+901302800+901237846
1438+904052030+908555134+912452959+914326248+914311944+913192777+912023547
1428+911596774+911810278+911935730+911291994+909849172+908587787+908701925
1418+909705722+909761121+908756386+908339871+909537182+911580946+912794143
1408+912108785+909520650+906181676+904103149+904416546+906560965+909406277
1398+912004671+913573942+913411968+911616236+909523699+908623312+909085083
1388+909666621+909290439+908775028+910112153+913876435+918767915+923528842
1378+928181024+933377752+938919065+943154849+944593451+944060101+943813945
1368+944540866+945276699+946047060+948369047+953055289+958124278+960949776
1358+962468163+965399533+969395199+971108155+969545684+967884668+968481154
1348+969935994+970539632+971751305+976124443+983312467+989422069+990777426
1338+988436973+987142817+990216876+997183834+1005162621+1011802464+1016814003
1328+1020563747+1023366265+1026048958+1028860034+1030463248+1030383053
1320+1031093208+1034625227+1039173764+1042050146+1043882575+1047081500
1311+1052418629+1058606375+1063208727+1064100496+1062229728+1061404203
1302+1064177292+1069572692+1073741823+1072248585+1064186202+1053995581
1294+1048070582+1049203408+1053441596+1053450389+1046650975+1037325859
1285+1030774418+1028735989+1029909381+1031966804+1032093195+1027799784
1277+1019828618+1011809147+1006125557+1002094659+997960468+994002731+992246980
1267+992914107+993188578+990226021+984158335+977126715+971177858+967809748
1257+967341411+967979285+966904848+963151293+958524261+954707863+951220573
1247+946109376+937516106+925372878+911955369+900312897+892036776+886472483
1237+881326581+874206969+865084042+856442878+850060036+845263466+840841848
1227+836772024+833373020+830582286+828631908+827726421+826930559+824950870
1217+822100457+820279284+820923137+823625176+826703689+828733560+829439377
1207+829607566+830615349+833591331+838425243+843667228+847918841+851114952
1197+853961788+856931908+860210091+863703184+867225120+871085485+875528852
1187+879607528+881863975+882394863+882928564+884429423+886236761+888090880
1177+891143717+895822221+900723901+904801990+909217453+916398443+927265103
1167+939222437+948155074+952449013+953637823+953928122+954697077+956550082
1157+958975832+960757845+961997012+964062525+967145201+969445498+969223493
1147+966992723+965354511+966747563+971015473+975123225+975768837+972876685
1137+969747287+969416128+971489203+973202452+973864185+976261092+982225426
1127+988886726+991216745+988258994+984205467+983141934+986380019+993556143
1117+1002652396+1009150021+1009231389+1004097446+997455257+991439042+988017468
1107+990318996+999485245+1011221044+1017625694+1014328166+1004955917+996820608
1097+994750053+999214642+1006818243+1012274143+1012771381+1010758745+1010621099
1087+1013323724+1015430273+1014126738+1011726255+1011131234+1009858183
1078+1004184207+996379061+991694637+991385344+991620772+988854952+985061594
1068+985767528+992365164+997979462+994672671+984079429+974061451+968005431
1058+963675615+958595722+953426839+951443281+954735943+960614923+963755049
1048+963103223+962205943+962937438+964497154+966747621+969146639+968762660
1038+964395092+959789632+959077894+961605119+963967146+965312127+966835849
1028+967543777+965247466+960779066+957002181+955338175+956297242+960668739
1018+967359291+971827221+969687551+962956607+958814736+961281287+967336897
1008+970055877+965588592+956596570+948043281+941785129+936026385+928706811
998+919414758+908849068+898509076+890287181+885295749+883169914+882712187
988+882510877+881078900+877685406+873314262+869706620+867624341+866770794
978+866593050+866439400+865657373+863809819+860479111+855575906+850209407
968+846067360+843289874+840137965+835433257+830125322+826076133+824370681
958+824693809+825774988+826729483+828127811+831000559+834918608+838268076
948+840448548+842468804+845407913+849564791+854765213+860439482+865670504
938+869642486+872076971+873536208+875412369+879034315+884735082+892039238
928+900184689+908335650+915275994+919367508+919577143+916740683+913308323
918+911291760+910624340+910367690+910855020+912943982+915525258+915962994
908+913530620+910374842+908766234+908682521+908182118+906157465+904028639
898+904000207+906292062+909091121+911270773+913246065+914803261+914918337
888+914233272+915393650+920438897+929081410+938624134+944487813+943696289
878+939257611+937467273+940697737+944879588+945453036+943548853+942536438
868+943282119+944520466+945092799+944639235+943519600+943247297+945958657
858+952232050+959104626+961571528+957421743+949280337+941977412+939789788
848+944084078+951516735+956388342+956300525+953286731+950116180+948252447
838+948179637+950067875+954080072+960086674+966121179+968917835+967542018
828+964454125+963664360+968126135+977408632+986975156+991314058+990238214
818+988309292+987432765+986072835+986137672+992490382+1004090880+1013871026
808+1017371974+1016409741+1012850404+1006964449+1000651016+996349984+994422118
798+993516045+994543232+999208428+1005308708+1008495674+1007328496+1003260782
788+997278803+989362274+980566110+973432781+969488058+966702716+961745990
778+954519626+948392379+946133528+947175899+948549957+947347312+943447787
768+939288036+937650059+939788557+944556753+950661958+958388491+967431983
758+974908666+978345013+978215456+975993011+973000614+970554464+969603544
748+970299279+971756288+972067047+969227362+963772518+959652572+959524540
738+961651666+963273346+964677419+967720114+971655047+973947898+974603593
728+976600870+981411919+984225516+980058731+972504900+968893213+971771647
718+977080228+980254413+981036206+980804236+979655875+978529323+979921671
708+982381246+979656813+971015414+963178143+960533555+961308430+961915116
698+961992557+963894923+967038507+965917289+957038234+945769598+941238824
688+945500813+951389290+951624191+948578447+949382810+953542443+954077083
678+949920849+947297248+948576630+948177937+940199092+926695055+915427886
668+914165035+922629452+929161372+928469389+925864020+926945550+933495584
658+942787637+949076506+950085931+948503938+947130173+946273285+945398986
648+942070094+934890805+926664102+920016403+917112644+920505610+929615522
638+937747959+934996325+921604610+912070387+917430848+934521306+950991710
628+957702370+954863741+945711796+934448496+926846478+923556922+920655449
618+917311199+915335320+915288422+914771194+910053648+903352895+901135080
608+901693696+897443022+892077577+898387668+917083743+926603838+909886690
##END=
