##TITLE=<SNM>
##JCAMP-DX=4.24
##DATA TYPE=INFRARED SPECTRUM
##DATE=29/4/2025
##SAMPLING PROCEDURE=Instrument type and / or accessory
##ORIGIN=Admin
##XUNITS=1/CM
##YUNITS=ABSORBANCE
##RESOLUTION=4
##FIRSTX=4497.3318
##LASTX=599.83466
##DELTAX=-1.4281778
##MAXY=2.1855865
##MINY=0.50932986
##XFACTOR=1
##YFACTOR=2.035486e-09
##NPOINTS=2730
##FIRSTY=0.52664369
##XYDATA=(X++(Y..Y))
4497+258731179+256483639+255625596+256383141+257424699+257654042+257062150
4487+256220182+255769960+256098776+256913247+257473074+257456383+257130642
4477+256856790+256959279+257687219+258808398+259700907+260059884+259962782
4467+259482604+258789217+258145641+257546106+256992808+256796848+257021915
4457+257312927+257598844+258030618+258321308+258307370+258724092+260054730
4447+261219540+260951808+259810834+259108956+258568133+256890728+254399585
4437+253081188+253742744+255026002+255641731+256066360+257214449+258601983
4427+258959555+258077588+256961768+256361882+256087971+255774909+255547880
4417+255788291+256598896+257573954+258171644+258367370+258551383+258756655
4407+258679817+258387019+258060457+257375270+256121792+254922898+254594199
4397+255387879+257027537+258823800+259872240+259759970+258980522+258260781
4387+257849680+257677995+257658815+257574129+257059016+255978863+254666937
4377+253653754+253215947+253188890+253193751+253129592+253343298+254061985
4367+254848959+255038301+254475106+253454397+252321212+251387297+250867646
4357+250804483+251263285+252368826+253960286+255596547+256912368+257552782
4347+257075385+255584014+254140521+253874868+254857334+256189845+257029675
4337+257023526+256093095+254575194+253372551+253246430+253946493+254479820
4327+254306203+253895981+253913902+254233523+254269541+253991823+253825995
4317+253764618+253488335+253144234+253125815+253330618+253373488+253245406
4307+253218143+253470678+254098559+254928578+255160732+254037709+252057638
4297+250579357+250225182+250640441+251614971+253270647+255075256+255818511
4287+255060761+253812408+253246489+253379931+253550268+253656418+254093639
4277+254738533+254977978+254758768+254751974+255335257+256012685+256067414
4267+255522286+255169751+255609900+256416406+256558867+255708905+254617596
4257+253966201+253521601+252880601+252367245+252574772+253517325+254668635
4247+255480676+255697280+255502462+255367410+255588612+256045013+256379803
4237+256343638+256134911+256292745+256991900+257740748+258037822+257915537
4227+257691172+257625872+257705872+257447716+256410345+255013176+254145528
4217+254117797+254774317+256095350+257691817+258327809+257165459+255083367
4207+253761719+253910885+254953117+255963783+256488793+256587710+256467768
4197+256289934+256134501+255960854+255700736+255523106+255747237+256264634
4187+256546158+256451838+256339334+256206127+255570193+254443480+253721133
4177+254230595+255698451+256972427+257321595+257210847+257577409+258543535
4167+259219498+258866172+257883970+257229501+257100949+256894711+256471428
4157+256612747+257798992+259355136+260391658+260914619+261396056+261838138
4147+261864580+261321766+260391570+259410012+258778968+258758353+259171006
4137+259540496+259613791+259459880+259047111+258277150+257505373+257436237
4127+258278467+259299352+259501667+258710710+257733662+257379311+257635945
4117+257962624+258078378+258148716+258354134+258596273+258605556+258207779
4107+257528858+256967888+256909967+257507218+258643858+259844802+260416343
4097+260074848+259225999+258394749+257760514+257416120+257501157+257838230
4087+258007514+257977704+258180370+258874606+259781054+260392097+260524104
4077+260512244+260776170+261242351+261451869+261170667+260459096+259343159
4067+258047134+257282414+257586574+258481456+258899233+258464794+257832374
4057+257690118+257901716+257885610+257553163+257395036+257669123+258021804
4047+258085758+257985230+257984556+258031702+257964000+257863326+257871906
4037+257839548+257525432+257115473+257169266+257975508+259201782+260213443
4027+260532859+260071363+259251446+258845938+259348547+260462288+261371225
4017+261557814+261253039+261025219+261094151+261196348+260941705+260183457
4007+259279206+258991356+259714435+260883345+261616643+261740539+261686922
3997+261734653+261805693+261704345+261364285+261048529+261128529+261514798
3987+261759953+261787010+261932487+262274246+262440104+262203060+261928446
3977+262110351+262579958+262674629+262321011+262288038+263052728+264092149
3967+264682285+264868172+265195699+265798895+266188970+265937109+265234616
3957+264593177+264314786+264463396+265063370+266052923+267064876+267491643
3947+267088420+266470231+266577758+267591175+268664154+268886088+268201838
3937+267258757+266840248+267418583+268765355+269900911+270004807+269558362
3927+269715171+270547445+270897199+270265452+269795523+270711165+272715482
3917+274162080+273580524+271202764+268732119+267643826+268061515+269245505
3907+270899893+273496307+277145495+280712633+282758502+282654665+280344636
3897+276437936+272719992+271286542+272851911+275682411+276884966+276218198
3887+276071784+277412320+278633557+278890338+279463079+280225983+279204102
3878+276775742+275671665+276977851+279571952+282546143+285306863+286144262
3868+284628880+283069866+283038299+283198651+281622829+278826501+276743911
3858+276791642+280063376+287192790+294653891+295132283+288979448+282000694
3848+277615981+276810735+279160998+283197480+287281312+290693573+293171539
3838+293811016+292193055+289770259+288062283+286969421+285695973+284346213
3828+283674847+283934703+285277405+288419035+292774787+295056148+294056932
3818+293046941+293473415+292484272+288450397+283966387+282044383+283658918
3808+287555457+290938992+292493204+293785042+295929535+297623455+298018597
3798+298026737+297743280+296397415+294455061+293383019+293822407+295378756
3788+297578418+300132373+302646122+305124204+308493566+313473187+319126546
3778+323655388+326562405+328913576+332336584+338271613+346648327+355068203
3768+361074771+364659625+367161456+369759012+373280556+377694962+381811239
3758+384742531+387349604+391170946+397022871+404326957+410547083+413638288
3748+415353731+418565435+423628746+427110466+426857140+426203959+429311650
3738+437265463+447097998+454520152+458422109+459947389+459803084+459091249
3728+459545981+461817767+464802002+466910302+467305005+466187018+464776760
3718+464524987+466119785+469564228+474239806+478032509+478091133+474104110
3708+468297807+462998624+459751341+458950956+459656260+460526866+461242097
3698+462386380+464478311+467637569+471773700+476494754+480456213+481626030
3688+479820104+477549373+476970423+478402145+481043040+483913189+487375963
3678+493081592+499906173+502091077+498254918+493817058+491309575+488564082
3668+484384759+480611236+478391574+476798445+474902826+473564750+474353745
3658+476959969+478686041+478260651+478523844+482607149+489886140+495216891
3648+493878668+487654940+480885909+475955131+473341264+472480820+472566882
3638+472909139+472975289+472733384+472855668+474330319+477771687+482199562
3628+484527512+483197197+480085054+477854411+478396991+481768052+485670682
3618+488133831+490366055+493579282+495800496+494998558+492809379+491757601
3608+491346413+490011002+488389996+488130844+489681981+492309113+495029129
3598+497210168+498708977+499567137+499856978+500360700+502590582+506939540
3588+511182787+512473044+510783429+507971289+505346558+503744323+503710413
3578+504946907+506622408+508125726+509169012+510065475+511821913+514921024
3568+518046197+519050889+517732228+515750956+514144153+512907776+512205576
3558+512564699+513877153+515239796+516163550+517125723+518531354+520055053
3548+521321181+522455361+523554401+524107553+523225380+520275552+515686593
3538+511247912+508970826+509341429+511186477+513072170+514164651+514430187
3528+514821756+516321560+517968774+517270087+513683594+509712500+507887130
3518+508533693+510183425+511037194+510078769+507765958+505978011+506325949
3508+508329710+509983951+510024010+508664939+506848236+505894263+506734268
3498+508592903+509636014+509429453+509360346+510386179+511681941+511674328
3488+510069457+508413634+508100016+508565202+508223999+506517576+504113930
3478+501780504+500092997+499595249+500380261+501800416+502943615+503149765
3468+502269877+500889781+500159762+500723279+501788059+501937284+501025301
3458+500368138+500560291+500287200+498494568+496349548+495379234+495228545
3448+494884356+494656653+495109950+495511299+494988719+493605168+491646210
3438+489485786+488069643+488069848+488986427+489945291+490574138+490524943
3428+489103617+486177596+482998601+481336980+481697305+482918571+483804170
3418+484276618+484660163+485089859+485616480+485946994+485553551+484588918
3408+483767537+483267387+482816140+482495025+482434908+482396753+482254907
3398+482052094+481696045+481241021+480896538+480418907+479456207+478690170
3388+479354860+481577919+484207598+486001694+486274170+484922098+482714646
3378+481181459+481560613+483778459+486567086+488634595+489581189+489825905
3368+490095980+490887757+492270811+493986898+495370566+495638504+494861456
3358+494263678+494902042+496435698+497640214+497734154+496854968+495545619
3348+494376768+493936180+494567340+495985622+497419774+498296968+498523734
3338+498143234+497310139+496451100+495781169+495030008+494184322+493707013
3328+493541917+492855822+491492124+490531298+490672763+491342196+491699328
3318+491429751+490367344+488414476+486222047+485129742+485976013+488212425
3308+490265000+490826849+490028571+489238962+489474512+490182540+490021602
3298+488833220+487944430+488189263+488782063+488761653+488453335+488623263
3288+489232461+489952846+491031828+492884460+495404652+497861124+499206256
3278+498843736+497194297+495227139+493664612+492916378+493380100+495117563
3268+497394298+499049652+499337560+498306690+496420470+494064965+491720588
3258+490199729+489983447+490519760+490840319+490674578+490362073+490052525
3248+489588159+488901800+488140068+487542172+487379946+487739802+488237228
3238+488289117+487822028+487476286+487877255+488863205+489739463+490104004
3228+489981983+489297498+487945015+486542898+486169162+486854965+487201350
3218+486081285+484098227+482669463+482254643+482220822+482064364+481992328
3208+482177425+482048141+480942805+479089353+477487117+477116310+478100943
3198+479303585+479127069+477294232+475317587+474637319+475043296+475336006
3188+474816647+473706128+472587380+471802631+471267020+470780926+470405785
3178+470231318+469896470+468929729+467642664+466930332+466857447+466279698
3168+464502674+462472969+461515364+461687605+461999320+461634515+460622650
3158+459606743+459074968+458879037+458553794+457911769+457088572+456228801
3148+455389030+454559333+453765155+453228841+453094697+452953320+452244618
3138+451230849+450822706+451241332+451563853+450917582+449596608+448560262
3128+448279821+448475049+448614435+448305385+447460577+446438433+445820128
3118+445743231+445539189+444348698+442265669+440593067+440594004+442008947
3108+443132556+442635218+440945778+439348111+438360550+437677617+437087658
3098+436676440+436520480+436629207+436844084+436764493+436202235+435589610
3088+435511396+436051077+436876090+437640399+438081778+437994720+437348626
3078+436394915+435541177+435054175+434800791+434434757+433917799+433553522
3068+433476274+433404092+433029067+432418903+431837376+431363083+430973564
3058+430775525+430822026+430861499+430489022+429489368+428022096+426575030
3048+425699154+425657806+426289084+427117288+427543001+427156000+426106770
3038+425093235+424788431+425170893+425446268+424832589+423472112+422249293
3028+421668968+421398044+420964073+420361844+419839820+419560258+419568984
3018+419716862+419631181+419099728+418399928+417981683+417869325+417573657
3008+416708410+415592093+414907959+414755045+414491354+413666253+412692777
2998+412304342+412574270+412787039+412315118+411354672+410543804+410093786
2988+409667722+408999724+408334976+408195561+408717496+409309594+409216592
2978+408379368+407395526+406756752+406504569+406479357+406523720+406469254
2968+406182517+405712529+405280462+405039641+404945497+404945731+405089568
2958+405279349+405217680+404807663+404278933+403761214+403126774+402393387
2948+401880704+401799474+401986942+402189198+402336315+402370195+402107294
2938+401495988+400767755+400136331+399544877+398876528+398256231+397924194
2928+397869142+397837283+397683812+397429549+397034847+396467728+395851326
2918+395250034+394640308+394271199+394453513+394831730+394548126+393345630
2908+391986324+391419703+391828783+392537777+392784221+392487820+392081317
2898+391762926+391331854+390701455+390114219+389730117+389409998+389131314
2888+389239953+389893456+390524675+390343415+389311578+388196344+387659504
2878+387613618+387456633+386819411+386023124+385655040+385872113+386431443
2868+387067318+387405768+386978152+385890503+384994450+384926397+385450617
2858+385911381+385854778+385243588+384442617+383810344+383172858+382164360
2848+381079229+380661129+381040048+381557357+381683273+381535542+381388367
2838+381175042+380722594+380170292+379830612+379752925+379700421+379509409
2828+379201032+378759419+378123866+377445209+377043625+377014870+377087139
2818+376949276+376557883+376046547+375489501+374874739+374292510+373987032
2808+374073416+374331163+374438631+374267737+373841936+373216866+372507989
2798+371873432+371413136+371144848+371026897+370986692+371009884+371146575
2788+371327953+371288714+370822005+370062879+369396755+369067822+368939944
2778+368671772+368085619+367323829+366660369+366226135+365970233+365813482
2768+365657552+365281122+364557047+363816398+363591214+363883339+364068347
2758+363677686+362958384+362458088+362329771+362297033+362153518+361981687
2748+361863326+361697234+361424612+361142092+360834242+360276991+359413765
2738+358601520+358263597+358426350+358748109+358917276+358900731+358857041
2728+358866470+358769808+358377009+357798176+357347720+357105229+356818990
2718+356301183+355700067+355279069+355084309+354950663+354738802+354420410
2708+354012355+353626350+353491063+353666467+353815809+353564651+353034750
2698+352673460+352585260+352407455+351886983+351219453+350703638+350407589
2688+350304748+350416345+350671895+350830842+350647122+350079359+349358007
2678+348837975+348739702+349021490+349417510+349557569+349207172+348454312
2668+347552081+346701241+346136787+346144078+346750231+347599080+348224676
2658+348323740+347903005+347312460+346930232+346753716+346515295+346125747
2648+345723109+345406533+345193560+345132974+345262608+345507471+345676022
2638+345523488+344904685+343973728+343173752+342929270+343311791+343965938
2628+344351387+344163011+343564413+342937674+342469472+342144932+342022325
2618+342208182+342582299+342829123+342794452+342630820+342546281+342539897
2608+342458140+342237670+341981680+341793656+341643816+341447299+341201207
2598+340984719+340857486+340804279+340773152+340729784+340687822+340713005
2588+340840502+340974148+340984192+340917018+340931249+341017985+341003138
2578+340797808+340419738+339843014+339096743+338458320+338269271+338553987
2568+338992526+339230946+339116392+338765965+338535919+338736301+339260082
2558+339699499+339847377+339807318+339683804+339525355+339460523+339529630
2548+339525999+339296071+339024356+339013726+339338326+339802487+340109048
2538+340047144+339613379+339000725+338499755+338371292+338675276+339185645
2528+339580055+339747113+339826967+339947700+340039765+339987027+339854961
2518+339816718+339912912+340046998+340181728+340408991+340818862+341328616
2508+341664577+341633801+341405688+341302935+341345542+341283491+341008878
2498+340648231+340345828+340192299+340238038+340418449+340583751+340653444
2488+340637572+340593414+340686504+341097282+341693128+342016527+341797580
2478+341275556+340864602+340728905+340802551+341006418+341311251+341683318
2468+342039572+342253951+342239427+342046014+341853597+341831635+341971343
2458+342084111+342015238+341770639+341409876+341006447+340760765+340907618
2448+341429905+342043320+342474773+342634364+342599546+342533192+342537086
2438+342559839+342534656+342541186+342688654+342923912+343116241+343244909
2428+343347809+343397824+343387545+343407926+343503769+343605907+343700695
2418+343880726+344178853+344532179+344906413+345304717+345660912+345824544
2408+345719068+345518745+345544572+345908469+346420712+346903438+347358434
2398+347784791+348098556+348280314+348401779+348498090+348533317+348472555
2388+348326317+348119844+347828217+347337116+346461591+345046999+343130824
2378+340988731+338896127+336848383+334674431+332417141+330348285+328515360
2368+326575230+324369448+322455878+321594058+321806855+322512306+323552723
2358+325445472+328538229+332616761+337390876+342494685+346959134+349594758
2348+349935844+348553434+346635413+345142256+344415312+344610247+345744339
2338+347369239+348859087+349877395+350389346+350668674+351276818+352513078
2328+353968167+355036666+355663346+356231198+356978699+357930242+359187028
2318+360802997+362489948+363879298+364966830+365978344+367009800+368049485
2308+369043341+369765103+369992513+369896934+369882234+370045222+370146686
2298+370056144+369912600+369887915+369995558+370121298+370166716+370168473
2288+370253803+370474888+370762766+371035799+371256122+371413371+371540546
2278+371690913+371867312+372052994+372267197+372469014+372498590+372249071
2268+371810181+371386987+371196268+371394600+371913374+372408779+372533319
2258+372233903+371744149+371346137+371146810+371043588+370903089+370726778
2248+370602707+370595562+370747656+371074452+371494367+371859171+372114400
2238+372373347+372784946+373339444+373824718+373980034+373728700+373308580
2228+373130922+373378097+373743107+373729608+373239034+372649923+372248046
2218+371861075+371251993+370622736+370401300+370624581+370830907+370601799
2208+370036115+369596346+369567825+369812482+370061210+370236204+370385253
2198+370543409+370787276+371185434+371613928+371861221+371935570+372057181
2188+372382923+372900173+373520763+374138512+374637812+374967770+375220832
2178+375537262+375924790+376273899+376532670+376760724+377039906+377394374
2168+377753761+378019327+378206649+378396489+378569110+378722640+379045629
2158+379636848+380233162+380563647+380732609+380937588+381115627+381170503
2148+381242451+381477152+381764914+381927404+381993993+382141578+382485738
2138+383006005+383553417+383908675+383964342+383856376+383825776+383971340
2128+384223758+384548152+385021478+385631819+386172906+386508486+386793173
2118+387264831+387949315+388678075+389300802+389823089+390350267+390901251
2108+391387052+391823834+392352563+392999771+393695851+394493338+395426521
2098+396266233+396778096+397087527+397485128+398037870+398623466+399158843
2088+399609387+399922303+400098292+400227254+400359729+400454693+400541955
2078+400798970+401341433+402018099+402528410+402734970+402805249+403026422
2068+403498987+404048039+404458144+404746315+405119963+405668019+406229458
2058+406640939+406980385+407419685+407953099+408440862+408852080+409316095
2048+409956831+410779588+411730985+412763524+413768509+414562481+415090918
2038+415543395+416133677+416912130+417877055+419050503+420344743+421550900
2028+422556235+423449184+424349628+425255959+426181997+427345050+428953757
2018+430782436+432290615+433291177+434150099+435256226+436709529+438521546
2008+440660681+442858352+444760531+446334860+447856861+449484455+451087686
1998+452551033+454053561+455885754+458028110+460057990+461538409+462413203
1988+462978360+463658920+464821065+466524063+468441029+470212841+471826380
1978+473517635+475437529+477481700+479347070+480870535+482401408+484507454
1968+487147763+489570443+491324392+492873391+494824560+497086712+499201395
1958+501123633+503159663+505309955+507245955+508965087+510965685+513621807
1948+516776380+520132008+523651386+527199695+530125862+531849563+532744561
1938+533807584+535669206+538307465+541448627+544857374+548212709+551067017
1928+553230076+555103587+557332239+560140983+563289172+566472501+569290497
1918+571144506+571924013+572503050+573887071+576270746+579025726+581303983
1908+582773509+583747747+584604443+585468519+586519945+588078022+590206235
1898+592562033+594647551+596159771+597362999+598909773+600881264+602444144
1888+602949798+602736796+602354011+601975795+601789323+602021418+602551494
1878+603160986+603980024+605202462+606785078+608834344+611551726+614138682
1868+614778041+612997474+610535028+608966585+608336186+608023563+607620223
1858+606972312+606171312+605453708+604779619+603916305+603014923+602578142
1848+602982712+604254931+605645920+605435202+602765024+599126993+596435146
1838+595247554+594980496+594896220+594927084+595513793+596535410+596945252
1828+596196784+594949807+593498027+591210341+588050438+585054636+582991666
1818+581725948+580889164+580477097+580596336+580938007+580758973+579590649
1808+577914094+576810076+577069111+578742972+581143807+583078167+583621948
1798+583056966+582702528+583799050+586435201+588826197+588655127+586344015
1788+584444442+584290005+585278825+586500267+587915152+589553815+590809167
1778+591429376+592394887+595101609+599810042+604622781+606913513+606450611
1768+604762401+603053694+602383528+603551266+605952452+607957033+609222224
1758+610675410+612335625+613754668+615786188+619580590+624297163+627407344
1748+627880846+627076507+626459871+626570033+627478618+629078686+630994072
1738+633086266+636108364+640618553+644689911+645148186+642583075+639692808
1728+637868609+637507026+638472127+640072137+642014345+645419051+651706235
1718+659818262+664918089+663602824+658419893+653480653+651240522+652610604
1708+657003369+662104777+665115220+666031068+667801328+672328618+677678636
1698+680870340+681559187+679683041+675726999+672240301+671100616+672237900
1688+675342165+681242817+689896516+696356058+695220707+689562224+684971507
1678+684151473+687323791+692424906+696591609+699304480+701474977+702275275
1668+700396317+697590268+696711492+698164093+699793327+699709812+698764038
1658+699046734+702149300+708995844+717782838+721721310+719870991+719341618
1648+722470773+725445257+723511248+717951741+713005590+710960541+712810860
1638+718527791+725128418+726481164+721441953+716413928+715374565+717531475
1628+720432342+722667026+724437813+725677001+725432607+724088763+723887883
1618+726111089+728663140+728211834+725756650+724464988+725137496+726726554
1608+728252068+729301562+729681711+729572662+729537464+730093602+731519556
1598+733728705+736082688+737826359+739069119+740810389+743632544+746827176
1588+749213779+750596687+751926124+754232200+757692368+761540415+765089193
1578+768537296+771677696+772635887+771197810+770426971+772302122+775019093
1568+775211129+772878992+770580178+770084187+772486486+778955926+788192528
1558+792367429+787553578+780196461+774640936+771102583+768565115+766878779
1548+767478197+771786452+779164595+787132960+793779209+798021461+797196156
1538+791592900+786809152+785967975+787429712+787687166+786324990+786100802
1528+788786616+794327148+802161633+811629452+820592084+825546844+826072762
1518+825407400+825635688+827095492+830502131+836773151+845528871+855364950
1508+864535080+869539503+867862363+863798970+862466487+865266153+871154389
1498+877161864+879747063+878895872+878908053+883471010+892143333+899736996
1488+901122188+898437428+897409427+900097116+904750497+909272751+913591079
1478+918997438+926251304+934996483+943365202+947589943+946114092+942775096
1468+941630140+943301366+945760473+947145138+948716802+952903534+959170161
1458+963068809+960806950+955365042+950723667+947149355+944728900+944106993
1448+944235427+942736677+939312293+936059857+934383653+933958643+934335512
1438+935909812+938475216+939727581+938133955+935154083+933080161+933151845
1428+935088489+937807686+940011799+940381055+938997738+938106605+939420346
1418+941064397+940221054+937988068+937185545+938011846+938402302+937549061
1408+937110171+938564060+941111426+943035361+944333525+946376817+949520848
1398+952214862+952450237+949995346+946912809+945307293+945808790+948629832
1388+953318705+956532429+954793736+950893917+950566008+954634321+959532565
1378+963426000+967571267+972393728+976325172+978773914+980642974+982208547
1368+982971597+983017044+983590049+985671702+988644253+991359936+993607798
1358+995108363+995080369+994285049+995062097+998542645+1003672399+1008538374
1348+1011735231+1013083175+1013729035+1015459295+1019326259+1024181574
1340+1026272363+1023060045+1018136910+1016885717+1019736217+1023396445
1331+1026143402+1029464301+1034401257+1039194142+1042074628+1044345330
1322+1048276014+1053095370+1055347214+1053599151+1050758606+1050026654
1314+1050911696+1050704608+1048171884+1044966476+1044085417+1047333226
1305+1053544802+1059484751+1062523247+1062547727+1062383627+1065245841
1297+1070503033+1073741823+1072181403+1068241350+1065928832+1065878348
1288+1065522153+1062062571+1055391841+1048417859+1043959384+1041796793
1280+1040065480+1038302658+1037100190+1036144635+1034897776+1033530739
1271+1031570669+1027565256+1021622496+1016372683+1014438029+1016292097
1263+1020036073+1022704318+1022188238+1018794601+1014532203+1010919647
1254+1007640447+1003462266+998535735+994336236+991160696+987337774+981317414
1244+973723341+966485053+960295966+953821080+946023081+938128157+931887532
1234+926993622+921710075+915797769+910877680+907619329+904297903+898928031
1224+892205705+887072731+885445546+886063120+885915534+883618009+880033858
1214+875995942+871689443+868072027+866793308+868317241+871307948+874160967
1204+876556999+879159885+882218293+884972747+886623064+887740729+889663025
1194+892632121+895866811+899270464+903749671+909664027+915924974+920688224
1184+922687944+922527064+922574385+924713257+928348360+931297075+932517990
1174+933205667+935598946+941375732+949903457+958031413+963660672+968660528
1164+975500921+982633908+986264502+985729447+984219043+985059809+989171577
1154+994717029+998538897+999508274+1000301954+1004487982+1012012480+1019155013
1144+1022812430+1023042592+1021533125+1019795369+1018483150+1016840035
1135+1013790412+1010973528+1011813006+1016762495+1021955265+1023878908
1127+1023006047+1021589699+1020574290+1019292642+1018022708+1018563853
1118+1021762584+1027340247+1035571747+1045701708+1052413082+1050277432
1110+1042167045+1034736837+1032097758+1034546265+1038839938+1041059688
1101+1040142786+1037954778+1036548620+1036442734+1037601160+1040123108
1093+1042063852+1040000940+1033588719+1027095209+1025246764+1028353430
1084+1032212547+1033336536+1031997260+1030318889+1028867284+1026350490
1075+1023997210+1025818246+1031819221+1035803316+1033702688+1028940960
1067+1027501068+1030831923+1035105332+1036703702+1036399630+1036532456
1058+1037327659+1037972699+1038957303+1039870222+1037228800+1029213055
1050+1020538096+1016323253+1014971796+1012257518+1009145229+1009954253
1041+1014577884+1018135505+1017952312+1016047293+1014389420+1011400119
1033+1004671761+995810681+989297376+988002961+992010833+998733686+1003604463
1023+1003809091+1001412473+999825816+999517293+1000310036+1002946772+1005544621
1013+1003905490+998424812+994854306+996347493+999924206+1000837594+996696192
1003+987873531+977717450+970248414+966201654+963177858+959039267+953570009
993+947500162+941640389+936528323+932314651+929197384+927615588+927723583
983+927943203+925246847+918986076+912706623+909911115+909883121+909171257
973+906005381+901446582+897469105+895503881+895115591+893870371+889961885
963+884544691+880232044+877943011+876621246+875574036+875421355+876469327
953+878196599+880871228+885486074+891634223+896952850+899561066+900517440
943+902534905+906774405+911686646+915175569+917719070+921209165+925587054
933+929227838+931456432+932844610+934145584+936949116+943419141+953286552
923+963026291+969055201+970138721+966651379+960439803+955126739+953479174
913+954547761+955316082+954739094+953976630+953613582+952861484+950925425
903+948338937+946634330+946952340+949118035+951502881+952367601+952468802
893+954394260+958099759+961190554+963141957+964585187+965893775+967205819
883+968366353+969201849+969806830+971299138+974926569+979731694+982192734
873+979171691+971680107+964681411+962753668+966899755+973793444+978034348
863+977907437+977736718+982165091+989419426+993505542+993426362+994338578
853+998735209+1002852482+1002690372+999770296+998477403+1000237297+1003616879
843+1007549436+1011653590+1014880550+1015435049+1012797844+1009155888
834+1007618778+1009264352+1011808672+1011661204+1008335503+1005274166
825+1005557740+1008751318+1012196727+1014336360+1015439617+1016055258
817+1016915468+1019186990+1022907892+1026640389+1027944175+1026381764
808+1025964543+1028560987+1033167750+1038788283+1042921251+1043586087
800+1043262923+1046193541+1052665265+1059608793+1064709498+1066190502
791+1062125236+1053949255+1045812748+1039280233+1032355915+1023466958
783+1013274098+1003221445+994480893+988117866+986100518+989715416+995451440
773+995668250+987989842+979860128+978492506+983002520+988205012+991205206
763+992274495+991211883+988771457+988320034+992171888+997725188+999133689
753+995147602+991622661+993506362+999422651+1005160549+1008618960+1010688431
743+1014510182+1022844758+1032687864+1034592532+1024756922+1012857815
734+1009100368+1012395147+1014669363+1012566393+1009947226+1011482345
726+1017687244+1024134956+1027052807+1027330174+1027305459+1028097851
717+1027149792+1020374582+1010036948+1005269129+1012230344+1025577074
708+1030759653+1022136701+1011351978+1007683668+1007622760+1004299636+997469842
698+991439117+987585857+983430751+978512419+977412500+983350165+991338853
688+994114624+993111279+994686692+998918167+999194948+990102066+975585314
678+967939820+977086993+1001073964+1023296298+1023876097+999480982+964149929
668+938540341+933790619+939846528+942694627+941300299+940252094+942353952
658+947817939+954681114+961848714+968942930+972814111+969193064+959443721
648+950374909+945804456+943278408+940682609+943578088+958039320+980266749
638+995484237+988074411+962520577+939289160+927550932+923897673+920323244
628+913294914+906454051+905637062+910406579+911474522+903111951+890076146
618+880887333+880714390+888462080+901371150+914946051+920530156+911376424
608+892258473+876319633+873601549+886181715+906564447+921090160+921888290
##END=
