##TITLE=<SNM>
##JCAMP-DX=4.24
##DATA TYPE=INFRARED SPECTRUM
##DATE=29/4/2025
##SAMPLING PROCEDURE=Instrument type and / or accessory
##ORIGIN=Admin
##XUNITS=1/CM
##YUNITS=ABSORBANCE
##RESOLUTION=4
##FIRSTX=4497.3318
##LASTX=599.83466
##DELTAX=-1.4281778
##MAXY=2.1108921
##MINY=0.38065648
##XFACTOR=1
##YFACTOR=1.9659214e-09
##NPOINTS=2730
##FIRSTY=0.39135781
##XYDATA=(X++(Y..Y))
4497+199070931+198983961+199086909+198934390+198743365+198944895+199503734
4487+199954607+200015230+199977392+200246290+200631341+200700331+200751601
4477+201409128+202266987+202276128+201556356+201191347+201188936+200374464
4467+198476059+196877781+196899595+198305742+199851568+200662312+200719281
4457+200478821+200429629+200770247+201205733+201307408+201179446+201320945
4447+201769226+201940831+201463247+200646788+200007301+199795478+200017018
4437+200449548+200627096+200198386+199325474+198527449+198192076+198295570
4427+198391575+197990789+197285767+197084995+197657902+198317779+198500450
4417+198438478+198484851+198608658+198696962+198682788+198358755+197516207
4407+196278012+195061904+194217825+193767892+193627515+194076796+195578918
4397+197822397+199366662+199008050+197381681+196225893+196179248+196407489
4387+196338558+196457803+197110494+197788865+197988757+197822761+197542675
4377+197232118+197075581+197304747+197802918+198183466+198224427+197963699
4367+197549178+197255464+197381242+197781406+197848184+197342464+196835698
4357+196994569+197861570+199016645+199951075+200176693+199445340+198101104
4347+197028769+196972861+197762290+198368699+198064206+197253917+196841656
4337+197326910+198661686+200204723+200840860+200064938+198761284+198086142
4327+198099952+198163607+198038860+197860220+197551695+196980425+196349185
4317+196065309+196436231+197520072+199010020+200292239+200860764+200708381
4307+200267771+200051385+200312204+200809222+200907698+200235133+199185082
4297+198446346+198223653+198330437+198866233+200065438+201430093+201972893
4287+201645676+201531192+202151153+202694847+202450568+201916667+201860137
4277+202198420+202366979+202123821+201633958+201242464+201356312+202174650
4267+203378767+204335541+204694897+204523716+203883183+202829342+201857908
4257+201613917+202041383+202506961+202755152+203074850+203650425+204303312
4247+204690076+204546516+204021483+203690006+203878226+204210006+204207474
4237+203990709+203955569+204157008+204403638+204635881+204835577+204848583
4227+204696776+204750138+205185245+205632555+205770415+205855596+206241253
4217+206763876+207031168+206991677+206850755+206635475+206157482+205336991
4207+204508935+204412673+205552089+207385096+208534153+208170099+206929114
4197+206110306+206253957+206860502+207251723+207256665+207060729+206806141
4187+206540804+206356480+206422318+206838809+207436850+207890270+208138233
4177+208517993+209334619+210427374+211275364+211500527+211268921+211084900
4167+211104123+210958667+210390233+209643978+209125494+209063385+209480892
4157+210044142+210140359+209639112+209241858+209526674+210120015+210425721
4147+210578771+210915448+211130060+210769978+210071081+209640703+209761873
4137+210379894+211207101+211706060+211537486+211030523+210860828+211383906
4127+212384188+213300714+213678473+213497090+213050250+212640459+212525110
4117+212892045+213641893+214352099+214622044+214390331+213923814+213571750
4107+213501789+213654946+213959727+214491612+215344635+216379147+217225485
4097+217611733+217616539+217511999+217399167+217092597+216421260+215679265
4087+215561249+216372659+217519094+218128459+217982504+217481665+216968881
4077+216562365+216457340+216862098+217588130+218068049+217958339+217555082
4067+217399561+217557083+217560388+217104103+216450927+216024977+216009741
4057+216453838+217382431+218655751+219940758+220830634+220900974+220017586
4047+218792277+218227071+218636862+219360499+219728601+219791544+219889489
4037+220076284+220240567+220385825+220570134+220820462+221160186+221543099
4027+221840088+222012224+222136455+222245937+222349613+222478256+222490793
4017+222114035+221425537+220947119+221013942+221370645+221641271+221920676
4007+222488231+223110163+223280177+223163161+223483192+224327848+224923554
3997+224816346+224456081+224325634+224221534+223779954+223245052+223176819
3987+223587186+223910674+223899972+224024461+224683261+225524218+225923760
3977+225706722+225087792+224397672+224060738+224300424+224787376+225047786
3967+225142987+225469750+226059680+226539083+226640455+226452113+226261999
3957+226269881+226409000+226572116+227045910+228312559+230191302+231577181
3947+231525229+230388406+229298273+228794418+228525519+228164982+227948914
3937+228142606+228695927+229577708+230765831+231661119+231308600+229770203
3927+228466064+228578911+229611983+230160559+230023942+230364423+231760322
3917+233232837+233489275+232446349+230977215+229784756+229054509+228978924
3907+230153404+233021742+236914390+240204100+241838048+241846886+240378116
3897+237686734+234808073+233168970+233539013+235133198+235979096+235473285
3887+235264342+236505963+237987710+238231808+237800809+237344070+236185977
3878+234532595+234117983+235676695+238044437+240269013+242355699+243448120
3868+242716903+241502721+241500826+242231694+242006728+240640769+239277478
3858+238913105+240616938+245761015+252748590+255237957+251452107+245680125
3848+241584203+240385453+241410885+243140156+244548940+245933955+248101304
3838+250513205+251339199+250189490+248647499+247867317+247451523+246790844
3828+246081911+245586636+245506291+246680346+249425301+251723264+251877376
3818+251456367+251759329+251185679+248506410+245440529+244341180+246120492
3808+249570711+252040097+252806545+254017271+256592061+257971360+256490159
3798+254338212+253218352+252287530+250765929+249509467+249397165+250198525
3788+251347219+252560598+253566246+254415283+255920133+258474442+260737508
3778+261067075+259908467+259035797+259661974+262081365+265775879+269568869
3768+272650758+275154496+277372538+279563506+282408210+286275117+290117618
3758+292512571+293923220+296419530+301669951+309407374+316552485+320067329
3748+321510389+324570631+330284750+335146482+336143338+335704927+337679932
3738+343828855+352799470+360903570+365504802+366806394+366308072+365688595
3728+366727534+370579707+376559450+382524791+386923887+389709136+391742233
3718+394164261+398036110+404147255+412592504+421620876+427796692+429795407
3708+430125186+432056442+437018196+444019475+450549810+454740099+456531160
3698+456544136+455705818+455833279+458625258+463946292+469432989+472010704
3688+471156984+469401093+468770004+469674630+472116123+475971237+480911859
3678+486897726+493134665+496534297+495623758+493701447+493901158+495008345
3668+493914923+491012370+489194719+490161772+493196910+496745377+500425126
3658+504297521+507388506+509267825+511828441+516828337+523047660+526807814
3648+526430344+524340641+523258862+523889799+525352323+526803691+528545271
3638+530693853+532184150+532780402+534329882+538561980+545320859+552230727
3628+555039837+552401483+547950239+546309257+549675083+556258294+561766032
3618+564200339+565848537+568963323+572741487+575463096+577749629+581058456
3608+583953065+583646359+580679166+578174822+577590940+578183493+579137872
3598+580420970+581399483+581170029+580923718+582887961+587209743+591794694
3588+594495929+595102914+595378756+596572412+597705492+596725402+593494677
3578+590643787+590651003+593480063+597359674+600749755+602997237+603706579
3568+602573500+600312314+598849001+598773931+598549571+597320380+596305060
3558+597168179+600351728+604951111+609157135+611130534+610663319+609697055
3548+610406154+613105995+616693998+620882680+625524509+628393348+627376815
3538+623966177+621288651+619955588+618477237+616655614+616064517+617471618
3528+619626143+620758373+620225912+618806318+617836658+617851878+618181263
3518+618229167+618617310+620133075+621913039+622121755+620420317+618434972
3508+618201759+620835262+625841282+631186813+634528869+634794585+632737081
3498+630034269+628303664+627998231+628168988+627998231+627571341+627151363
3488+627183319+628720125+631974560+635131185+636305195+635824822+635065211
3478+634342165+633355587+632673351+632576512+631689441+629529701+628048561
3468+628929083+631088762+632124032+631067296+628906041+627569158+628647360
3458+631919379+634903187+635037257+632661951+630629794+630655929+631435307
3448+631151765+629916510+628950367+629401331+631781549+634612125+634865228
3438+631597028+627730091+626774013+629229483+632621930+633936983+632295819
3428+629669108+628785129+630533076+633213877+634668094+634578714+633963300
3418+633158090+632139980+632031014+633514216+634740496+633476317+630506092
3408+628159892+626884192+625391955+622899072+620096025+618469414+619360609
3398+623233489+628795377+633256262+634539906+633166943+631537179+631130966
3388+630891507+629134524+626608836+625766333+627463830+630442908+633476075
3378+636042148+637598844+638197824+638946278+640589928+642914663+645579636
3368+647816992+648209743+646264117+643367506+641031553+639743726+639513666
3358+639867246+640002165+640022964+641198368+643658447+645099384+643351619
3348+639388388+636491354+636771622+639353643+641422910+640987955+638996122
3338+638256825+640240351+643354045+644642599+643102701+640319362+638278837
3328+638109233+640218400+643931317+647335952+648646275+647767936+645917996
3318+644116263+642600255+641210435+640268486+640793186+643499575+648149894
3308+653528291+657530451+658002335+654533242+649640918+646734424+646698769
3298+647521443+647426302+647235596+648451567+650103767+649700040+646955873
3288+644119113+642999070+643554756+645008852+646814102+648682173+650668427
3278+652785295+654385407+655021135+655483317+656325152+656506763+655542620
3268+655145139+656593596+658561780+659072654+657767485+655937191+655087776
3258+655268234+655357978+655234398+656262695+658691848+660749655+661232029
3248+660131209+657037708+652683181+650749075+653979497+659472076+661329535
3238+657774215+652214329+648155472+646901117+649190622+654778705+660421968
3228+662209269+660442706+658508237+657588239+656348073+654705211+654184878
3218+655299887+657357391+659638345+660936298+659764835+656492695+653379546
3208+651687992+650382277+647942755+644208432+640478112+638483368+639180279
3198+641831913+644348869+645204106+645002061+645181427+645340481+644199700
3188+642268869+641087462+640629100+639422164+637188689+635356880+634730915
3178+634462774+633484746+631953215+631032975+631546638+633268572+635400721
3168+636880285+636312593+632952891+628148977+624806557+624827720+627198782
3158+628893974+627800188+624398585+620511759+617504605+615819721+615072845
3148+614370901+613149957+611751891+610818492+610566905+611219611+613312952
3138+616658950+619715644+620825074+619697331+617167459+614153090+611505034
3128+609992483+609484277+609115659+608835633+609409753+610520760+610598558
3118+609201158+607747851+607086958+606230509+604281365+602062080+600839621
3108+600644245+600621688+600058059+598778418+597383141+596851650+597275630
3098+597731020+597729747+597857935+598526832+598965668+598180711+596341685
3088+594507208+593341445+592558367+591397880+589383611+587008547+585732665
3078+586583354+588676573+589798980+588839810+586796921+585183589+584618141
3068+585033511+586057260+586887635+586841186+586346927+586485909+587515964
3058+588680575+589275493+589084909+587894951+585576644+582761531+580572807
3048+579514373+579320453+579678883+580271437+580495615+579963154+578908601
3038+577777219+576861769+576328217+576115135+575774411+574926269+573765478
3028+572812857+572352252+572262326+572256929+572039057+571346148+570162376
3018+568869577+567855651+567006175+566032027+565090867+564484124+563964033
3008+563017537+561701998+560531869+559680635+558894040+558109447+557730218
2998+558216291+559487200+560680978+560683585+559221121+557215948+555677444
2988+554604578+553546144+552662711+552398694+552723773+553260176+553556513
2978+553240711+552495229+552032198+551983991+551444921+549749061+547525531
2968+545999033+545800929+546480437+546807518+545940275+544483208+543833412
2958+544462288+545340567+545060420+543302103+541168378+540091935+540359166
2948+540695099+539551651+536874125+534150636+532735773+532726919+533484953
2938+534476868+535251335+535321068+534643137+533709192+532821575+531815290
2928+530644615+529624989+528942328+528382155+527616420+526556288+525459956
2918+524757951+524627701+524687672+524279154+523085862+521430205+520013401
2908+519323828+519235903+519237540+519055141+518918221+519170353+519718762
2898+519965134+519339169+517870944+516202069+515013324+514372806+513663949
2888+512369634+510856780+509948182+509943695+510577724+511593287+512814716
2878+513812755+513935243+512740859+510370889+507550864+505174647+503787890
2868+503363030+503442648+503610494+503897068+504493745+505090876+504956867
2858+503788617+502071686+500565896+499691074+499318212+498986128+498355373
2848+497538581+496939267+496718484+496495003+495738637+494536855+493557250
2838+493153493+493071814+493051894+493032399+492798306+492141841+491262258
2828+490459655+489713264+488893864+488002609+487102318+486431936+486387580
2818+486906458+487182088+486520316+485247679+484213227+483568828+482639614
2808+481065636+479514126+478845138+478949526+478909475+478181305+477137606
2798+476369597+475859117+475127218+474096465+473313479+473064469+472800058
2788+471958404+470883446+470249811+470058104+469889774+469687273+469643554
2778+469702433+469596984+469089293+468085282+466782174+465507141+464343682
2768+463319357+462732746+462713009+462777315+462377772+461496310+460411589
2758+459437897+458926568+458928266+459011946+458857501+458609705+458317218
2748+457640317+456493382+455360788+454535234+453613569+452251096+450879437
2738+450068133+449643092+449063697+448327614+447932497+448105831+448458743
2728+448399985+447764622+446900259+446139436+445460443+444713657+443882828
2718+443093141+442513564+442167716+441840544+441325304+440652921+439969744
2708+439408541+439042106+438707294+438083118+437172853+436340356+435720849
2698+435076662+434332575+433767551+433572995+433606649+433649004+433569872
2688+433179000+432309241+431205662+430398936+430030409+429760116+429367910
2678+428904910+428363019+427789324+427495837+427563903+427455452+426704755
2668+425675973+425098155+425157792+425494787+425787486+425889328+425631223
2658+424936495+423957617+422840395+421679695+420800779+420513568+420515569
2648+420200434+419596542+419300477+419468747+419525565+418980613+418085476
2638+417428071+417098322+416644053+415913428+415440270+415622609+415991954
2628+415820682+415115494+414446234+414060152+413710333+413196002+412621246
2618+412157761+411843414+411567481+411146988+410546339+410021610+409829448
2608+409843638+409714115+409362658+409059469+409017083+409125594+409127231
2598+408902386+408493808+407973566+407467209+407222232+407385227+407683110
2588+407577297+406877324+406032305+405624363+405695825+405806762+405664627
2578+405420590+405355404+405526070+405750187+405791027+405576187+405240071
2568+404885067+404422551+403794464+403189450+402875952+402958025+403361328
2558+403906917+404366370+404584727+404576299+404429555+404172814+403819174
2548+403462714+403225469+403170319+403302782+403549639+403710875+403581868
2538+403190723+402838993+402873314+403391798+404097744+404467666+404218990
2528+403647357+403320579+403360782+403288229+402794091+402340186+402545506
2518+403248511+403706327+403565647+403168196+402981280+403085547+403232836
2508+403250542+403260972+403427787+403642597+403675462+403492275+403207308
2498+402931890+402842177+403088276+403443371+403413446+402927555+402514672
2488+402577129+402931830+403240143+403393496+403352444+403129145+402994499
2478+403268431+403893850+404477398+404685083+404508778+404236423+404165932
2468+404350786+404666103+405006160+405329906+405662960+406058531+406418720
2458+406502279+406256089+405917275+405686093+405526918+405321477+405021199
2448+404676594+404464452+404632055+405219060+405799243+405780142+405148265
2438+404572660+404545222+404844045+405050729+405130013+405271027+405526282
2428+405758525+405756372+405425744+404933183+404551073+404401207+404456205
2418+404636724+404779739+404723861+404562018+404571053+404765216+404815363
2408+404595036+404507929+404996549+405932434+406763749+407167567+407330622
2398+407591001+408019620+408484470+408954717+409463226+409859525+409902335
2388+409525319+408769377+407592457+405932040+403753079+400890517+397061356
2378+392219119+386792181+381360392+376134045+371048892+366358219+362577205
2368+359657735+356918964+354160578+352117142+351514978+352434339+354639587
2358+357877649+361871896+366647886+372796506+380425023+387748168+391839647
2348+390893636+385692574+379433109+375293270+373698100+373211390+373066466
2338+373339761+373911303+374408291+374770360+375357910+376549929+378352178
2328+380373572+382146138+383459797+384459624+385542404+387066810+388982694
2318+390830845+392276392+393512343+394897585+396379453+397681894+398934066
2308+400570561+402584739+404403177+405655622+406672914+407978083+409581621
2298+411072373+412189626+412989833+413599850+414097566+414522243+414832103
2288+415010045+415231252+415659931+416131118+416305967+416044163+415456855
2278+414777650+414260470+413980990+413772244+413544397+413452470+413550188
2268+413602337+413456775+413290052+413303695+413453107+413626349+413861806
2258+414232061+414689452+415195809+415838783+416646024+417420703+417898287
2248+418000128+417881854+417762974+417705156+417577755+417241336+416646903
2238+415771990+414693394+413719337+413201551+413198852+413446437+413599396
2228+413475027+413170292+412971066+413079365+413454987+413932722+414374469
2218+414670564+414763431+414795447+415064407+415651806+416255122+416559646
2208+416620617+416770301+417319711+418336638+419512376+420361428+420726346
2198+420921085+421324660+422046372+422958093+423867206+424665989+425333278
2188+425824930+426157953+426547612+427121429+427591463+427597375+427258197
2178+427053787+427302311+427971268+428849365+429732617+430477068+430972509
2168+431185591+431245168+431337004+431501575+431685520+431938440+432396650
2158+433124942+434083657+435175290+436266741+437271299+438249721+439305851
2148+440325537+440991493+441207121+441331641+441795915+442664431+443736266
2138+444883413+446143832+447628126+449395750+451325550+453180826+454910552
2128+456730810+458796773+460967244+462987335+464745802+466274695+467628678
2118+468862447+470056407+471249639+472349124+473196508+473750375+474144521
2108+474596849+475355186+476642831+478468335+480495459+482226791+483307055
2098+483646111+483445915+483132448+482946775+482517186+481158412+478724166
2088+475868607+473361352+471385831+469517973+467234077+464468475+461726249
2078+459583549+458118477+456973725+455895584+454941326+454185050+453537711
2068+452906107+452312431+451847157+451622615+451680646+451878477+452022006
2058+452131064+452366854+452693631+452867965+452831825+452901286+453409613
2048+454265092+455057538+455622077+456313288+457617366+459613595+461938117
2038+464231229+466524584+469159118+472346669+475862179+479214969+482103878
2028+484644484+487163350+489803826+492336125+494378833+495822560+496958186
2018+498112003+499219554+499852916+499697714+498922792+497994396+497230237
2008+496641838+496114986+495550296+494814789+493782429+492523981+491294063
1998+490299753+489678670+489619791+490169685+490981869+491610865+491998554
1988+492381542+492937743+493809079+495167095+496986867+499026240+501161906
1978+503382616+505377087+506670038+507383230+508346524+510189885+512691561
1968+515131265+516985692+518293044+519564560+521281703+523452478+525829058
1958+528353959+530978123+533340271+535162561+536680448+538326524+540342005
1948+542870301+546001156+549514332+552805028+555261226+556816284+558001633
1938+559376900+561162321+563334552+565686877+567851527+569668966+571414427
1928+573374485+575520945+577775461+580165017+582668997+585304137+588084020
1918+590488979+591623089+591475739+591166910+591638551+592870106+594361556
1908+595851367+597304311+598515250+599118536+599003748+598541870+598300228
1898+598601841+599393407+600424372+601580797+603019552+604725841+606054781
1888+606261980+605436032+604287308+603344328+602772089+602506616+602351626
1878+602203063+602118716+602057411+601976217+602274373+603380772+604582796
1868+604149478+601491478+597931671+594833682+592603542+591218392+590419973
1858+589480874+587725408+585342703+583155920+581747181+581056818+580717004
1848+580756479+581662530+583195395+583602639+581617779+578408702+575696613
1838+573892818+572510638+571273808+570570287+570815021+571416852+570956429
1828+569087570+566974704+565215296+563197571+560672610+558465209+557350443
1818+557220193+557476630+557812807+558343085+559120159+559871644+560236684
1808+560065382+559591012+559537348+560693409+562946954+565030047+565782078
1798+565497808+565527945+567026670+570061656+572995013+573658513+572301923
1788+571141556+571455782+572941531+575018560+577762302+581255407+584874457
1778+587955650+590721100+593946853+597774861+600999765+602276132+601910849
1768+600895893+599789069+599406687+600638182+603099594+605315969+606833795
1758+608314148+609660672+610519850+611899544+615277194+620546080+625667069
1748+628808899+630044153+630498937+631242054+632769704+634627709+635826520
1738+636631488+639212175+645295548+652655227+655985580+654595336+651758878
1728+649383814+648046688+648156806+649876557+653117894+658143743+665479712
1718+674210110+680471092+681186012+678514793+676358753+676510650+678611692
1708+681557601+684559297+687384597+690607925+695484058+702436675+709384502
1698+714050222+716693670+717537567+716868428+716739694+718525054+721284502
1688+723931770+727532689+733216155+738403058+739843814+739462462+740179263
1678+742645405+746244384+749669756+752025295+754439956+758370806+762568341
1668+764257045+764001032+764843050+767895317+771567850+773948796+775125656
1658+776513960+779683320+785955762+794450642+799539736+799146318+798547215
1648+800179162+802122970+801714453+799346483+796818733+795068603+794959940
1638+797310627+800813859+801006991+796196164+790969058+788944723+789825489
1628+791409289+792332622+793059306+793880343+793815885+792378282+790425622
1618+788468837+785738496+781700074+777479436+774319779+772473355+771651652
1608+771460400+771388362+770803328+769398652+767423494+765369750+763923658
1598+763954280+765595869+767506871+767985850+766725492+764807637+763390591
1588+762870742+762930228+763062479+763136215+763370520+763874178+764691697
1578+765990136+767213808+766801653+764968509+764148321+765471440+767085741
1568+766402231+763920869+761860637+761520822+763964043+770739901+780717559
1558+785291170+780039870+772193208+767106964+765546873+765981040+766360634
1548+766003052+766199579+768836842+774684637+782856863+790654893+793511907
1538+790625545+787182890+786693361+788493942+789712702+789602402+790912240
1528+795902677+803445967+810086542+814261580+817419601+820977710+824874420
1518+828780894+832225974+834414031+835824165+838446692+843815690+852065230
1508+861961816+869563500+870891530+868920981+867902872+868382214+869952856
1498+872891974+876371981+878281771+879124880+881821385+887512431+894041129
1488+898786406+901568411+902984366+903487903+904435066+907176262+911709307
1478+917563105+924663678+932188777+937904261+939887968+938537259+935752768
1468+933247029+932684977+935345949+940593065+946463478+951690826+955188176
1458+955596511+953749846+952943605+954112400+955934689+957910210+959969169
1448+961071444+960016406+957243557+954773170+954869403+958563886+964578799
1438+970146872+973520581+975831308+978848164+981965860+983437783+982995794
1428+982276568+982648885+983916944+985076886+985854263+987665031+992135255
1418+997908344+1000918833+999705044+996469165+993730395+992677176+993205756
1408+994306334+994589997+993056344+990065381+987721425+988458114+992740300
1398+998069156+1001533398+1003234654+1004712702+1005450907+1003728003+999538108
1388+994538940+990448977+988900407+991168869+996660053+1003141999+1009012230
1378+1014094108+1018327420+1021174246+1022182897+1021203353+1018530193
1370+1015332818+1013273314+1013723065+1017278142+1022912249+1027826585
1361+1030168419+1031470921+1033476458+1034801153+1033564625+1030983150
1352+1029579262+1030181881+1032983957+1038697014+1046329261+1052331076
1344+1054582318+1054704685+1054182714+1052110960+1048109225+1044277518
1335+1042861138+1044674453+1049744507+1056628846+1062155988+1064842852
1327+1067100521+1070873409+1073741823+1072612867+1067649415+1060504818
1318+1053182917+1048756110+1049825398+1055951884+1063641373+1068536304
1310+1067652325+1061801256+1055735165+1054007228+1056968418+1060894720
1301+1061943755+1059974965+1057324241+1055168079+1053523216+1052906165
1293+1053381688+1053213963+1050106030+1043485345+1035366298+1028458310
1284+1023488551+1018993466+1014038503+1009094152+1003694410+996639436+988529727
1274+981316671+975897404+971942662+969041989+966031561+961004379+953487526
1264+945381820+939265156+935829475+933018546+928133862+920917834+913405530
1254+906929405+900901273+894606941+888616768+883538529+878550760+872140064
1244+863657614+853705545+843857106+836004562+830664064+826188443+820912524
1234+815447172+811502254+809389024+807908490+806069646+803995346+802204528
1224+800684337+799147227+798172958+799150502+802510022+806798514+809978000
1214+811221258+811292447+811726493+813570915+816552600+819731844+822888773
1204+826693738+831542949+836866772+841546379+844825856+847220810+850196250
1194+854200532+857695941+859253122+859856711+861588286+864725932+867678572
1184+869460173+870855208+873351002+878210400+886068886+896426805+907698415
1174+918062458+926294109+932205756+936653059+940814029+945456707+950742389
1164+956053721+960183281+962513231+963299704+962176691+958518650+954322328
1154+953397176+956972567+962550038+967003283+969188126+969051812+966860360
1144+964157548+963453967+966076918+970674118+974433787+975916868+976423922
1134+978232507+982108480+986406796+987957488+985453871+981679043+980811012
1124+984259851+989945318+994722916+996164763+993856704+990442428+989245618
1114+990401315+991066573+989417648+987246691+987358507+989313957+990081390
1104+988209074+984961977+982726865+984017785+989345731+994540638+994651727
1094+991068392+989610779+991486430+991497042+986491870+980586651+979254074
1084+982229149+984221043+981722338+976877979+972273381+967201266+961112557
1074+956226296+954734302+955457772+955011902+951409952+945312935+938408828
1064+932665997+930305062+932028875+935574917+937738295+938020200+938626579
1054+940817910+943229963+944348126+945000589+947001518+950320592+952714393
1044+952115170+949155860+946615922+946691173+948671363+949232991+946615497
1034+942925743+941026686+942031153+945398677+948986438+950218054+949113110
1024+948111615+948373086+948568279+947529431+946152042+945430754+944356494
1014+941645314+937883219+933924900+928818646+921456602+913175106+906618454
1004+902352459+898022672+891512954+884132052+878773059+875669552+872277045
994+867163696+861721265+857546045+854136256+850084251+845720447+843205552
984+843592846+844902078+844423464+841797298+838284728+834682960+831098170
974+827917532+825695821+824328680+823119985+821257311+818265620+814439613
964+810545510+807192235+804698624+803037571+801901278+801392587+802366249
954+805487098+810443335+816364077+822149961+826542144+829285462+831807876
944+835340578+839424902+843415298+848078472+854225030+861007133+867220332
934+873003790+879297940+886504994+894193330+902007611+909771624+915700855
924+916631525+912378931+906828989+903060588+900771205+898889794+897359961
914+895791259+893752796+892730199+894131479+896023260+895383106+892546830
904+890321723+890374418+892716737+896981641+902189767+906440725+908574875
894+909068346+908836102+908400783+908310615+909544171+912755431+917270952
884+921271293+922812768+921025224+916476838+911092923+907698475+908364037
874+912898779+918968145+923955731+926696927+926549516+923440794+920268585
864+921339935+927991545+937025496+943182605+944153054+942610548+942571921
854+944570667+945562520+943737624+940863752+939782094+941835292+946838402
844+953230543+957541411+956797081+952366090+948271881+946616467+947338361
834+950531066+955730642+960320080+962063055+961548118+960338757+959769913
824+961321030+964994108+968281772+969316679+969432133+970822378+974284436
814+979614081+985476307+988808783+986939742+981856530+979153415+981597242
804+985922723+986992254+984403017+981437098+979885071+979610139+980424142
794+983091299+986276000+984744408+976356917+965172323+955846521+949130877
784+942945329+936482545+931221967+928154297+926118927+923055198+918654647
774+915310529+914864659+916079721+916743705+916267819+914999821+913503278
764+914229902+920108501+930294935+940250522+946356088+949130817+951594533
754+954891717+956543190+954802216+952611067+952468568+951778448+948054434
744+944076165+943719493+947340787+952977926+958406349+960896261+959123695
734+956495832+957772987+963892257+971893242+977385396+977244959+971707266
724+963082317+952960159+943474516+940498894+948753467+963653526+974424510
714+976672780+976485348+979963961+984724155+984219163+976845234+967796245
704+962668221+961930925+963108210+964909154+965991662+963831559+956921449
694+946259917+934858723+927619350+927630629+931699733+934031926+932997868
684+932358685+935590137+941445452+945134599+942795675+934134707+921206107
674+907092824+894142697+882992788+874326363+873011127+884272065+902480405
664+917180116+923243297+920591966+912105393+903765018+901192032+903619487
654+905542981+903579284+899409642+896200383+894744346+892316588+885865810
644+876488830+868987077+867492838+872583933+882157501+894389675+908653825
634+921559686+925088083+915167727+899355432+888097041+884427844+884496000
624+884107918+882633023+881223678+880185133+877845845+872758631+864659352
614+855979526+852546634+857356491+865167073+866677623+861485444+858615636
604+864209661+876920208+887371085+885444862
##END=
