##TITLE=<SNM>
##JCAMP-DX=4.24
##DATA TYPE=INFRARED SPECTRUM
##DATE=29/4/2025
##SAMPLING PROCEDURE=Instrument type and / or accessory
##ORIGIN=Admin
##XUNITS=1/CM
##YUNITS=ABSORBANCE
##RESOLUTION=4
##FIRSTX=4497.3318
##LASTX=599.83466
##DELTAX=-1.4281778
##MAXY=2.1978726
##MINY=0.65685958
##XFACTOR=1
##YFACTOR=2.0469284e-09
##NPOINTS=2730
##FIRSTY=0.66107488
##XYDATA=(X++(Y..Y))
4497+322959452+323566148+326434958+329691635+331142900+330578689+329665690
4487+329610276+329960025+329894071+329640298+329783418+330052216+329856711
4477+329416081+329396950+329759803+329803801+329229224+328440272+327941957
4467+327972474+328639213+329986087+331706412+333004074+333304175+332880842
4457+332274176+331652571+331020833+330376253+329456615+328139064+327164828
4447+327637110+329536168+331087515+330390405+327568185+324657268+323672083
4437+325073700+327876469+330431143+331371601+330740504+329810441+329446947
4427+329406064+329195679+328597573+327401449+325765453+324763873+325457286
4417+327391083+328673283+327782851+325230011+323264533+323831889+326563723
4407+328788856+328282796+325909796+324318876+324684844+325916988+326613487
4397+326716219+326895418+327282964+327533271+327567253+327542619+327411321
4387+327068240+326781009+327039441+327925563+328914010+329452509+329313465
4377+328467091+327236373+326353483+326331440+326929895+327737396+328822110
4367+330188697+331084138+330715723+329394853+328168358+327388841+326436997
4357+325088172+324303268+325007105+326796559+328566707+329729082+330139253
4347+329551659+328010824+326458690+326117939+327175398+328703479+329985563
4337+331041100+331648261+331178309+329719269+328104558+326751919+325615664
4327+325082582+325830243+327730000+329459498+329543477+327773242+325350448
4317+323508114+322606238+322655653+323739348+325509205+327010438+327551034
4307+327253757+326645373+326297254+326591386+327253204+327573397+327518275
4297+327841555+328701092+329197834+328762824+328071450+328065131+328788332
4287+329685549+330296467+330229610+329200949+327527884+326034600+325309361
4277+325389700+325959823+326580641+326928847+327094738+327470112+328268615
4267+329311718+330124140+330150406+329195591+327770475+326620971+326032766
4257+325915795+326203811+326672046+326644587+325539489+323767681+322615964
4247+322833687+323588162+323520547+322711998+322714881+324568863+327451738
4237+329495227+329716095+328716583+327483856+326331207+325433758+325323192
4227+326127112+327255010+328236176+328978014+329291102+329086308+328775200
4217+328835476+329259537+329692246+329814110+329499187+328904721+328253269
4207+327491544+326621291+326221283+327014486+328827294+330461106+330819387
4197+329935653+328768182+328254609+328579840+329051598+328825139+327952469
4187+327243478+326837850+325815013+323742609+321665313+320900123+321557253
4177+322772828+323922886+325014210+326146185+327293709+328478447+329603462
4167+330300602+330414982+330336535+330232085+329536459+328155051+327329292
4157+328004068+329240231+329594406+329182663+328982906+329097751+328893685
4147+328066179+326961315+326403160+327110841+328622499+329220139+327774232
4137+325382246+324393887+325945554+328873273+331110723+331848338+331687572
4127+331161536+330341572+329479095+328845435+328298520+327745811+327503395
4117+327744821+328146461+328356060+328341092+328177735+327900317+327443905
4107+326657865+325734528+325391535+326070009+327219280+327927747+327876381
4097+327369273+326924916+326988657+327630791+328430459+328814627+328553545
4087+327989189+327638129+327323119+326160104+324030218+322430271+322940816
4077+325223518+327318431+327822831+327132447+326567770+326857185+327620279
4067+328007825+327602167+326700757+325915270+325749699+326443490+327871577
4057+329570325+330871831+331071121+329906970+328077623+326816564+326774603
4047+327599139+328451337+328613094+327969184+327229851+327189463+327750063
4037+328284601+328683795+329256014+329873076+330012207+329539895+328932413
4027+328722261+328947934+329298324+329635581+329935798+329884403+329188952
4017+328252978+327840303+328079720+328320855+327918662+326913152+325963666
4007+325770782+326455051+327377048+327826093+327822074+327816134+327916769
3997+327944753+327761157+327086439+325777450+324600166+324635546+325859915
3987+327341377+328408183+328635428+327612737+325789068+324669528+325396864
3977+327601061+329829601+330815631+330312249+328878805+327141125+325502362
3967+324410397+324414095+325693849+327739434+329699613+330997043+331488427
3957+331204574+330301737+329234378+328654763+329002241+330058681+330882401
3947+330587832+329442550+328669526+328998135+329854527+330216943+329928169
3937+329596503+329782137+330806808+332644308+334375349+334585414+333180012
3927+331727698+331466267+332002815+332363571+332607123+333512027+335106180
3917+336246104+335681194+333365296+330524353+328563620+328031062+328613443
3907+330105795+332823361+336720220+340762005+343790330+345141484+344183961
3897+341067784+337692914+336290539+337210731+338395440+337955655+337175992
3887+338234325+340271756+340463302+338978550+338560312+339320582+338739540
3878+336512514+335010873+335570221+337489255+339701984+341343746+341292059
3868+339762959+338838283+339796883+341461998+341913169+340913308+339442562
3858+338766010+340678841+346611356+353281631+353137346+346862304+340627679
3848+337288333+336686879+337696059+339442125+341480489+343566404+345555236
3838+347012325+347233659+346171309+344311852+341955217+339692141+338647000
3828+339090745+339718669+339721377+340562074+343565006+346523183+346357845
3818+344069989+342105966+340737691+339328590+338613134+339790360+342825120
3808+345845845+346649851+345882797+346156603+347972760+348895426+347639288
3798+345679633+344071067+342837292+342000323+341549239+341306124+341437800
3788+342556176+345014932+348386279+351853370+355100496+358225903+360803756
3778+362142825+362605673+363477469+365813721+370007652+375592427+381202914
3768+385650415+388576852+389865516+390114892+390916191+393020713+395084993
3758+395701618+395899715+397833250+402603215+409318247+415021857+418097849
3748+421049096+426990172+435713516+442447591+444002054+443430651+444672812
3738+449141482+455515151+460886192+463414717+463391305+462304931+461999181
3728+463715430+467109548+470350966+471919639+471968909+471367862+470136650
3718+467642107+464542295+463517333+466858484+472729382+475505216+473192812
3708+469339195+466767778+465851109+466505182+468410588+470145036+470575707
3698+470643991+472320318+476717792+483415206+490632280+495462667+495207176
3688+490412431+484755120+481206525+480682382+482498946+484938891+486966160
3678+489675893+494220098+498462280+499901286+499811425+499322865+496589400
3668+491063941+485590255+482212793+480564508+479768422+480076501+482177529
3658+485438457+487848730+488639138+489625284+492500442+496242883+497562792
3648+494644538+489011454+482895082+477814911+474701879+473824463+474819141
3638+477081780+480100554+483331110+486226623+489099103+493015442+496904410
3628+496657597+491945957+487338185+486125929+488535998+492683427+495814600
3618+496178821+494852448+494309610+495488466+497389126+499252397+501374594
3608+503302218+503800620+503120807+503100423+504942845+507815208+509977357
3598+510872128+511180091+511397435+511333606+510950225+510909225+511837949
3588+513285574+513654105+511790776+508459380+505576651+504609199+505689924
3578+507681260+509003266+508937457+508437016+509370690+513069802+519224874
3568+524930056+525903564+521602620+516133593+512779834+511508379+510727930
3558+509686807+509109376+510008281+512166994+514095841+515103885+516346163
3548+518621585+520511645+520007711+517325728+514620741+513425637+513442176
3538+513285982+511983078+509772126+507740954+507102956+508542369+511566035
3528+514450395+515322744+513768019+511099606+508751852+507207609+506506772
3518+506471246+506264618+505180457+503910574+503677214+504520327+505506241
3508+506216862+507221237+509060164+511140372+511882093+510292600+507319368
3498+504898759+503953903+503864449+503592827+502857279+502147123+501883130
3488+501987201+502575407+504190117+506425355+507363338+505877975+503606396
3478+502784656+503354283+503617578+502737367+501506853+501133256+501879053
3468+502560847+501575865+498903026+496359301+495496794+496042952+496596563
3458+496130367+494573429+492630255+491246168+490905649+491243198+491313840
3448+490450518+488980821+488055650+488654920+490373528+491482615+490869658
3438+489259665+487828696+486738303+485695520+484996022+485133784+485804600
3428+486118562+485727755+485224112+485241321+485460821+485020511+483873599
3418+482881541+482524279+482450317+482315525+482188944+482104528+482121068
3408+482688540+483895321+484736426+484303367+483348727+483391300+484662172
3398+486083153+486571364+485608716+483347796+480804333+479391272+479818507
3388+481587868+483419661+484092254+483270222+481583966+479761142+478232333
3378+477689320+478871118+481365486+483631503+484693941+485074847+485795457
3368+487104650+488335280+488808203+488772620+489209522+490653129+492428052
3358+493283629+492759078+491698445+491201557+491323450+491270453+490683063
3348+490157814+490462108+491642245+493085677+494388989+495839118+497678919
3338+499174300+499283671+498235850+497268457+496876805+496502858+495781812
3328+494869104+493688559+492126088+490847062+490824465+492062200+493484143
3318+494216371+494594860+495242294+495337222+493228070+489217967+485895073
3308+485122370+486341119+487838625+488469752+488169651+487591638+487369808
3298+487646352+488321420+489357097+490719404+492430265+494372041+495847854
3288+496198622+495831897+495659512+495982792+496931374+498906346+501373721
3278+502449729+500948291+498293506+497059149+497891022+499148151+499110063
3268+497632445+495754498+494407334+493677726+493054404+492294046+491683769
3258+491318500+490900524+490527509+490742990+491501251+491984394+491760585
3248+491410225+491681498+492562350+493451122+493837939+493490665+492397885
3238+490969187+489863944+489384528+489439038+489894169+490372013+490287044
3228+489722658+489483882+489926259+490450926+490366190+489629768+488498988
3218+487123723+485685562+484466783+483712454+483466136+483513075+483499389
3208+483333877+483283763+483258953+482577800+480970835+479229806+478516506
3198+479339760+481080760+482404396+482517990+481864907+481132446+480206343
3188+478741334+477087458+475948786+475501634+475332423+474988818+474254173
3178+473033152+471304528+469359083+467756748+466824851+466449768+466359761
3168+466246808+465737021+464684192+463569660+463247399+463919409+464547099
3158+463906655+462217661+460834535+460356109+460099540+459361692+458288742
3148+457437941+457015715+456641447+455866706+454985621+454841278+455565818
3138+456220153+456034461+455214526+454275232+453486251+453015658+452768524
3128+452233141+451210683+450261373+449790139+449367097+448543435+447689460
3118+447481171+447937904+448365954+448248779+447874657+447696682+447426020
3108+446580693+445493912+444786318+444353667+443738410+443067245+442912710
3098+443391311+443765841+443177606+441896833+441221271+441704677+442355546
3088+442066161+440990473+439988049+439551584+439684920+440145496+440629979
3078+441109396+441811922+442714468+443391981+443297548+442071955+439903750
3068+437617874+436074418+435487639+435481466+435565038+435363388+434782987
3058+434260940+434482711+435528493+436616236+436918929+436326006+435278710
3048+434281761+433690964+433552590+433536458+433320424+433053460+433108815
3038+433369548+433197454+432282358+431087894+430242830+429936555+430127198
3028+430821950+431794730+432459839+432411705+431777696+430807303+429480347
3018+427771436+426089577+425107042+425054831+425445551+425691694+425694024
3008+425515466+424938733+423825803+422510873+421497675+421085174+421305693
2998+421863585+422249588+422210655+421943168+421716796+421590798+421452162
2988+421040535+420116936+418871747+417913234+417588877+417622248+417642369
2978+417719447+418111506+418680143+418815547+418011016+416425075+414764066
2968+413649679+413174572+412998023+412772787+412471143+412294448+412315269
2958+412406207+412513074+412703105+412923944+413041265+413118343+413287700
2948+413332135+412777970+411600628+410473429+410043632+410310770+410938490
2938+411717396+412337079+412199608+411041222+409451321+408301525+407855421
2928+407806618+407998862+408563714+409330652+409699270+409332253+408514590
2918+407624332+406704636+405694117+404699206+403980431+403811919+404263031
2908+405130255+406166428+407159912+407729569+407510273+406700443+405932806
2898+405491070+405030173+404118746+402877663+401992356+402040897+402841730
2888+403613880+403786527+403413453+402781977+402013787+401229232+400753281
2878+400792359+401091353+401275561+401354531+401483733+401476395+401094848
2868+400621721+400499770+400558212+400229895+399432091+398669200+398313336
2858+398285498+398406808+398615476+398789957+398709355+398323586+397859603
2848+397548990+397438629+397530936+397791697+397945329+397706466+397332111
2838+397406598+397905174+398009071+397113165+395631266+394507765+394135886
2828+394063059+393764589+393354126+393241144+393385691+393332840+392885862
2818+392403214+392349897+392690590+392921912+392756807+392457870+392296056
2808+392079555+391533806+390818321+390376527+390419245+390651265+390551532
2798+389980857+389391720+389313797+389744556+390159007+390054499+389392186
2788+388494241+387634151+386907835+386422303+386292752+386401425+386420585
2778+386154903+385685620+385183957+384767758+384525429+384473888+384472723
2768+384323925+383918588+383247655+382456345+381949236+382142121+382966947
2758+383841422+384209341+383959820+383362180+382786642+382456286+382332501
2748+382216957+381952031+381523544+381063667+380777339+380786686+380986414
2738+381016640+380471997+379344390+378185131+377548821+377395684+377335524
2728+377235442+377191064+377142843+376970633+376819330+376946697+377284012
2718+377415543+377060290+376407936+375850160+375553874+375469894+375513456
2708+375525803+375340955+375066391+374977636+375049444+374950876+374501773
2698+373799828+373020427+372412771+372298595+372734595+373300320+373505988
2688+373344552+373189988+373181077+373016758+372454877+371713185+371195943
2678+371050493+371159282+371366872+371534249+371510225+371217550+370718682
2668+370149200+369669988+369454652+369579340+369890040+370064697+369879820
2658+369445451+369114250+369057555+369043083+368822914+368563055+368545264
2648+368635154+368455839+367943606+367397303+367121225+367209106+367488999
2638+367611939+367420802+367214872+367408921+367991099+368533645+368673009
2628+368399610+367950711+367605329+367547237+367755176+367976190+367907964
2618+367467713+366865414+366437072+366415088+366754994+367087767+366968000
2608+366350123+365693517+365431678+365533799+365748698+365975681+366151240
2598+366099349+365809003+365567053+365539623+365526694+365344729+365104002
2588+364938372+364863187+365018362+365592969+366394326+366893980+366780037
2578+366219786+365622641+365298633+365261448+365327607+365424952+365641394
2568+365941349+366100369+366013769+365847499+365813924+365930896+366032084
2558+365970032+365783058+365632716+365592328+365557240+365370499+364997863
2548+364554583+364186518+364013172+364161330+364659674+365255683+365558783
2538+365416478+365010558+364670914+364695112+365104584+365478851+365345020
2528+364788496+364343586+364318194+364569754+364862721+365109592+365283317
2518+365370033+365451945+365667776+365993327+366119413+365729596+364977683
2508+364449813+364501295+364885405+365190456+365337391+365442016+365504098
2498+365485083+365469126+365546437+365642238+365562132+365191533+364638475
2488+364197292+364167387+364640018+365370820+365910658+365997112+365771614
2478+365506835+365265001+364977217+364713107+364676825+364945244+365305593
2468+365450169+365351630+365284103+365419623+365630212+365729159+365650363
2458+365408412+365146282+365104759+365271436+365257401+364826759+364335258
2448+364322766+364816625+365317561+365452004+365396823+365537060+365903116
2438+366173428+366133244+365881073+365600627+365353028+365139323+365015625
2428+365053888+365233698+365443239+365588601+365679453+365814681+366079811
2418+366435762+366745560+366934368+367038468+367095163+367119216+367176493
2408+367338045+367585325+367856277+368127609+368396844+368658013+368916939
2398+369179128+369419593+369629396+369970759+370915410+373113113+376985716
2388+382549147+389802939+399168825+411284104+426407295+444205189+464023509
2378+485185529+507141160+529495809+551807828+573377835+593385487+610952438
2368+625034360+634980036+641250186+644776680+645792295+643991630+638933823
2358+629458129+614380334+594151843+570621599+547036203+528087378+517580229
2348+516946831+525455771+539773558+554139683+564047445+569221554+571855490
2338+574098939+577014573+580556908+583953123+586135946+586655722+586107468
2328+584813999+582024625+577280722+571277011+564887414+558485412+552192724
2318+545891824+539256928+532242261+525097956+517735084+509763565+501353978
2308+493259052+485811327+478602290+471194691+463630868+456269393+449490038
2298+443462595+437999363+432797853+427865316+423453166+419592094+415991522
2288+412458796+409199121+406579657+404715716+403426120+402505375+401832579
2278+401250868+400570996+399721942+398787511+397912308+397197173+396607570
2268+395991032+395272286+394609362+394255099+394229300+394224466+393940584
2258+393417402+392865770+392309014+391655640+390997666+390524364+390210111
2248+389866011+389498034+389368396+389627060+390084958+390462283+390681811
2238+390801374+390834861+390762558+390612770+390449557+390273649+389957969
2228+389391487+388720759+388285370+388224482+388268714+388024347+387439607
2218+386871465+386601269+386459343+386154961+385766018+385565213+385558981
2208+385542150+385465655+385486009+385707576+386019441+386230816+386324114
2198+386459721+386749660+387159423+387580252+387897097+388092631+388307821
2188+388649388+389005718+389234594+389434059+389808297+390314299+390685305
2178+390839811+391001131+391311511+391641750+391906996+392213736+392601427
2168+392984256+393336975+393634252+393729849+393566841+393362600+393418130
2158+393828039+394387882+394744649+394706154+394404218+394126043+394058342
2148+394187834+394369566+394511551+394682917+394977427+395356382+395728116
2138+396067179+396381373+396678388+396997300+397373111+397769771+398119607
2128+398435665+398823444+399326359+399822490+400184469+400496975+400968267
2118+401662029+402465482+403260374+403968084+404481512+404724976+404779953
2108+404831697+404992144+405247227+405555161+405914490+406314499+406682651
2098+406951041+407149546+407355418+407587002+407844764+408189475+408632289
2088+409034598+409269764+409389472+409515528+409681827+409856455+410011106
2078+410129475+410219744+410327135+410500918+410739985+410985867+411234194
2068+411627942+412272289+412989171+413510082+413862976+414259694+414704721
2058+415035455+415212295+415299245+415351659+415533682+416112832+417143792
2048+418315805+419262758+419946823+420628063+421471788+422295741+422803199
2038+423002228+423213196+423680498+424394265+425309798+426487839+427882933
2028+429196611+430178069+430958023+431864849+433057799+434534572+436250763
2018+437997295+439447512+440564956+441682255+443065178+444699922+446464275
2008+448214681+449782364+451115347+452374864+453781518+455396462+457067867
1998+458612634+460089349+461753503+463602855+465181080+466125003+466737727
1988+467636661+468977099+470366399+471469313+472386884+473434297+474808484
1978+476499020+478338967+480116074+481732940+483294857+485078516+487371527
1968+490123453+492765193+494754083+496325290+498257457+500911893+503889201
1958+506623423+508928197+510860829+512464591+513905694+515595357+517903858
1948+520878138+524358216+528078933+531456221+533762917+535028606+536275660
1938+538400303+541323799+544343796+546879659+548796101+550300276+551702825
1928+553323417+555497680+558302836+561288122+563977268+566568225+569417700
1918+572102012+573842983+574674856+575428108+576864610+579195708+582001446
1908+584560779+586463885+587771914+588678099+589350167+590028292+591041577
1898+592647552+594677500+596383237+597238173+597788174+598820386+599966688
1888+600149730+599270043+598364964+598369390+599417793+600913989+602009390
1878+602339542+602291379+602435868+603154410+604875289+607799367+610865896
1868+611929616+610244612+607511612+605576534+604700865+604049355+602966650
1858+601545873+600198708+599139357+598428735+598134050+598181864+598436306
1848+599148617+600669738+602252010+602036820+599503403+596401000+594287421
1838+593147992+592053290+590520754+589377539+589852762+591656164+592656229
1828+591425366+588791023+585920523+583177100+580871161+579361337+578494695
1818+577761594+576857389+575892499+575210065+574954108+574733386+574019968
1808+572894284+571966608+571829923+572916356+575267196+577942016+579312475
1798+578769638+577577503+577556130+579326278+581393790+581438983+579518638
1788+577859143+577878478+579280619+581182327+583143205+584817202+585651696
1778+585823848+586689849+589618470+594530798+599272373+601346524+600871592
1768+599591168+598539154+598172371+598806409+600134763+601408722+602639760
1758+604319988+606085186+607398339+609116597+612618514+617519777+621343169
1748+622527733+622249180+622270029+623183319+624723194+626365917+627605166
1738+628890773+631970638+637767837+643337965+644030882+640685102+637012721
1728+634706025+634022950+634682555+636044629+637955364+641361537+647246501
1718+654480784+658966226+658104710+654333441+651079968+649808688+650652849
1708+653431216+657458732+661295868+664491220+668531374+674191130+679036834
1698+680513986+679077135+675315767+670320740+666890747+666866346+669785707
1688+674282448+680045519+686650131+690387272+688281905+683748590+680903891
1678+681255299+684536203+688788402+691702696+693325735+694751463+695178174
1668+693588156+692136454+693663807+697927363+701569983+702126856+701324743
1658+702042062+705555685+712152493+719948133+722655041+719680995+718372617
1648+721697665+726151309+725961919+721491909+717386179+716266435+718751281
1638+724484126+731401186+735245019+734410350+732807870+733657098+736699109
1628+740069000+743167677+747366297+753327960+759475868+764614044+770053253
1618+777023076+783517210+786272631+786485899+787470473+789707167+791439926
1608+791749753+791564206+791659193+791727855+791732864+792528863+794610468
1598+797367927+800037447+802366390+804127802+805080578+805445440+805735233
1588+806207428+806906868+807959172+809238373+810071353+810154517+810662878
1578+813305258+817966114+822078775+824532813+827198140+831020367+834592752
1568+836480250+837382417+838741287+841812883+848444110+860851453+877450136
1558+886481648+881086176+870543268+862029144+858048219+858929769+862257554
1548+864739547+865762733+866852660+868418858+869394812+868668816+865644277
1538+861743778+859423337+859482857+860908410+861628641+860891579+860262141
1528+861315145+864051231+867525951+870998691+873595645+874337192+874279710
1518+875875202+879322317+882616383+884877187+887672792+893272098+902902588
1508+914884444+921786128+917591410+909471733+904893575+904589223+906658016
1498+908821796+909831703+910534812+912692477+916915149+922005162+925028595
1488+923770593+919988317+917609115+918993435+923561693+928666614+932071623
1478+933729372+935291144+938515964+943105944+945698473+943973110+940192232
1468+936872426+933999830+931396294+930539320+932754174+937620203+943739517
1458+948632335+948701464+943809403+938254184+934918827+934123760+934773931
1448+934991392+933429212+930378874+927242226+925157417+924373590+924974142
1438+926791230+928161631+927078752+924439516+922561977+922220061+923003305
1428+924603689+926936185+929588000+931713750+933031970+934797051+938155761
1418+941319373+941242499+938270083+935323233+934200751+933826513+931729998
1408+927869043+925151361+925054918+925606492+925262945+925455247+927658920
1398+931106268+934398877+936973993+937967710+936648500+934123527+932155311
1388+931091767+930025485+929209510+930532098+934328118+938248534+940189495
1378+941013856+943646860+949615512+956327689+959620532+959760245+960325737
1368+962356443+964466468+966716732+969964090+973050420+974242380+974143783
1358+974542015+976100875+978885648+983156017+988076208+991162013+990916714
1348+988983092+988072830+989220587+991859124+995027628+998005577+1001003093
1338+1004709718+1008141341+1009594732+1010228596+1013082730+1018772014
1330+1024491464+1027473024+1028059132+1028368027+1029482589+1031389771
1321+1033963547+1036585195+1037913374+1037341941+1036237047+1036818846
1312+1040284132+1046624983+1055048663+1063307646+1068106119+1068353049
1304+1066535553+1065571013+1065647887+1066145008+1068160047+1071731210
1295+1073741823+1070679895+1063132116+1055463086+1051233716+1050919114
1287+1052105891+1051493342+1047509737+1041289089+1036362143+1035474710
1278+1037833937+1040730935+1042572890+1043304245+1043114738+1041956265
1270+1040000512+1036941030+1032587031+1029198736+1029333266+1031254659
1261+1030152793+1024332008+1016722148+1010078458+1004327209+998194850+991516334
1251+986111370+983856855+983714288+981793245+975325726+965464088+955436588
1241+947404035+941172205+934848534+927196334+919183757+912303446+906766339
1231+901947716+897387146+892797224+887941969+883099468+878945633+875471612
1221+871650026+866701532+861577158+858362413+857940944+859164935+860408843
1211+860941373+860689842+859979453+859666423+860286135+861246832+861854372
1201+862532788+864139403+866829830+870178465+873896795+878215793+883430901
1191+888928173+893135121+895033918+895434247+896135375+898308415+901839451
1181+905679732+908918354+911690839+914844550+918766423+923356345+928653569
1171+934120848+939061597+944754433+953203854+963184123+970861423+974964533
1161+977688621+980087799+981444515+982206736+983207733+983449305+981988110
1151+980434316+981521273+986762123+995562953+1005305144+1012527255+1014793534
1141+1011903991+1006581957+1002945568+1002367030+1002904452+1003004854
1133+1003121680+1003262849+1002045323+999501365+997717065+998333341+1001158007
1123+1004760152+1007474282+1008959354+1011038572+1015877811+1022710426
1114+1028189353+1030383882+1030459009+1030750433+1032714689+1036088307
1105+1038806165+1038395353+1035072634+1031975530+1030961488+1030737038
1097+1028742266+1023844788+1017972404+1015639501+1018668117+1023666463
1088+1026383971+1025855984+1024453726+1023365954+1021451317+1018888024
1080+1016787608+1015507999+1017354730+1024459317+1031849387+1031652658
1071+1025112865+1020275140+1020171243+1019474366+1012294768+1001726993
1063+995297969+994982784+996859800+996608560+992569163+984929368+977019815
1053+974015251+977991227+987461795+999136328+1007102606+1005182728+995513334
1043+987388182+985863974+988681768+991926214+994040841+994659912+993619313
1033+991936814+991037733+990787775+990469329+990365432+990268873+988811173
1023+985839747+983139594+982257053+982968723+984326371+986693518+991078384
1013+995871149+997327568+994026864+988233567+982759416+977740803+972003240
1003+966370098+962764051+960909516+958165918+952271054+943255208+933195270
993+924672003+919401510+917937752+919322422+920533601+918391427+913145045
983+907992019+905037307+903623110+901426543+896651016+890277027+884949635
973+881614279+879044114+876067272+872710484+869408731+866533806+864206086
963+862054303+860130756+859463114+860712730+863099037+865312203+866686972
953+867263180+867626062+868916619+871918154+875858954+878730502+879448752
943+879350097+880858174+885148926+891606778+898560178+903856412+906340909
933+907784807+911690140+919734224+930208702+939614626+945319401+946990195
923+946075914+944116201+942026617+940675317+940947697+942713244+944220447
913+943573888+941274238+939483707+939233691+940060148+941627860+944006539
903+946882920+949591168+951007869+950053812+947230252+944765731+944426843
893+946062519+948527914+950738925+951888604+951801771+950512961+947555454
883+943383449+940410159+941008090+945138979+951272095+958888362+967310935
873+973432695+974521049+972095431+968958259+965654293+962620436+960983187
863+960964842+962305193+964750321+967763446+971836388+977786461+982482552
853+981456279+977384385+976826755+979216208+978201583+973343591+971079001
843+974728552+981607815+987865502+992226490+995406176+997179410+995219814
833+988197460+979867543+976828735+981229150+988989848+995521138+1000510865
823+1005181097+1009642254+1014512011+1019525499+1021808550+1020237169
814+1017171746+1014261237+1012265649+1013173116+1017415065+1020884893
805+1020635867+1020206768+1022908319+1026190737+1026313619+1022992182
797+1018501556+1015402588+1015202598+1017410756+1019492885+1017000992
788+1007362115+995070258+988244982+990337362+996084533+996264839+989098287
778+981580559+979408044+981173242+981848455+980145222+978078001+977082945
768+977929145+980799120+983764256+982759299+976470280+968134364+961559104
758+959736542+963870751+971816645+979813964+985266451+987913956+989810073
748+993281649+997920898+1001246878+1002393703+1002468132+1002247875+1002008167
738+1002817794+1006521855+1012866201+1017598399+1015760403+1007524366+998211972
728+991825113+990648004+996651423+1008199114+1018279552+1019238967+1011819196
718+1003522708+999301026+999664315+1001853486+1002561313+1002662997+1004541642
708+1005466464+999231722+985763804+972529771+965564083+964398563+965344117
698+967313323+971926599+977851339+979963985+976528867+972030379+970920535
688+973625696+978879125+982850849+979275843+969583562+961681521+959132438
678+960909807+963696327+965979612+970780006+978170950+980964633+972570945
668+959318101+956802505+964531812+970448806+969409547+961719667+949848406
658+941203654+943963035+956601467+966273074+965357861+961621536+960514254
648+958983115+957253326+960547217+966960691+967751099+960009504+952484904
638+952966243+957274350+958178614+962095361+976541621+986110438+978302684
628+961463303+948084547+942032848+935984876+926160278+918330336+916176165
618+913845475+903694161+889574617+882025965+886357950+901224864+918784418
608+926066689+918031399+905430531+900069478+902668820+905100262+902185852
##END=
