##TITLE=<SNM>
##JCAMP-DX=4.24
##DATA TYPE=INFRARED SPECTRUM
##DATE=29/4/2025
##SAMPLING PROCEDURE=Instrument type and / or accessory
##ORIGIN=Admin
##XUNITS=1/CM
##YUNITS=ABSORBANCE
##RESOLUTION=4
##FIRSTX=4497.3318
##LASTX=599.83466
##DELTAX=-1.4281778
##MAXY=2.1474562
##MINY=0.46077117
##XFACTOR=1
##YFACTOR=1.9999744e-09
##NPOINTS=2730
##FIRSTY=0.47845107
##XYDATA=(X++(Y..Y))
4497+239228597+239949778+240485079+239655208+237465410+235212191+234200107
4487+234546205+235262752+235437947+235067082+234686680+234759771+235595693
4477+237198244+238969821+240094679+240306025+239944935+239393794+238786534
4467+238196411+237891604+238266223+239335440+240435741+240753587+240151215
4457+239272333+238829271+238830523+238608105+237725990+236677501+236362084
4447+237054967+238248476+239113529+238868402+237416966+235841684+235510263
4437+236597123+238071537+238921779+238866420+238295952+237946813+238210492
4427+238668173+238706201+238279009+237590134+236592831+235355066+234389711
4417+234167860+234597704+235171302+235478166+235574905+235880949+236662257
4407+237674819+238441001+238731563+238588882+238198035+237732219+237147475
4397+236251143+235088510+234097421+233667860+233774539+234239819+235016596
4387+235927874+236435086+235967362+234431882+232444027+230971118+230438558
4377+230392006+230388534+230720656+231723249+232941076+233614990+233646089
4367+233668739+234279665+235322461+236031751+235934475+235353605+234923418
4357+234900530+235010666+234854246+234474053+234328720+234583891+234891619
4347+235110102+235517520+235961133+235730103+234725051+233843279+233824905
4337+234436606+234982532+235137342+235071031+234933670+234548530+233833772
4327+233283554+233537116+234471222+235245094+235409649+235461506+235925564
4317+236403137+236258326+235826097+235947171+236687872+237476720+238029530
4307+238299856+238050258+237293731+236657429+236655954+237046116+237351832
4297+237501397+237496107+237057143+236208138+235630055+235787831+236226050
4287+236276804+236041556+236101728+236554773+236857628+236537249+235774241
4277+235237285+235347779+235781811+235829331+235250518+234569541+234418322
4267+234811822+235321180+235770769+236245809+236591520+236624631+236671958
4257+237137342+237808633+238262960+238397191+238095350+237296131+236620712
4247+236850744+237781170+238538859+238697185+238330836+237646938+237209762
4237+237764152+239310734+240798023+240976750+239558618+237641052+236801123
4227+237572431+238977405+239626613+239019278+237687738+236471877+235783479
4217+235528517+235787756+236961297+238815353+240097868+239807902+238296220
4207+236642930+235675162+235815413+236994050+238463368+239288456+239119818
4197+238380204+237965112+238621755+240084203+241093472+240858969+239919320
4187+239006582+238095901+237116927+236462474+236381292+236825918+237872873
4177+239361979+240485929+240690003+240434549+240298991+240066009+239399918
4167+238742113+238796190+239596855+240570002+241215797+241353828+240962936
4157+240230251+239591550+239383884+239509697+239548306+239214814+238718465
4147+238564727+238967898+239678514+240347913+240665177+240324041+239474678
4137+238923120+239236868+239997999+240401975+240198631+239711804+239235124
4127+238707274+237948616+237078928+236541094+236678216+237444176+238504735
4117+239446440+239969612+240152943+240485810+241384704+242644270+243571373
4107+243805503+243607255+243161854+242332713+241288739+240457274+239792778
4097+239031572+238404061+238245526+238399605+238635658+239054490+239694056
4087+240275537+240529396+240475751+240362188+240354261+240297635+240029351
4077+239835485+240040423+240264763+239832683+238859953+238262737+238678365
4067+239804565+240796130+241088212+240825575+240585470+240743529+241169886
4057+241518786+241627715+241536266+241266372+240760084+240002633+239125033
4047+238433908+238357748+239205351+240790527+242359714+243130740+242924028
4037+242141901+241307604+240835187+240994423+241747090+242675325+243288471
4027+243421763+243235213+242837869+242156594+241304684+240724172+240741293
4017+241255047+241930704+242423641+242481116+242123081+241585380+241106242
4007+241070613+241882156+243202192+244103426+244321820+244375182+244386507
3997+243925071+242967779+242024791+241459300+241329703+241611368+242189481
3987+242826514+243258743+243304266+243004943+242657086+242517564+242554639
3977+242634301+242765448+242993111+243238089+243381709+243433863+243567975
3967+243992679+244724410+245502961+245996851+246071313+245845513+245547277
3957+245356018+245322923+245354826+245386879+245621754+246283270+246992694
3947+246962563+246201283+245719656+246023554+246268682+245597107+244452922
3937+243906788+244663329+246967227+250367507+253226480+253790497+252265850
3927+250454382+249524508+249145671+248667054+248463472+249283195+250707705
3917+251205797+249902451+247687812+246133139+245939541+246690196+247855527
3907+249801732+253323846+258088821+262144641+263759561+262883599+260156622
3897+256224871+252388458+250468628+251341906+253476972+254214827+253784149
3887+254815859+257886848+260463531+261064591+261166904+261191879+259574844
3878+256684101+255102114+256031630+258496314+261397339+263873079+264328554
3868+262696796+261492618+262054488+262495658+260655162+257343754+254771423
3858+254431374+257537561+264922879+273117639+274448270+268710356+261577258
3848+256668842+255174683+256822147+260359638+264471607+268610487+272183593
3838+273487729+271618891+268339282+265671970+263836988+262157218+260568406
3828+259551031+259430420+260742514+264351800+269447168+272289690+271111649
3818+268990501+267929167+266214201+262703383+259286473+258223053+260353171
3808+264515327+267926724+269601755+271573204+274581071+275899215+274150035
3798+271656174+269870337+268205915+266682342+266451996+267938019+270366343
3788+273018516+275746089+278312251+280561014+283221441+286994791+290891048
3778+293399691+295239054+298541313+304288615+311854180+319638676+325696702
3768+329167912+330841900+331824465+333036124+335546555+339860109+345023844
3758+349401891+352862611+357310993+365102790+376691393+388036001+394131995
3748+396952582+401664479+408779487+413260264+413506494+414108121+418474664
3738+426812745+436871247+444935084+448158872+446754599+443634494+442135835
3728+443989474+448147219+451213083+450759546+447702593+444117566+440837242
3718+438009264+436524552+437916786+442708911+448390886+450284699+447242648
3708+442887758+440846600+442518562+447063861+451814025+454316618+454505924
3698+453611515+452815962+453572265+457167127+463554472+470850383+475558256
3688+475060015+471006579+467097716+465416188+465911121+467502466+469932161
3678+474273700+480238681+483985090+483514773+481733645+479859025+475907812
3668+470193770+465842038+464092828+463536203+462491291+461108803+461029110
3658+462978565+465376759+466658513+468282552+472783058+479757427+484317122
3648+482026903+475008188+468099325+463785622+461783923+460951027+461325528
3638+463464081+466440477+468750752+470918869+474863496+480504223+484157081
3628+482955347+479624269+477347014+477072532+479548183+485131391+491180446
3618+493414218+491997815+490560490+490407543+490471946+490988159+493164144
3608+495954362+497260436+497684469+499277632+501949772+503819773+504651626
3598+506227056+508995966+510893027+510464524+509631777+511313484+515650016
3588+519427329+519647333+517287316+514885517+513152907+511625280+510104269
3578+508793188+507927658+507384653+506463809+505003953+504823111+508206909
3568+514330769+518892967+519326894+517171622+514353181+511633684+509650672
3558+508797003+508533189+508117561+507653950+507957938+509577774+512108381
3548+514516798+515754742+515152787+512862688+510095924+508526812+508913710
3538+510529375+512221095+513405395+513763385+512896067+510961216+509067373
3528+508375891+508923426+509654308+509514056+508396991+507158689+506619319
3518+506555124+505895769+503997278+501387455+499080517+497856043+498423278
3508+501104270+504774651+507155649+506776201+504146708+500676839+497451799
3498+495015220+493515577+493193708+494620215+497849129+501710695+504591186
3488+505466849+504130615+501435735+499211589+498843019+500109753+501714033
3478+502383819+501408078+498887813+495838728+493533131+492563321+492520495
3468+492566749+492495520+492888469+493942829+494758588+494280762+492443693
3458+489978861+487669539+486230187+486156455+487138663+488126325+488306959
3448+487668317+486725299+486276888+486809939+487601290+487392373+486206971
3438+485361379+485677347+486776053+487742376+487686884+486360574+484523148
3428+482857683+480942830+478405696+476264044+475880453+477193799+478649393
3418+478774713+477667721+476691117+476577151+476546871+475929598+475649959
3408+476873122+478957463+479889185+478552206+475934366+474029854+473894490
3398+474853333+475596493+475892315+476552862+477704856+478345375+478098251
3388+478101321+479336971+481109844+481932667+481221604+479504522+477707597
3378+476709356+476982378+478261183+479984941+482087731+484567494+486662773
3368+487726730+488471857+489796766+491142299+491587402+491526932+491771851
3358+492065318+491743061+490948074+490202470+489538406+488840576+488485328
3348+488914994+489804455+490365461+490344391+490059149+489731558+489420388
3338+489316913+489489798+489620900+489281567+488268960+486717551+485102602
3328+483886055+483131570+482855299+483363048+484662774+486087164+486874820
3318+486817658+486279719+486003448+486731349+488307763+489414278+488779719
3308+486539569+484201100+483480381+485002256+487607966+489205779+488900658
3298+487790895+487190430+487011495+486542341+485904116+485783266+486293727
3288+487044844+487888499+488916662+490095568+491234687+492125520+492714659
3278+493171416+493567106+493661521+493444617+493493404+494072411+494339860
3268+493326271+491387217+489791580+489148021+489054440+489025174+489026396
3258+489242764+489842960+490827075+491648766+491339533+489735760+488091545
3248+487654548+488154786+488403311+487920000+487197672+486787647+486899317
3238+487540701+488435200+489097833+489424083+489726313+489952157+489594734
3228+488454154+486977699+485790895+485169121+484929061+484586359+483643521
3218+481921461+479878397+478449655+478107937+478245030+477969831+477188732
3208+476388381+475883135+475678689+475531374+475114256+474640780+474870529
3198+475820460+476185067+474917528+472711472+471124687+470723542+470763776
3188+470470398+469824693+469031703+468151360+467306454+466451533+465255223
3178+463881408+463139976+463284072+463650258+463782224+463778916+463477194
3168+462447838+460793907+459101233+457672640+456295666+454769082+453417738
3158+452770483+452794653+452888323+452667127+452329910+452194486+452278113
3148+452328658+452049347+451304816+450165935+448903195+447906414+447411033
3138+447218925+446802641+445793491+444292270+442761513+441789617+441753616
3128+442361859+442709657+442204471+441236092+440510724+440053014+439386834
3118+438386983+437374734+436660155+436412464+436585797+436739996+436409514
3108+435794297+435615272+436137475+436683997+436430346+435497790+434775015
3098+434680063+434611368+433738745+432024910+430255345+429251828+429285088
3088+429959494+430409902+429898696+428613872+427641380+427727778+428379354
3078+428667725+428528010+428592652+429082907+429508340+429340670+428608865
3068+427728493+426864244+425775731+424411095+423197141+422492724+422203608
3058+422072953+421938513+421722414+421475796+421304133+421137923+420859238
3048+420607673+420504169+420249743+419585858+418904360+418706410+418665044
3038+417960746+416505987+415186889+414824727+415329168+415929662+416033137
3028+415680661+415183313+414617002+413891694+413098405+412445726+411977138
3018+411634348+411473830+411560288+411705636+411541542+410954250+410313343
3008+410055281+410090478+409908831+409245691+408288756+407296236+406444028
2998+405999848+406104009+406347139+406135570+405490163+404922034+404642454
2988+404469122+404289471+404101059+403807085+403375363+402992279+402783600
2978+402603950+402297339+401949095+401705368+401476334+401003336+400203163
2968+399280292+398479822+397900785+397530337+397271113+396981133+396661380
2958+396499223+396520085+396344219+395594592+394518238+393876734+394095427
2948+394700273+394782886+394009595+392974994+392483160+392673867+393001936
2938+392937741+392463818+391870655+391299605+390715621+390253739+390220241
2928+390558174+390674821+390141532+389240745+388486409+388008046+387699945
2918+387512546+387311676+386887255+386352058+386133962+386369374+386655301
2908+386562823+386145555+385778148+385591970+385265124+384506794+383569827
2898+382929456+382631012+382437443+382383054+382588662+382788162+382626482
2888+382182392+381801245+381701346+381896763+382187637+382262353+382074298
2878+381927877+382013828+382119806+381929069+381412201+380782499+380128479
2868+379317875+378353043+377509030+376983310+376770430+376906151+377365262
2858+377800679+377876050+377713655+377651546+377764439+377827412+377585146
2848+377033200+376488049+376219080+376079215+375811349+375530637+375507778
2838+375680604+375743101+375568188+375267688+374940871+374550039+373991536
2828+373220480+372318412+371433749+370672141+370103296+369827920+369906152
2818+370243816+370635096+370864338+370765185+370355040+369932557+369776748
2808+369701526+369234667+368272129+367193122+366327413+365749420+365585594
2798+366023724+366928742+367775944+368035227+367525065+366524469+365581749
2788+365022442+364697295+364350659+364007332+363809979+363713954+363550844
2778+363267301+362927908+362506558+361835490+360865948+359865710+359211183
2768+359070872+359366783+359846517+360103387+359817281+359159416+358694464
2758+358676433+358698755+358264888+357430710+356590393+355948651+355554004
2748+355525304+355841660+356123265+355969424+355405139+354775259+354294244
2738+353882102+353394262+352821871+352229691+351664632+351221048+351047150
2728+351155661+351322229+351293082+351065896+350866665+350818354+350749570
2718+350451900+349985279+349515410+349016095+348435867+348001194+347996724
2708+348330693+348606427+348566492+348241404+347739765+347127379+346489541
2698+345906392+345331498+344664454+344018718+343715238+343859155+344141178
2688+344251746+344265544+344391640+344613074+344788791+344821603+344566015
2678+343885947+342925794+342071231+341591318+341465312+341479379+341402011
2668+341173186+340941381+340849350+340897571+341063482+341339068+341566522
2658+341463077+340930950+340211393+339672501+339529090+339741464+340043157
2648+340084374+339704449+339077222+338504652+338144337+338010434+338071261
2638+338217294+338274992+338136618+337793411+337302977+336827147+336558774
2628+336512759+336556777+336654888+336843062+336999526+336922099+336622969
2618+336320472+336184422+336251687+336502655+336847681+337063334+336899180
2608+336352390+335805242+335760151+336334449+337067625+337358529+337084434
2598+336644576+336436017+336468949+336465611+336191396+335709993+335374236
2588+335484774+335926867+336258065+336172769+335767035+335354298+335135576
2578+335083600+335086908+335103001+335133013+335175303+335297822+335575493
2568+335843271+335763757+335285841+334774248+334565182+334639510+334783278
2558+334846460+334816865+334781907+334833019+334959591+335046585+334954792
2548+334604521+334058893+333528256+333230617+333245280+333487903+333762297
2538+333857040+333708533+333500689+333513385+333825210+334221437+334439653
2528+334435987+334349976+334321247+334417509+334620108+334825717+334953332
2518+335012937+334996933+334841006+334584702+334412413+334445494+334619482
2508+334806017+334942931+335012252+334987814+334871404+334732941+334628602
2498+334526468+334404962+334345744+334427434+334635933+334919417+335188446
2488+335306435+335248587+335170534+335166272+335124996+334972853+334852062
2478+334893101+334984267+334942812+334810011+334815316+335056151+335315018
2468+335291444+335001016+334772579+334789626+334844999+334674289+334336237
2458+334099306+334098918+334261194+334477323+334703585+334893101+334958190
2448+334863209+334655216+334381865+334137900+334149941+334544022+335065480
2438+335322737+335263250+335156557+335198698+335345387+335460693+335487933
2428+335475833+335489691+335566195+335750912+336048939+336331379+336441470
2418+336398614+336373789+336512192+336869676+337398674+337919953+338254131
2408+338447788+338731093+339170117+339502298+339474283+339258482+339300950
2398+339751746+340304765+340718337+341229305+342205820+343653516+345450738
2388+347908418+351675659+357195656+364616351+374145944+386173689+400981341
2378+418392468+437681970+457880455+478274296+498584362+518624564+537845758
2368+555163573+569140445+578404257+582022902+580058486+574240283+566671052
2358+557152307+543557625+524936240+502813514+480853273+463755462+454880544
2348+455345377+464584036+479902328+495984344+507801235+514163993+516863701
2338+518150045+519337564+520519956+521292025+521591721+521535394+520704912
2328+518319205+514124534+508452484+501662355+494205599+486715256+479428912
2318+472085258+464620753+457379710+450577392+444026042+437449986+430811195
2308+424270098+417976214+411999729+406420245+401322672+396682689+392397567
2298+388444000+384913124+381921350+379526047+377631489+375959021+374245068
2288+372505812+371009597+369947697+369209722+368544049+367859004+367245485
2278+366756900+366340824+365980629+365736783+365619927+365514872+365245456
2268+364712732+364013054+363393814+363025005+362811797+362482775+361896347
2258+361226233+360770043+360604996+360573584+360587263+360746618+361135126
2248+361657091+362116768+362380462+362448025+362388777+362251476+362083627
2238+361961853+361893665+361763338+361470735+361052811+360648419+360396884
2228+360289862+360100704+359640879+359056805+358624279+358352895+358087889
2218+357893159+358023903+358545510+359199471+359709216+360115397+360679592
2208+361479974+362275616+362832450+363235532+363764112+364540324+365425464
2198+366256632+367074388+368052632+369248615+370487275+371506557+372204536
2188+372707636+373214460+373865113+374708529+375628599+376385289+376922364
2178+377472700+378147523+378662097+378705191+378348781+377901263+377576861
2168+377435894+377443017+377499433+377567801+377749925+378089229+378408446
2158+378510311+378406240+378235799+378145854+378300709+378799576+379557072
2148+380397568+381278357+382446205+384393097+387464862+391455682+395838587
2138+400384065+405244737+410511620+416050721+421748730+427630710+433643465
2128+439476957+444812058+449697437+454399499+458920480+462943725+466167275
2118+468496774+470040673+470979309+471378248+471253882+470815901+470401733
2108+470210221+470291016+470674368+471338044+472119471+472800582+473285413
2098+473518649+473191236+471911001+469824216+467558048+465382004+462939404
2088+459867729+456175829+451948644+447141646+441833278+436429929+431396908
2078+426869013+422715708+418874855+415402393+412341000+409762201+407796624
2068+406459674+405513468+404601118+403569080+402602668+401924060+401493978
2058+401200391+401081657+401121027+401158727+401200183+401470970+402106781
2048+403067650+404275941+405677979+407325115+409444445+412299663+416003007
2038+420468674+425454815+430725215+436225154+441909186+447372379+451944352
2028+455289259+457770542+460099653+462658633+465270422+467561535+469281986
2018+470274207+470463722+469989949+469172371+468297632+467430642+466369904
2008+464891660+463103408+461401376+460065887+459048691+458112409+457042224
1998+455842397+454870858+454578047+454915503+455234928+455046337+454591428
1988+454336228+454357894+454570924+455088210+456013822+457205155+458491798
1978+459929212+461679048+463745210+465949507+468180090+470560551+473205929
1968+475842693+477955407+479444141+480845494+482703961+484992272+487333841
1958+489554172+491728846+493879200+495961157+498031760+500187360+502439490
1948+504814289+507525083+510849694+514603941+517883013+519963599+521386321
1938+523293038+525997097+528881999+531353775+533339470+535114221+537110466
1928+539737157+543133473+547024514+550747229+553690425+555939158+557990180
1918+559803854+560957576+561723267+562872459+564528417+566129120+567330109
1908+568368435+569598512+571071600+572543258+573673495+574306564+574749254
1898+575674270+577381846+579175373+580125662+580470836+581205712+582336307
1888+582853682+582556966+582416297+583083878+584195757+584996496+585072493
1878+584589987+584025167+583683866+583718914+584528415+586451643+588721417
1868+589448961+587717304+584766360+582278251+580864232+580264721+579952806
1858+579334400+578031783+576318783+574893022+574128762+573835384+573749015
1848+574049546+575105694+576330705+575735068+572295776+567841226+564630103
1838+563029639+561945118+560655198+559824715+560422260+562052944+562991789
1828+562353713+560940231+559238675+556701809+553327666+550177223+548110822
1818+547097411+546655974+546537478+546879911+547678504+548313660+548080781
1808+547138479+546384948+546661100+548307401+550826683+552824358+553169653
1798+552411591+552279565+554103192+557745500+560943271+560878778+558029997
1788+555515662+555207263+556747884+559034407+561516317+563840093+565467679
1778+566615083+568691020+573027671+579165716+584117793+584957097+582508149
1768+579416298+577262635+576962939+578944163+582130847+584530442+585852966
1758+587221626+588551184+589319974+590842535+594945235+600907325+605361757
1748+606428753+605716945+605295297+605774166+607063789+609006687+611090134
1738+613261321+616903390+622838718+628013361+628104736+624599759+621043939
1728+618543612+617358954+617699838+619122023+621415221+625705201+633059376
1718+641690835+646498369+645006624+640621395+637148128+635977478+637226211
1708+640692206+645312221+649085840+651717180+655488235+661407827+666191399
1698+666738041+664279437+660371945+656441922+654644402+655568285+657826913
1688+660682370+665774519+673930387+680177749+678921028+673614419+669899094
1678+670157841+674442934+680290939+684026649+685363181+686776187+688528407
1668+688623716+687554514+687926332+690318357+692583005+692777795+691872330
1658+692466357+696968532+707034396+720305003+726203852+721866486+717508198
1648+717522801+718839604+716906541+712472495+709205940+708949040+712069145
1638+718130181+724801695+727267570+723866426+719381656+717981704+720114445
1628+723926866+727768256+731886453+736566670+740417000+742913155+746262681
1618+752495321+759927459+763988912+763846515+762687488+762368599+762297609
1608+761322762+759510758+757997377+757776539+759098110+761645168+764964414
1598+768712939+772685162+776667400+780402990+783696486+786250995+787795312
1588+788842042+790487390+792781841+794277161+794139711+793871070+795915178
1578+801259816+807941045+811746791+811856942+812052686+814931389+819305114
1568+822573398+825034803+828559510+833530303+840087017+849307377+859431594
1558+862985805+859537334+856242705+854556468+852736536+850528275+848671209
1548+847620663+848126177+851037007+856286515+862947717+868800074+869083021
1538+862812651+855923935+852332828+851268753+850027053+848148469+847942234
1528+850644088+854705064+857966076+860482020+863311548+866244254+868569580
1518+870259929+871075272+870757515+870267857+871318283+875068000+881659583
1508+889641820+894690636+893617322+890439936+889632581+892219992+897812767
1498+904706192+909046956+907944077+903984788+902377469+905608261+911572914
1488+916072824+917781652+917879345+917122952+916342956+917189293+920353029
1478+924384918+927440768+929380685+931553302+934274945+935402500+933411859
1468+929797566+927090288+926604444+927560753+928555925+929813242+932645631
1458+936956354+939226783+936315655+930587099+925837621+923670189+923386706
1448+922746007+919969051+915639672+912034081+911157107+913262787+916776049
1438+919891087+921657553+922049697+922066804+922883696+924285854+924779625
1428+924105070+924071930+925722165+927724549+928547104+929094460+931022874
1418+932531904+929899252+924238646+920160086+919525885+920135410+919785168
1408+919128972+919639076+921458173+923915525+926384023+928277151+929414720
1398+930449351+931764306+932308563+930870582+928049816+925355473+923401369
1388+922335803+922676925+924737245+928122594+932399997+937157522+941053391
1378+942814016+943530592+945503233+948554970+950258135+950502398+951805014
1368+955314223+960230179+965725679+970845783+974215277+976124080+978304923
1358+980456619+980406490+978322626+977005763+977860624+980012081+982526476
1348+985393734+988553477+991530350+994328227+997904552+1002609922+1007045160
1338+1010203174+1013282628+1017476107+1021771868+1024087062+1023853051
1330+1023288587+1025088075+1028864435+1032239293+1035142196+1039455481
1321+1044708387+1048485820+1051153877+1055458818+1061374059+1064852273
1312+1062975179+1058494045+1056362317+1058192441+1062191606+1066751658
1304+1071269629+1073741823+1072793143+1071221349+1071987040+1073001166
1295+1070475327+1065041818+1061237801+1061050282+1061410418+1058904249
1287+1053667795+1047998844+1043249842+1038614687+1032824261+1026966599
1278+1023663505+1023627027+1025163535+1026594184+1027100234+1025758993
1270+1022340027+1018367684+1015524029+1013985018+1012808765+1010391646
1261+1004879100+995966244+985805250+976887685+970146850+965515033+962851804
1251+961760190+961081106+959017090+954127837+946190662+935652068+922924645
1241+909063825+896142326+885781535+877913443+871561533+866067345+861056139
1231+856289197+852234956+849610649+847772895+844732841+839534534+833645520
1221+829217553+826998980+826586690+827689390+830084097+832754538+834337062
1211+834706734+835187631+836837449+839298318+841693442+843992661+846687004
1201+849586390+852063114+854187093+856678241+860090472+864675558+870218444
1191+875560042+879485058+882262492+884951411+887581142+889444645+890525053
1181+891393086+892944138+896623044+902804422+909331334+913969350+917772830
1171+923551276+931774617+940228154+947087604+952098571+955287997+957007017
1161+958656537+961416982+964843936+968027401+971229344+974926846+978305221
1151+980275955+980733307+979659337+977523794+976924760+980172837+984728419
1141+985440286+982365124+981169201+985047487+991181896+995743141+998636625
1131+1001613796+1004704456+1006103633+1004690627+1001761856+999739743
1123+1000157994+1002738074+1005384673+1005687230+1003911585+1002816633
1114+1003742901+1005133615+1005417217+1005370844+1006394508+1008229162
1105+1009183206+1008169318+1005993840+1004502632+1005091057+1007822892
1097+1011754107+1015058750+1015931611+1015179629+1014281972+1012691581
1088+1009344260+1005780930+1005600087+1010176113+1016921776+1021162343
1080+1019941625+1015394805+1011921121+1010714827+1010523017+1010112455
1071+1007202757+999747253+989702967+981620593+978590016+981354395+988529158
1061+996250919+999954203+997349864+989487434+980352846+974225946+973406074
1051+976846319+979888400+979164910+977088675+977465500+979412093+979520814
1041+978317082+979467705+983424789+985823311+983418173+978576724+974763050
1031+972240728+970515986+970577261+972442373+973385033+970979240+966441063
1021+963565757+964492085+967846797+970607838+970924105+969928277+970603964
1011+974417041+979636806+982650157+980680496+972992055+960863725+947188874
1001+935077830+926560873+922051247+920383845+919294974+916512057+911056016
991+903799177+896777064+891463599+887527199+883881911+880622210+878483509
981+876809193+874104240+870311667+866541148+863109188+859488398+855923935
971+853880840+854265116+855503180+854688076+851068240+846859979+844023715
961+841878934+838635446+834067228+830131900+829319181+832317631+837263449
951+841499903+844108891+846429032+850014178+854851753+859661134+863428315
941+866639974+870777066+876336701+881801742+885772535+889645575+896035215
931+904661727+911918506+915675674+918262846+922713344+928683362+933545673
921+935516108+934223327+930101732+925441602+923255336+923834760+924360718
911+922369778+918516706+915276556+914252416+915267734+916843165+917396839
901+916625307+915645275+916153232+919551277+925921724+933187504+937741536
891+937801439+935490657+933917730+933723178+933299204+932211346+933021503
881+938369121+947477483+956158117+959825876+957244127+951566891+946654273
871+943573508+942480345+944578336+949550917+953612370+953593892+951566891
861+951778728+955143871+959428367+962497092+963782304+963520994+962060602
851+959873679+957801318+956455309+955900562+956818306+961188753+970095709
841+980906163+988769010+991988000+993880472+997212771+999078898+994273092
831+984680973+978612189+980501084+987589359+995555026+1002975541+1009550376
821+1014343485+1017212770+1018519320+1018294012+1017385149+1015973931
813+1012295205+1006606345+1003157338+1004618863+1008519202+1011782002
804+1013873437+1013468358+1009368698+1005237686+1005787129+1009626909
795+1011217181+1008366374+1003657904+1000216050+999687946+1001971548+1003961653
785+1000891617+992295445+983795833+979937575+978854664+974549901+964907058
776+955758224+952718110+954259327+955902767+956389743+956979658+956222908
766+950750833+942302303+937201570+939006184+946335086+956759297+968542928
756+978158294+981942760+980760964+978694206+977539053+975198051+969239000
746+960971372+955545850+958319289+969770025+983255033+989277980+985295684
736+979069720+978532258+983220342+986525939+985027519+981855140+980410484
726+979675788+978363932+978208601+980559140+984246330+986248238+983709226
716+976858300+969408041+966722460+971736943+982353561+992932865+999241322
706+999872186+993876061+982088793+968602116+958201807+953164793+952962969
696+955744455+960458349+967673106+976441241+983817469+986992113+984452088
686+977408875+970840001+970068111+975482190+981645091+982053805+975349329
676+964437904+952036343+941091300+935046418+935813480+941547639+946635259
666+947497630+945176834+944880654+950701480+960412631+968636270+974327931
656+978773719+979655581+975067753+967586440+960199661+954143037+947590078
646+939596873+935246453+942034615+958845069+969287161+956356483+927594550
636+900967264+885302308+879928880+879235789+879385279+882891388+893706491
626+909757989+924092255+933897464+936105725+928628525+917396064+906763831
616+896085224+889190547+892275246+901865637+906163008+901335209+897303260
606+900161995+902667211+896726042+886026037+879677941
##END=
