##TITLE=<SNM>
##JCAMP-DX=4.24
##DATA TYPE=INFRARED SPECTRUM
##DATE=29/4/2025
##SAMPLING PROCEDURE=Instrument type and / or accessory
##ORIGIN=Admin
##XUNITS=1/CM
##YUNITS=ABSORBANCE
##RESOLUTION=4
##FIRSTX=4497.3318
##LASTX=599.83466
##DELTAX=-1.4281778
##MAXY=2.2243476
##MINY=0.517582
##XFACTOR=1
##YFACTOR=2.0715851e-09
##NPOINTS=2730
##FIRSTY=0.53504789
##XYDATA=(X++(Y..Y))
4497+258279460+258983868+259415254+259530862+259353997+258723103+257574448
4487+256487971+256473383+258021486+260477016+262387480+262677075+261557711
4477+260114799+259100886+258434544+257760232+257082985+256733371+256796354
4467+256776501+256274421+255885935+256597306+258226001+259374541+259259681
4457+258668464+258609164+258937314+258831201+257948548+256642335+255617373
4447+255592254+256652319+257815849+257925415+257011284+256127480+256085213
4437+256928650+258171995+258996931+258718385+257560494+256628179+256788614
4427+257823791+258800070+259092053+258838999+258399729+257801290+257054127
4417+256528252+256374664+255968627+254835222+253823035+254244321+255992681
4407+257493598+257588374+256659455+255662862+254885861+254066220+253183451
4397+252678408+252847762+253222035+253060075+252612288+253154247+255371742
4387+258286366+260093594+259694433+257337046+254324337+252256315+252043226
4377+253379363+255156927+256268264+256187010+255252365+254404872+254366921
4367+255089772+255931942+256227292+255826865+255145964+254539613+253917955
4357+253303461+253202182+253985772+255328612+256477986+256804756+256166409
4347+255092217+254354031+254129174+253976622+253714073+253723712+254214484
4337+254805356+255140325+255285741+255254955+254782223+253833680+252898690
4327+252548989+252855589+253271034+253205692+252715582+252177306+251532975
4317+250620111+249848289+249851310+250838407+252595370+254670787+256495768
4307+257644049+257925501+257368869+256425448+255788713+255642175+255587449
4297+255486976+255755711+256650132+257729244+258213427+257762304+256769509
4287+255866571+255344005+255091901+254910836+254841523+255143375+255857163
4277+256552104+256663857+255979849+254813614+253824214+253444015+253436246
4267+253408107+253517902+253992792+254434104+254358059+253937520+253647810
4257+253632417+253821797+254301809+255134484+255893617+255913442+255204689
4247+254510697+254260549+254235258+254328740+254775289+255546103+256188996
4237+256323766+256013167+255700209+255787274+256201080+256602399+256946892
4227+257359834+257683237+257754276+257932493+258665529+259552326+259558081
4217+258387472+256968931+256296202+256426570+256786974+256854359+256405566
4207+255698799+255435301+256007902+256938145+257481456+257469918+257193788
4197+256898899+256747556+256870386+257203657+257573556+257973494+258412850
4187+258609020+258251896+257442785+256563613+255984279+256048730+256838765
4177+257809491+258268297+258268182+258418172+258974028+259584436+259726946
4167+259116222+257978903+257073347+257059680+257851153+258926525+259992574
4157+260827005+260826257+259539810+257628886+256504659+256857870+258090252
4147+259188815+259637435+259486610+258970633+258259837+257335061+256104146
4137+254933307+254677692+255666056+257046703+257799363+258101330+258832036
4127+259952321+260382815+259556412+258222836+257453172+257480621+257784919
4117+257908669+257817863+257582850+257177273+256759180+256655570+256818710
4107+256882700+256897173+257288450+258027068+258621335+258905636+259133025
4097+259425209+259620920+259498349+258960304+258163795+257493598+257290435
4087+257606558+258215413+258784072+259108511+259227485+259254157+259214710
4077+259105921+258891940+258459058+257862087+257490634+257690401+258409972
4067+259383345+260302741+260700406+260178156+258989939+257966042+257685078
4057+257977378+258285416+258370813+258562495+259213732+260049543+260386412
4047+259991020+259309803+258803551+258542642+258517869+258803206+259259077
4037+259518403+259443336+259231686+259029645+258862276+258862132+259111158
4027+259400436+259560411+259840454+260590869+261702206+262632794+262954586
4017+262713213+262236540+261753536+261379379+261269842+261398541+261379609
4007+261034166+260926356+261813584+263666561+265545692+266421842+266007490
3997+264879091+263928649+263608268+263667683+263708252+263757280+264029209
3987+264387858+264386045+263763956+262845337+262442436+263137838+264644451
3977+266160559+267183018+267534820+267014498+265710069+264292564+263404731
3967+263082566+263084148+263364968+263951178+264735516+265613422+266431366
3957+266698519+265990629+264849340+264554508+265743646+267748139+269354880
3947+269895487+269609805+269129736+268707413+268061903+267009492+265888660
3937+265302564+265854420+267862883+270735729+272834711+272889350+271528440
3927+270499220+270729256+271620195+272077218+272036677+272450339+273797035
3917+275109521+274818429+272706472+270308113+269083412+269036254+269461339
3907+270489005+272982313+276922877+280762306+282919782+283034786+281354847
3897+278423132+275542920+274273939+275066045+276389867+276179771+275049098
3887+275621412+278575454+281433223+282206167+281992589+281710676+280489111
3878+278545818+277756013+278939828+281159136+283515027+285533330+286179992
3868+285183716+283949060+283368460+282741623+281316867+279580994+278455098
3858+278726739+281581919+288100411+295568481+296987972+291815773+285378937
3848+281167653+280081607+281272816+283201033+285120157+287395715+290077800
3838+291997155+292150023+291082736+289790535+288514361+287042850+285586588
3828+284723011+284742519+285959710+289080574+293570808+296369968+295978892
3818+294836740+294247796+292655699+289552270+286855196+286292204+288280671
3808+291738519+294322662+295259148+296473980+299004232+300871163+300474736
3798+298950658+297293737+295389833+293626109+293036071+294054445+296284542
3788+299310400+302927619+306553182+309467345+311841765+314342008+316894961
3778+319053214+321148426+323975380+328307767+334923654+343545299+351860921
3768+357671437+361319500+364372231+367894357+372345863+377305519+381246227
3758+383076560+383902934+386078565+391259943+399186301+406781028+410840134
3748+412803511+416214546+422211594+428015810+430736449+432087720+435554085
3738+442766252+451845208+458245963+459564922+457869417+456222423+456226767
3728+458542722+462961830+467800469+470781154+470925017+469003706+466725040
3718+465507504+465834215+467988497+472137115+476426517+476935243+472517603
3708+466292072+461792487+460781883+462556023+464402813+464683575+464960309
3698+467255749+471493417+476424819+481207467+485413112+487977603+486953188
3688+481961019+475962560+472165255+471392627+472858556+475796773+480414699
3678+487350018+494957980+498384668+496480044+494197926+494474545+494490715
3668+491059884+486030800+482717908+481866731+481696916+480586989+479081325
3658+478430434+478350792+477949876+478150995+480917182+486628174+491993724
3648+492308955+487829483+482594272+479298816+477833606+476668349+475461085
3638+475813346+478833076+483108149+486361856+488601506+491474496+494487780
3628+494508727+491291618+488137809+487367397+489235882+492524058+495299394
3618+496712814+498119558+501009351+504893981+508072765+509433128+508612997
3608+505906485+502962427+501679980+502349113+503918537+505760378+508526910
3598+512773498+517287267+519695179+519063220+517141736+516514956+518190320
3588+520493270+520726154+518784587+516767981+516012531+516360333+516974913
3578+517229492+517254294+517849079+519595396+522252419+525263344+528266789
3568+530551784+530931523+529273998+527152776+526069664+526023744+526124332
3558+526111960+526642870+528040810+529636934+530712910+531449140+532490531
3548+534121874+536143658+537818044+537994650+535992257+532411177+528838958
3538+527212507+529008658+533317107+536439439+535672307+532597335+530579981
3528+530706407+531694915+532238312+531997486+531124471+529904058+528801151
3518+528419110+529073914+530175900+530332710+528727666+526329998+524891546
3508+524854833+525241880+525569886+526643560+528835851+530730058+530671362
3498+528918658+527189547+526776029+527949371+530396988+533176640+534843948
3488+534668666+533263821+531411793+529156434+526678260+524946674+524759653
3478+525998309+528020036+530004244+530932329+529843923+526618125+522536461
3468+519362741+517680299+516860169+516430826+516280115+515766181+514243024
3458+512400607+511612471+512126117+512898773+513086888+512927661+513167911
3448+514025273+514804605+514567174+513156805+511398058+510441028+510780313
3438+511726467+512267102+512279877+512054589+511095947+508871604+506449537
3428+505769240+507395864+509985329+511693667+511584504+510053865+508308469
3418+507169539+506206697+504373660+501685619+499716891+499978088+502117840
3408+504170814+504698731+504259318+504171734+504598660+504609709+503593868
3398+502077673+501187453+501491060+502386402+502685060+501990262+501235503
3388+501566329+503140126+505130433+506320693+505737821+503396143+500544042
3378+498746510+498613869+499635925+500979830+501889098+501706105+500362833
3368+498843761+498540614+499952595+502225967+504066600+504885925+504907677
3358+504650508+504631864+505086987+505698460+506073423+506404249+506940395
3348+507140019+506196972+504362496+503082178+503455242+504884716+505795481
3338+505633607+505461547+506298021+507642559+508197062+507463076+506110827
3328+505079621+504756621+505097288+506130047+507834068+509636319+510634954
3318+510484187+509665207+508924028+508822000+509418684+510117855+510464334
3308+510901675+511839486+512500965+511748795+509589650+507042365+505282870
3298+505329712+507259942+509321318+509282303+507191579+505385415+505707264
3288+508018960+511135135+514098528+516498326+518187788+518946461+518623001
3278+517638925+516962253+517215796+518001285+518479139+518306504+517675581
3268+516728103+515348462+513597657+512075535+511600559+512532442+514352704
3258+515770324+515538015+513857530+512642526+513401831+515230150+515835465
3248+514403286+512276137+510951682+510741355+511194004+511886500+512792373
3238+514003924+515188718+515552459+514487647+512195574+509539183+507535180
3228+506958925+507887010+509354119+510006391+509553052+509046253+509154610
3218+508962122+507408581+505091303+503593062+503728293+505118349+506668956
3208+507167698+506286972+504985017+504229107+503809546+502984927+501697531
3198+500567175+500115332+500403000+501090835+501534794+500950885+498943429
3188+496277774+494736202+495505405+497776360+499380598+498696274+495675105
3178+491554598+488068007+486376185+486265065+486594338+486557624+486150839
3168+485649795+485242204+485099780+485381520+486066881+486756442+486697113
3158+485425427+483382523+481462420+480161588+479548590+479684972+480481566
3148+481346582+481501465+480742562+479685202+479000503+478453711+477116107
3138+474761770+472499648+471481678+471495834+471450402+470977584+470791887
3128+471368746+472016184+471754844+470714345+469913492+469813651+469904975
3118+469591412+468723836+467543186+466626552+466435042+466664560+466626782
3108+466207625+465729282+465277324+464898189+464791098+464727309+464082288
3098+462787152+461390450+460146327+458947177+458073730+458085757+458882698
3088+459682889+460052385+460207929+460237968+459892871+459191023+458395464
3078+457490225+456459767+455673703+455291432+454933300+454427567+454060315
3068+453760851+453119713+452376635+452175401+452373183+452294835+452024777
3058+452238527+452891663+453220417+452998322+452776285+452756864+452285311
3048+450833538+448998803+447920727+447856392+447963857+447581960+447100769
3038+447248171+448022438+448656267+448452788+447412289+445974039+444453902
3028+443082433+442335989+442580296+443373179+443707774+443086519+441942065
3018+441013980+440710430+440950507+441203389+440792201+439511739+437909256
3008+436762615+436391508+436539082+436659092+436282057+435417502+434613397
2998+434307776+434280183+434121877+433930396+434014872+434180860+433887208
2988+433008900+431995849+431285514+430850733+430398401+429840244+429394644
2978+429250437+429260076+429012603+428260376+427277968+426650527+426598477
2968+426776464+426906343+427116583+427366616+427081625+425878791+424268251
2958+423093270+422631558+422572459+422502945+422161617+421545109+420952798
2948+420621426+420315804+419689341+418914728+418412275+418202696+418113961
2938+418238978+418621278+418880259+418631521+418004482+417424659+417064399
2928+416650190+415762214+414376474+413015075+412162489+411763645+411558583
2918+411581170+411956593+412479849+412751548+412560959+412003665+411397630
2908+411035989+410874949+410565184+409941714+409298361+408989028+409007270
2898+409088120+408963967+408387194+407239460+405902000+405187234+405504306
2888+406300355+406707284+406526535+406159139+405890001+405704189+405480598
2878+405040408+404314248+403566221+403139554+403054790+403101027+403089576
2868+402855368+402292895+401532438+400870585+400456520+400167126+399793314
2858+399310713+398980204+399092733+399567910+399952138+399895571+399450116
2848+398849721+398282672+397925405+397818371+397661475+397152863+396497829
2838+396125254+396013157+395807894+395444843+395124317+394818897+394271271
2828+393462879+392748487+392407648+392240998+391836112+391173194+390646859
2818+390479748+390481877+390400710+390175882+389821117+389307471+388601509
2808+387748722+386968613+386561943+386576070+386719674+386743123+386703763
2798+386729658+386693865+386274190+385358131+384333975+383796879+383871544
2788+384019866+383664842+382801610+381869151+381268699+381113126+381205255
2778+381188711+380865625+380381931+380020778+379829729+379565742+379031811
2768+378317563+377648746+377180560+376983268+377008213+377027174+376811179
2758+376353697+375788692+375231714+374795207+374555676+374444039+374326158
2748+374166988+373972371+373671123+373209613+372675250+372229478+371973259
2738+371875174+371754358+371376978+370699674+370012990+369691026+369762641
2728+369851979+369587675+368975569+368329973+367922295+367742870+367619609
2718+367531622+367635952+367913232+367989652+367469388+366361561+365120834
2708+364307493+364159315+364442954+364760084+364945466+365048212+365060469
2698+364885043+364501592+363984839+363404555+362834688+362410466+362233803
2688+362243212+362297218+362317876+362229487+361901653+361348877+360822283
2678+360524574+360368828+360112264+359638007+359082555+358717345+358658103
2668+358733084+358753858+358764331+358823746+358743989+358317811+357660935
2658+357087442+356767147+356647511+356581593+356462676+356339846+356390342
2648+356661062+356886639+356710494+356095798+355443267+355224165+355443871
2638+355579160+355211390+354548501+354042450+353737001+353370354+352935832
2628+352745559+352990298+353500492+353922814+354015807+353813910+353531077
2618+353273563+352935141+352491728+352224777+352371488+352698689+352756349
2608+352443420+352033728+351793881+351791262+351892570+351833846+351480405
2598+351009600+350666805+350474979+350361356+350353012+350434036+350425030
2588+350227651+349987976+349832748+349687016+349508626+349413188+349432897
2578+349455915+349452606+349457296+349397219+349235058+349114184+349112976
2568+349097870+349016157+349050281+349285553+349487680+349446363+349338293
2558+349443802+349644202+349545484+349022889+348341097+347823969+347641292
2548+347781817+348051214+348215735+348225000+348202759+348265569+348425256
2538+348596510+348672153+348643668+348606839+348592827+348507977+348339083
2528+348263670+348392513+348557351+348581462+348589518+348767793+348993484
2518+349011035+348817022+348572370+348299808+347983081+347821322+348041949
2508+348540806+348999210+349263773+349356995+349285409+349117637+349045130
2498+349131592+349227663+349266161+349372274+349596296+349795632+349831367
2488+349690526+349417648+349109408+348970495+349176621+349616523+349948586
2478+350006275+349933136+349863765+349789935+349775606+349925338+350107641
2468+350081055+349893516+349823052+349962685+350149274+350264105+350367600
2458+350521763+350648765+350644794+350564634+350586300+350775508+350970729
2448+350964428+350752317+350535775+350496558+350630005+350821026+351030345
2438+351298304+351564938+351675281+351635258+351656521+351851483+352085634
2428+352210679+352244515+352254442+352233841+352168268+352133454+352273547
2418+352680879+353275779+353819003+354103994+354130782+354044493+353967527
2408+353973137+354129688+354455076+354906632+355476499+356159903+356791200
2398+357126198+357134744+357034385+357022733+357092736+357111064+357022733
2388+356928474+356883819+356664601+355876753+354294900+351980298+349145000
2378+346048793+342945221+339950235+336974758+333881601+330666420+327464503
2368+324520100+322155520+320542679+319523356+318935678+319013105+320163457
2358+322544409+326068232+330633303+336172610+342260522+347668684+350847352
2348+351014693+348821252+346163106+344758347+344701896+345178943+345859470
2338+346859774+348145271+349376072+350141794+350405493+350701246+351623576
2328+353147540+354704649+355849592+356666242+357588457+358928737+360620645
2318+362396655+364075098+365610254+367036448+368461837+369976190+371512669
2308+372893144+373965005+374627377+374873842+374906671+375044693+375415743
2298+375836368+376037027+375977525+375922570+376160202+376650859+377069786
2288+377192069+377093696+376999495+377088287+377393103+377779632+378100992
2278+378372202+378654431+378888178+379027610+379141491+379219925+379125839
2268+378843898+378525559+378269340+378076248+377945765+377850298+377749882
2258+377718088+377857893+378064825+378106603+377936874+377722030+377601559
2248+377596150+377691847+377878034+378130052+378402211+378621084+378736663
2238+378791963+378860384+378963850+379149548+379512628+380011284+380411192
2228+380540956+380481973+380433405+380481800+380509652+380302634+379794425
2218+379153000+378567970+378064365+377597330+377210915+377000761+376968076
2208+376998373+377007034+377025563+377086532+377127619+377094617+377035173
2198+377030483+377137373+377401418+377805700+378237920+378615847+378979387
2188+379380706+379770746+380068311+380280824+380525735+380957006+381628872
2178+382405327+383083552+383613943+384067916+384408179+384499589+384374717
2168+384288514+384446619+384813123+385216801+385533384+385739108+385882654
2158+386044269+386265615+386508714+386754258+387100938+387612196+388101933
2148+388311224+388295197+388365834+388652926+388999059+389279475+389547117
2138+389847099+390128350+390370240+390628444+390927851+391220323+391464170
2128+391679848+391926486+392260218+392720693+393315650+393977906+394589437
2118+395129208+395729863+396471243+397225054+397862479+398467248+399129590
2108+399696293+399985485+400117724+400396731+400961880+401709360+402448237
2098+403058703+403588606+404201603+404972620+405778278+406395735+406660327
2088+406569349+406324265+406244450+406543799+407168794+407855996+408361299
2078+408649656+408823183+408926966+409015930+409339419+410139870+411272815
2068+412280916+412832686+412961903+412959659+413084186+413315229+413470658
2058+413573232+413890017+414583722+415528754+416459429+417153622+417523953
2048+417642956+417691064+417878142+418348745+419062648+419845605+420642199
2038+421561308+422605317+423603521+424491670+425396392+426387201+427395619
2028+428404411+429473999+430547471+431445087+432159824+433013331+434319688
2018+435941276+437428900+438618584+439759212+441037803+442404496+443863577
2008+445510054+447268167+448932598+450476990+452131436+454134346+456406538
1998+458510756+460142357+461577989+463259913+465058308+466424512+467216819
1988+467863855+468805118+470162172+471807239+473466807+474880341+476067839
1978+477341482+478941433+480771938+482561184+484201043+485915825+488062482
1968+490630656+493045013+494791445+496089429+497543590+499440503+501731022
1958+504320373+507025389+509571063+511901692+514219200+516640577+519105515
1948+521620576+524326685+527260442+530149027+532573856+534414317+535942654
1938+537404583+538890107+540653975+543027417+545869448+548627520+551090560
1928+553692800+556981150+560915844+564692347+567423546+569121295+570531838
1918+572035833+573405403+574615573+576121410+578206609+580540230+582471439
1908+583728797+584777151+586322175+588518667+590802569+592456929+593350142
1898+594140810+595576672+597582631+599474019+601023878+602460660+603542448
1888+603801516+603597864+603773894+604534351+605370709+605772028+605667411
1878+605380146+605329162+605720007+606567472+607943084+609863705+611743814
1868+612399769+611454017+610071097+609432981+609443627+609304195+608677588
1858+607791741+606908771+606167707+605567743+605014333+604621359+604698354
1848+605341706+606324402+607065005+606533981+604262221+601280356+598869509
1838+597297611+596143489+595262246+595091107+595972120+597227694+597367528
1828+595974480+594223962+592722326+590705490+587906791+585442371+584172814
1818+583623720+582950156+582131118+581666558+581661494+581685778+581297695
1808+580495633+579743117+579717798+580846830+582697533+584017442+584058587
1798+583630222+584057551+585764335+588131734+589719112+589163861+587058291
1788+585482019+585550325+586594075+587505070+588209305+589137390+590203813
1778+591324674+593158057+596491464+601015304+604764300+605880557+604969103
1768+603582787+602442073+602315244+604219062+607837144+611134470+612840563
1758+613540368+613689236+613377745+613688028+616011694+620117642+623873659
1748+625773966+626570906+627545776+629001893+630643364+632217736+633491264
1738+634710469+637082012+641283139+645052565+645150794+642612371+640104791
1728+638578756+638348174+639637871+641781709+643779095+646086533+650428645
1718+657141150+662814738+663650521+660836803+657845443+656588316+657362698
1708+659755590+662769853+665114293+666887713+669933683+675323287+680900890
1698+683567696+682891485+679452196+675022557+672549907+673292928+676327964
1688+680492091+685879220+691987387+695144189+693186912+689640359+687765371
1678+688470354+691621862+695758021+698632277+700069693+701593656+703104211
1668+702964147+701710990+701787985+703999726+706444063+707025670+706334095
1658+706278967+708173002+712967533+720284548+725312654+725102730+724135917
1648+725413933+727188965+725962624+722160571+718910546+717870651+719189409
1638+722314446+725593876+726123462+723225325+719984278+718880220+720182060
1628+722888515+725793327+728133105+729081791+727962714+725965156+725509630
1618+727428755+729484146+728669309+725770999+723646094+723716414+725733423
1608+728341648+730177908+731085277+731782607+732578799+733251097+734004705
1598+735598816+738439868+742089773+745750208+748967316+751690402+753934713
1588+755887328+758178366+761325385+765028173+768651434+772119842+775820271
1578+779695406+782627667+783621641+784076419+786009182+788878604+789621509
1568+786638724+782508319+779939569+779538769+781554856+786528640+792702869
1558+794137293+789569431+784090000+780293010+778520511+778168450+778058540
1548+778103827+779679869+783327874+787608932+791095236+793171803+791939478
1538+787542467+784430781+785217651+788240603+789647865+788620112+788222131
1528+790639365+795199918+799991572+804473346+809340614+814385409+818613352
1518+821882539+824420963+826163827+827577419+829907184+834196068+840518015
1508+847537695+851668272+850655136+848392813+848361106+850442565+853352153
1498+856139056+858307522+860006250+862649520+867848880+875407181+882329092
1488+885352619+884979901+884244936+885396181+888648334+892702722+896659226
1478+901055489+906553450+912883280+919480235+925469515+929278646+930761925
1468+932028144+935076244+939732552+943707700+945911154+948159609+952453556
1458+958405892+962441348+961624727+957670295+953463931+950838902+950494668
1448+951370675+951378156+949461621+945865694+941197359+936726460+934830642
1438+937638606+943937247+948232288+947312029+944176577+943141343+945479567
1428+948618415+949169926+946635013+943574771+942641047+943921940+945231606
1418+944699027+943080172+942556053+944285854+947471946+949743822+949653188
1408+948624802+948972086+951208168+953726739+954315826+952475136+950164993
1398+950290096+954043063+959692080+964323241+966200990+965502164+963722356
1388+962517480+962446124+963080385+964178227+965873560+968002838+969758880
1378+970586377+971523439+974684729+980215030+984704343+985225816+983487152
1368+983410042+986642227+991947297+997535604+1002170851+1005475888+1008399517
1358+1012143508+1016512091+1019206577+1018346049+1016000632+1016089136
1350+1018995732+1020791020+1018293568+1013512042+1011190103+1013886775
1341+1020803680+1029367866+1037366501+1043353479+1045281696+1042000827
1332+1036839504+1035241250+1038185481+1041529764+1043071624+1045604868
1324+1049476263+1049413769+1043630961+1038732503+1041131438+1049745343
1315+1058224133+1060653566+1055682948+1047359414+1041174596+1040507535
1307+1045414624+1052799600+1058773342+1061124169+1059747924+1056586749
1298+1055359085+1059126208+1066627194+1072604389+1073741823+1071820512
1290+1069664647+1066653204+1060449052+1052002027+1044837218+1040338008
1281+1036205129+1029344158+1019841528+1012086538+1010834820+1015801526
1273+1020933501+1020226043+1014668581+1010216903+1010739641+1015069439
1264+1018456996+1017376992+1013145481+1009283984+1006568322+1002927797
1255+998050171+994600466+993901524+993786665+990841974+983461717+973591950
1245+965246147+960826003+959047058+956433596+950723870+942380944+933273302
1235+924996150+918385154+913451192+909291209+904809722+900058522+895961091
1225+892690120+889463862+885684999+881599882+878049415+875932509+875395327
1215+875336861+874278494+871928415+869372958+867978759+868483428+870465392
1205+872641110+874322688+875957598+877903539+880013943+882488376+885439570
1195+887796669+888280334+887322844+886973028+888951711+893139431+898079493
1185+902979562+908454447+914898735+921295548+926049913+928394583+929579894
1175+932323408+937614609+943008069+945843482+947091056+949732831+955006251
1165+962100336+970137526+978885742+987762513+994988204+998061680+996220241
1155+992259767+990042559+991436068+995694395+1000487085+1003785908+1004941756
1145+1004075934+1001724417+999876878+1001311589+1006377618+1011849338
1137+1015260719+1017698438+1019529749+1017946227+1012158239+1007110510
1128+1008067828+1014476151+1020811966+1022019720+1018661856+1015933189
1120+1017359153+1022137572+1028187619+1034287845+1039232684+1042011761
1111+1042695165+1042541059+1044194441+1048751427+1052565162+1051796706
1103+1049010494+1049231812+1050632456+1046267901+1034550135+1021700575
1094+1015058275+1017831943+1027716556+1037734559+1040163877+1035390867
1085+1032114602+1035996470+1043450154+1046244768+1045313345+1047681321
1077+1053083872+1055036372+1050770449+1043456254+1034645775+1024677722
1068+1016720404+1013320763+1013494664+1014352199+1014368081+1013918540
1060+1013917619+1015389504+1018993200+1022546486+1021522071+1014439322
1051+1005743587+1001403661+1003305868+1008974392+1014915909+1019785364
1043+1024579550+1029742944+1032078464+1028228591+1021130305+1017055776
1034+1018987215+1023405633+1023914100+1019013916+1012009313+1005926005
1025+1002494023+1002781863+1006158947+1009848730+1011227392+1009950009
1017+1007040881+1003086621+998319942+994108571+992641175+994160016+995803616
1007+994443828+990571743+987607717+986500206+984750955+981015020+975993302
997+969965812+963185692+957131329+953432914+951865389+950072749+945450277
987+937984508+931085328+928370241+929684396+930744259+927350602+919876490
977+912156430+906799109+903861957+902392258+900814375+898028509+895043191
967+893733698+894208329+894102504+890675183+883817550+876380381+871416610
957+869849201+870680150+873031092+877064706+882341349+886680066+888362106
947+888316127+888351978+889193688+891296093+895686889+902512009+909759740
937+914850282+916652418+916730737+918578908+923466029+928760166+932735084
927+938112834+947386262+957833608+964296540+965171971+962864418+960060367
917+958346448+959156279+963129988+967647671+967671955+961926781+955418791
907+952413563+951224971+948674003+945412412+944131749+946055707+950994964
897+957948928+963813220+964552673+960192663+955241437+953594040+956645131
887+963533264+969951771+971265062+968329464+965604479+965788969+967984309
877+969218533+967699922+965079267+964729451+968048759+973874381+980295363
867+985394998+987415517+986554068+986073913+989386777+995729613+999923950
857+997345706+989047377+980248752+975318069+975944849+981529357+989786484
847+997833687+1003204934+1004124387+1000442315+994790824+991478651+993220768
837+999910024+1009355570+1017886610+1023016974+1024934948+1025574502+1026737486
827+1028131340+1028211903+1025891345+1021756164+1016903972+1011279988
818+1007007850+1010377913+1024558603+1041537820+1047618251+1041983909
810+1036903264+1039876152+1048204980+1056294996+1061224067+1061163760
801+1054527330+1043180959+1032950040+1029097175+1032248452+1035790805
793+1032780858+1025468159+1019502243+1020026707+1027927286+1037338419
784+1039624796+1031567695+1018943021+1009297679+1003624206+998191962+992749589
774+991100926+994558803+998981248+1000014065+998030951+995657336+994640172
764+994325631+992991854+991324431+993679171+1002912605+1016056565+1027343550
754+1033411205+1033876054+1029779083+1023636963+1018693506+1016768512
746+1017654014+1019112088+1016305505+1005762002+993308236+990839097+1002592885
736+1020336414+1032559080+1036612432+1037916055+1040295309+1043950911
727+1049080469+1053890882+1052671390+1040232700+1019992641+1002801083+996513605
717+1001509199+1012642423+1020992197+1020142718+1014507685+1014555793
708+1024437414+1036419541+1039456764+1034529419+1029238965+1024956124
700+1018939223+1010494269+1003329001+999291416+997268941+994900160+989171789
690+981559626+977520085+979426204+983309914+984156400+982047837+979708289
680+978507671+977683973+975928736+973335760+970511338+965076850+952320685
670+934618013+924465585+929657982+939406157+943762656+946326226+954070570
660+968356164+982853122+988540405+981831238+967230240+952082679+943317660
650+946180465+958861361+972772855+983061089+991105300+995415187+994639021
640+990777984+983198507+973387321+966830532+966425991+970298307+976488649
630+984564394+991440096+990054298+983023110+976471270+969105285+964065152
620+964204641+964053873+960028372+952470475+944947909+941618128+944017235
610+949038320+950185364+950413127+953987935+949331224+928590351+905449334
600+894527703
##END=
