##TITLE=<SNM>
##JCAMP-DX=4.24
##DATA TYPE=INFRARED SPECTRUM
##DATE=29/4/2025
##SAMPLING PROCEDURE=Instrument type and / or accessory
##ORIGIN=Admin
##XUNITS=1/CM
##YUNITS=ABSORBANCE
##RESOLUTION=4
##FIRSTX=4497.3318
##LASTX=599.83466
##DELTAX=-1.4281778
##MAXY=2.2034886
##MINY=0.52192116
##XFACTOR=1
##YFACTOR=2.0521587e-09
##NPOINTS=2730
##FIRSTY=0.53470749
##XYDATA=(X++(Y..Y))
4497+260558550+260938486+261026579+261309563+262126623+263104418+263069971
4487+261331404+258985103+258034059+259232943+261450285+263115804+263490541
4477+262554803+260814958+259169712+258131562+257635621+257898622+259368147
4467+261497541+262821028+262768253+262270337+262278586+262816961+263507300
4457+264041144+264195779+264019244+263780931+263493009+262935552+262167257
4447+261407386+260545712+259423506+258272691+257439423+257225218+258012333
4437+259727954+261438115+262249367+262096794+261307994+260314573+259741722
4427+259729784+259559175+258840198+258273533+258429301+258713185+258316665
4417+257543578+257477414+258607201+260294561+261526905+261815146+261430999
4407+261105377+261358794+261799782+261457401+260290117+259606169+260297495
4397+261528154+261965628+261509391+260866571+260271674+259625397+259075868
4387+258713243+258297292+257722349+257363703+257707711+258708509+259552901
4377+259440120+258634183+258005420+257728565+257504745+257630684+258362904
4367+258784955+257933099+256466508+255850350+256445654+257394636+257904083
4357+257827463+257284295+256480449+255949858+256301243+257371575+258112741
4347+257733299+256594247+255658887+255457432+255886308+256588583+257169451
4337+257349530+257191874+257073632+257294577+257761269+258083609+257997607
4327+257765481+257887498+258198191+257963654+257253013+257021845+257454556
4317+257665799+257358853+257316273+257951978+258597703+258446902+257471286
4307+256319018+255699695+255802049+256146230+256217913+256201648+256686145
4297+257637335+258133653+257400155+255810704+254520096+254327877+255108922
4287+256210187+257097043+257521330+257427254+257001311+256638657+256584081
4277+256817283+257260304+257634198+257430245+256690821+256313412+256905986
4267+257913464+258429446+258391281+258442574+258912084+259433440+259563473
4257+259435995+259648778+260557069+261669370+261989880+261222109+260144225
4247+259469194+259146476+259180633+259890635+260740255+260384049+258726517
4237+257487202+258012740+259751364+261231432+261664433+261264049+260622826
4227+260190929+260115296+260329299+260716467+261070378+261069739+260646701
4217+260277948+260500286+261102821+261238083+260501186+259550519+259343923
4207+259976927+260718558+261156032+261608347+262268449+262774411+262813708
4197+262508128+262127030+261891070+261942711+262154855+262123022+261544187
4187+260573799+259827317+259848316+260350415+260383671+259613024+258890998
4177+259131228+260173038+261158123+261623392+261831876+262220642+262775689
4167+262945282+262223662+260922627+260108965+260442632+261380955+261955753
4157+262047825+262232579+262640717+262862039+262822683+262950539+263453508
4147+264013174+264164817+263596990+262261682+260603918+259460887+259248395
4137+259408868+259127510+258501332+258433396+259349819+260631917+261494782
4127+261878377+262063974+261991071+261556734+261045952+260726923+260477718
4117+260186631+260227235+261154608+262848737+264254798+264395172+263488740
4107+262616262+262512049+263058353+263623508+263622201+263025300+262337228
4097+261952645+261842158+261909920+262146432+262399965+262527907+262670256
4087+262886466+262772349+261945442+260747109+260009399+260173502+260948651
4077+261800769+262375741+262438159+261973615+261411220+261243253+261495885
4067+261937483+262481464+262997214+263162944+262899275+262643302+262926432
4057+263715813+264277598+263962171+263137384+262838774+263328296+263568875
4047+262547745+260757130+259761211+260410828+262061505+263578547+264511816
4037+264957189+264818907+263874920+262395927+261181620+260884462+261422634
4027+262115586+262423607+262459565+262647746+263085191+263554730+263987701
4017+264508156+265036279+265167416+264551810+263331201+262124474+261524088
4007+261689934+262433482+263473927+264515272+265287894+265697136+265863854
3997+265913259+265729144+265070726+264089416+263527108+264000655+265165441
3987+266008526+265948142+265283537+264623290+264271034+264279689+264822741
3977+266053110+267506369+268155841+267463673+266065367+265073543+264990969
3967+265554700+266375246+267319582+268250527+268835549+268882020+268523084
3957+267889093+267052020+266430228+266726050+268173907+270063362+271271569
3947+271428673+271319958+271765245+272461885+272420874+271375724+270118285
3937+269521588+269899694+271161606+272877401+274040241+273712499+272438127
3927+271934024+273038484+274736010+275624899+275774974+276192145+277166135
3917+277916247+277503288+275849212+273802393+272325839+271846193+272323603
3907+273747730+276256508+279558414+282569697+284268211+284460227+283231049
3897+280796306+278147560+276784834+277452401+279073307+279616998+279017686
3887+279173715+280708068+282025687+282168239+282171550+282190197+280859391
3878+278547218+277563498+278979899+281699049+284316280+286080610+286223336
3868+284908795+283789465+284004455+284752708+284596069+283581881+282907750
3858+283731753+287060264+293092241+298227225+296952621+291142518+285651327
3848+282298012+281189573+282181600+284838245+288109102+290974871+293057619
3838+294013630+293361690+291474733+289445659+287882233+286687154+285950431
3828+286059291+286917334+288297516+290669551+293924230+295877206+295141645
3818+293550888+292603532+291487280+289496081+287561084+286958200+288226618
3808+290722239+293020529+294945157+297762072+301219455+302718053+301422101
3798+299451988+298034629+296887357+296072300+296320460+297891350+300072445
3788+301966488+303463344+305221777+308117811+312793480+318812357+323985739
3778+326336484+326944655+328616215+332995859+339894679+347742018+354585507
3768+359923864+364684809+369106859+372733138+376156132+380582683+385745725
3758+389950752+392699034+395465004+399952753+406599755+413602323+418235209
3748+420659612+423102313+426212901+428012897+427686288+427618120+430202531
3738+436067558+443931074+451313927+456542842+459759589+461773123+463301579
3728+465180549+467848841+470572029+472262120+472867676+472906973+472274870
3718+470491778+467962232+466228400+466441241+467513635+466873428+463996245
3708+460830879+459694412+462195174+467969436+473656621+475455485+473705358
3698+471816630+472118028+474886177+479390830+484557677+488666158+489452751
3688+486444953+482187733+479481886+479550199+481895600+484511815+485654875
3678+485837829+486707751+488305305+489627659+491207641+493880174+495877472
3668+494317241+489482377+484034869+480482510+479950757+481756853+484211375
3658+485785983+485770880+485048651+485835795+489880582+496738187+502195889
3648+500996743+494201526+487353796+483504656+481668062+479429953+476501797
3638+474802237+475280751+476905927+479005492+482748182+489088703+495360532
3628+496681434+493353707+489649559+487905241+488390639+490498888+492575014
3618+493164392+493414585+495144729+497603898+498917539+499539912+501166946
3608+503454054+504905425+505556437+506171490+506618433+506574226+506574807
3598+507117423+507619493+507596954+507966404+509909389+513405053+517384430
3588+520224377+520637686+519144548+517507464+516886543+517218061+518100734
3578+519711329+522131637+524303785+525032636+525125464+526944775+531336763
3568+535986438+537988964+537673827+537234146+537489741+537821201+537271614
3558+535326597+532537768+530206047+529235310+529691431+531227555+533388957
3548+535529678+536865161+536844306+535564009+533981704+533390932+534004127
3538+534314790+532839486+530514097+529995414+532538756+536450168+538723625
3528+538207846+536402534+535031791+534038748+532309998+529556430+526713578
3518+524720056+523762157+523634475+524080546+524718313+524897055+523889257
3508+521843396+520475267+521491314+524212352+526206804+526605648+526863159
3498+528163555+530216329+532160301+532917442+531583122+529122442+527998639
3488+529025723+530773932+532397656+534327802+535732469+534476977+530694349
3478+527392531+526708757+527754371+528207762+526873790+524371924+521991640
3468+520420430+519364592+518101896+516408407+515056020+515115446+516425195
3458+517436013+517290208+516982623+517320473+517246409+515842729+514267801
3448+513848045+514033641+513802851+513382224+513218236+512879573+511873866
3438+510245612+508172797+506135649+505094101+505441419+506380962+507027675
3428+507302439+507316845+506811988+505783974+504988784+504994419+505040019
3418+503735208+501045365+498824828+498847773+500741149+502517416+503033310
3408+502968657+503238657+503684670+503659169+502981727+502006343+501235899
3398+500914198+500987159+501638402+503122827+504825145+505428988+504126617
3388+501070517+497333316+494524098+493458152+493607617+494294876+495458006
3378+496994305+498449568+499530850+500026529+499621179+498767783+498720092
3368+499767391+500693689+500753464+500929127+502205706+503719059+504100476
3358+503719350+503941891+504938827+505699337+505648567+505169792+504981639
3348+505561490+506732463+507751588+508201261+508462897+508988202+509524835
3338+509460529+508758341+508158042+508437454+509547432+510577420+510444569
3328+508610619+505622601+502993926+501989787+502494412+503424138+504091066
3318+504601151+504949632+504664411+503698496+502886285+502998515+503971459
3308+505410457+507076877+508541957+509168454+508878877+508363447+508259118
3298+508689853+509546793+510457872+510688081+509937272+509169268+509700440
3288+511489603+513380946+514798625+515976161+516923081+517271039+516916343
3278+516199051+515507610+514970222+514538557+514179098+513834278+513297761
3268+512566818+512331439+513371245+515386434+517130868+517693467+517034730
3258+515421463+513192096+511211353+510693077+511946653+513620159+513891903
3248+512476721+510676521+509610924+509331745+509505317+510030622+510808908
3238+511579700+512152232+512389180+512089089+511395730+510911378+510902084
3228+510982073+510898192+510945302+511200142+510921950+509399884+507253121
3218+506031088+506368589+507266714+507424021+506614076+505432531+504435944
3208+503833728+503472004+502924625+501885109+500616779+499804510+499715807
3198+499733757+499258525+498765460+499084837+500005849+500520059+500206491
3188+499569944+499147748+498981205+498853117+498631505+498287614+497591932
3178+496072015+493523852+490403505+487595855+485912735+485631378+486316459
3168+487204621+487732715+487572213+486490583+484564067+482310535+480400080
3158+479298612+479006247+479011330+478710745+477981893+477251444+476943511
3148+476984667+476886670+476147188+474583878+472547630+470901920+470365287
3138+470816761+471541313+471961244+471837368+471132362+470097058+469198991
3128+468732008+468685595+468936048+469325656+469563678+469230302+468090146
3118+466529479+465394377+465073751+465183628+465381655+465677245+465759558
3108+465119264+463971412+463035848+462610980+462554110+462678596+462670144
3098+462097380+461055250+460282338+460161076+460202494+459914107+459507596
3088+459273523+458984556+458535058+458380713+458699945+458885832+458441040
3078+457755029+457470564+457475502+457041949+455879080+454545805+453766881
3068+453793515+454476562+455429902+455945593+455302046+453490984+451362838
3058+449893343+449410850+449491595+449446226+448925307+448199709+447862353
3048+448018759+447858112+446584321+444627686+443192115+442817204+443057695
3038+443356538+443589013+443784978+443868947+443763282+443451340+442881945
3028+442121754+441616228+441792385+442334420+442433463+441846844+441094060
3018+440508864+439721923+438347288+436763966+435804760+435758491+436049318
3008+436013360+435659681+435362203+435064610+434292598+432904080+431380299
2998+430321557+429991839+430317316+430920636+431200599+430791038+429869648
2988+428811863+427873395+427304639+427242483+427387736+427363455+427347073
2978+427704267+428159400+428009180+427075359+425836770+424694291+423784984
2968+423392239+423701509+424172442+424005695+423263803+422720896+422702569
2958+422788193+422500649+421806884+421067838+420707507+420824732+421160752
2948+421407140+421264326+420461033+419234498+418400097+418334601+418337418
2938+417587451+416287752+415273070+414909341+414850206+414651627+414314096
2928+414132421+414149790+414015225+413409088+412386244+411289685+410485491
2918+410191267+410409916+410885700+411178298+410999004+410489005+409997915
2908+409679264+409461544+409231189+408914455+408599086+408572626+408925637
2898+409188522+408733825+407540866+406252988+405457421+405187129+405194507
2888+405401161+405770234+405990219+405758122+405218759+404707599+404278025
2878+403825594+403420679+403209581+403124335+402897901+402354646+401603256
2868+400935369+400580528+400552123+400664729+400683957+400484826+400046916
2858+399397880+398703941+398287350+398357581+398783611+399219719+399347052
2848+399004206+398278085+397454402+396787968+396374718+396189789+396081249
2838+395819003+395374297+395031422+394968250+394900343+394456625+393711072
2828+393008477+392512188+392197778+392019181+391849268+391525680+391144582
2818+391009146+391091633+390889307+390111021+389184665+388683205+388510156
2808+388141025+387533029+387230905+387568812+388217268+388542831+388161734
2798+387197213+386132080+385340375+384800286+384337514+383964637+383794143
2788+383740991+383571979+383222744+382855849+382590699+382312043+381800650
2778+381027098+380264671+379849388+379816799+379857956+379657634+379146183
2768+378408821+377589175+376967558+376835549+377132968+377466926+377577703
2758+377497278+377245110+376744028+376038500+375272355+374507836+373808407
2748+373342121+373182578+373196258+373248132+373279617+373149815+372690994
2738+372002456+371447409+371255684+371295969+371321296+371282783+371266837
2728+371240784+371052719+370646410+370110329+369528619+368922714+368349514
2718+367915584+367601145+367164397+366411293+365534574+364945574+364782226
2708+364817689+364811474+364712866+364615740+364703572+365015165+365161319
2698+364681179+363742710+362991059+362716062+362663258+362552452+362301592
2688+361895893+361434806+361140756+361092309+361124840+361043776+360764742
2678+360328924+359935337+359816253+359965776+360137750+360161771+360105714
2668+360087270+360068188+359905246+359540850+359047407+358492534+357911811
2658+357437305+357246887+357298732+357315288+357133874+356879993+356696807
2648+356525210+356280507+356067027+356064471+356277051+356487045+356440864
2638+356076612+355610500+355362922+355407825+355438555+355125306+354580889
2628+354240222+354264271+354323523+354038273+353449418+352946884+352806249
2618+352894197+352852604+352500145+351972778+351555171+351486654+351814019
2608+352310628+352648158+352708803+352593582+352363053+351994242+351567137
2598+351250287+351073985+350903840+350685394+350561547+350658469+350859634
2588+350904915+350658818+350219311+349821890+349632489+349591129+349530135
2578+349470506+349641783+350120849+350608338+350707613+350356722+349873009
2568+349593133+349571088+349639431+349641696+349529786+349322551+349062338
2558+348819059+348711186+348875522+349315174+349758863+349846317+349518372
2548+349078197+348849643+348920077+349189787+349517587+349791742+349952679
2538+349964297+349784626+349463738+349230508+349290631+349514538+349543466
2528+349260657+348929952+348837299+349043604+349464377+349927904+350208710
2518+350205863+350007603+349735075+349521044+349570188+349929966+350303367
2508+350394045+350278708+350159392+350005512+349755871+349619767+349834961
2498+350261194+350502963+350394016+350150794+350062236+350196946+350417339
2488+350563754+350611010+350657046+350736309+350748566+350671597+350683593
2478+350926989+351312850+351682910+351986923+352215186+352336477+352363576
2468+352356315+352327880+352234879+352067871+351869669+351666384+351484272
2458+351437278+351634434+351951720+352078356+351882623+351590635+351521827
2448+351751746+352104874+352390937+352544380+352575400+352526140+352478332
2438+352452221+352321432+352003420+351659790+351517209+351621277+351913497
2428+352341793+352753649+352907615+352763582+352621262+352821614+353358914
2418+353916924+354289279+354576010+354906075+355222897+355450986+355625052
2408+355766616+355836847+355863684+355997291+356405458+357108518+357891596
2398+358443274+358623904+358525674+358318207+358164908+358208795+358490152
2388+358897622+359212556+359118044+358230317+356320037+353512649+350165462
2378+346610517+343113982+339915882+337059379+334253530+331156187+327828664
2368+324790805+322589728+321318899+320599661+320135089+320149263+321081399
2358+323089909+326173543+330585485+336607005+343601906+349683753+352952954
2348+352818390+350219805+347102218+345102160+344352251+344203018+344486641
2338+345327577+346514001+347683550+348826668+350199938+351796708+353255747
2328+354390442+355429609+356578507+357774458+359065966+360757742+362901775
2318+365036397+366660353+367727315+368593404+369632542+370895876+372105827
2308+373054025+373880874+374794770+375710409+376378906+376721664+376856316
2298+376912140+376961981+377073223+377309619+377670850+378077100+378460027
2288+378843274+379244993+379555222+379679475+379744478+379928477+380155985
2278+380222905+380135567+380051569+380006346+379938759+379841749+379739075
2268+379678836+379786477+380118750+380474491+380544838+380246576+379779564
2258+379390363+379200758+379229454+379419756+379612701+379645173+379559520
2248+379579445+379794115+380003064+379977766+379783804+379721358+379968414
2238+380391829+380747687+380977519+381205114+381484119+381686852+381685632
2228+381543342+381424519+381379209+381324227+381181820+380930234+380583613
2218+380201905+379829812+379413947+378921056+378520150+378478180+378851813
2208+379376131+379665592+379517579+379062185+378618496+378393747+378359271
2198+378419510+378599065+378964101+379435818+379830944+380071523+380250788
2188+380531797+381051641+381811077+382568451+383008074+383132734+383328467
2178+383915841+384781610+385554407+386030365+386320000+386616054+386937813
2168+387184142+387365934+387605786+387919180+388214886+388480007+388721109
2158+388812861+388698396+388609838+388808214+389250016+389711974+390071549
2148+390334318+390559009+390820471+391109351+391278798+391212925+391011702
2138+390901477+390993433+391226140+391518709+391855252+392224325+392620787
2128+393104529+393693500+394206229+394428277+394456102+394646520+395187887
2118+395930506+396667461+397361110+398030361+398629499+399148182+399679063
2108+400304021+401012222+401759343+402520318+403256953+403892426+404365828
2098+404695981+404947771+405189569+405544236+406134514+406845968+407350012
2088+407537497+407692625+408073084+408588194+409024535+409313502+409447718
2078+409423292+409421869+409782431+410572016+411376093+411781937+411905378
2068+412141309+412577882+412988605+413279954+413616207+414105758+414597400
2058+414869492+414949249+415138796+415713681+416691824+417876970+418973675
2048+419700116+420001136+420154406+420515172+421162960+421873339+422422635
2038+422877158+423519891+424464575+425471705+426286617+427021858+427971944
2028+429155260+430318187+431364731+432501286+433928579+435620557+437401733
2018+439016656+440220855+441101873+442160732+443770804+445742921+447652387
2008+449340271+450839072+452098515+453102102+454093345+455459585+457388716
1998+459679251+461930895+463920990+465671494+467214182+468585274+469962580
1988+471419209+472674876+473461672+473950090+474517685+475384935+476673887
1978+478431595+480434731+482320787+484000567+485712878+487730740+490142973
1968+492722562+494978534+496672953+498234636+500254067+502701909+505060409
1958+507146061+509338715+511957225+514821164+517540865+519969480+522242007
1948+524612416+527390149+530773874+534489640+537734531+539852017+541016077
1938+541941329+543190548+544977504+547311200+550052976+552894317+555517648
1928+557937259+560560996+563657468+566876625+569723486+572361513+575209245
1918+577899263+579609249+580409435+581203986+582506996+584092671+585611426
1908+587044557+588515505+589951482+591137151+592073848+593093322+594492471
1898+596227087+598118662+600103123+602127317+604009713+605488852+606352936
1888+606644372+606705715+606903975+607419579+608183052+608820528+608996831
1878+609010830+609553214+610748758+612079651+613313941+614712219+616123798
1868+616643817+615788853+614315408+613272407+612965752+612972025+612757616
1858+612142911+611236363+610124875+608861017+607742790+607229916+607478366
1848+608346691+609718711+611027763+610781172+608200247+604600834+601625712
1838+599811164+598987161+598974730+599816740+601433551+602966887+603018296
1828+601340956+599081034+596786782+593988891+590789020+588208384+586786929
1818+585954562+584994049+584115732+584060199+584873338+585632164+585484326
1808+584570981+583710963+583700449+584930847+587009064+588729391+589084435
1798+588359650+587751277+588221397+589789935+591243397+591132214+589833793
1788+589013392+589376336+590265225+591012258+591828477+592933691+593874338
1778+594427120+595386471+597878868+602172510+606880565+609767623+610148227
1768+609024017+607701779+607484465+609081235+611648509+613489082+614387962
1758+615455302+616847654+617994577+619430903+622441925+627001734+631020787
1748+632577823+631999656+630777042+630100472+630584882+632134366+633852021
1738+635321574+637834186+642630421+647649197+648848052+646714069+644533498
1728+643793551+644440147+645981906+647745800+649413556+651684863+655541148
1718+660425214+663504840+662909595+660333723+658192594+657606876+658942126
1708+662238310+666587776+670057707+671927266+673774577+676919553+680147540
1698+681709863+681864033+680861579+678833260+677364636+678053116+680895503
1688+684883477+689705968+695090942+698128743+696365140+692739413+690804387
1678+691505181+694128570+697303405+700236296+703414964+706964129+708943768
1668+707465327+704340740+702748443+703609623+705454261+706560812+707194106
1658+708781001+712377799+718548610+726188568+730468792+729790478+728698159
1648+728815326+727727074+723825595+719788419+718233706+719109292+721575084
1638+725309032+729255762+730117407+726597810+722607338+721704566+724078401
1628+727414145+729402207+730020688+730330015+730479480+730344247+730643990
1618+732073984+733806858+734061059+732891887+731785453+731435230+731551293
1608+731728118+732041280+732801848+733952954+735051663+736003579+737351608
1598+739395204+741608828+743630176+746190189+749951207+754021378+756767395
1588+757886144+758668961+760173485+762246764+764533465+767403387+771374341
1578+776030347+779479365+779789332+778238569+777719828+778951330+780121721
1568+779368240+777482822+776339326+776851910+779486801+784774416+791345407
1558+793780470+790359509+786019162+783081740+780767214+778361371+776379524
1548+775873098+777381398+780618272+785035704+790375367+795222779+795309913
1538+789804055+784461255+783483372+786754404+790942032+793184295+794279228
1528+796018666+798754459+802304785+806910021+812268157+817124224+821127069
1518+824950650+828022665+829366455+829845288+830979431+833149489+836580557
1508+842151882+849005654+853462354+854958687+856156671+858281883+861137108
1498+864160096+866782672+869530838+873804613+879399001+884110017+886640637
1488+888886327+892423003+895730688+897411165+898440283+900626779+904805172
1478+910458055+916261797+921293934+925596755+928901710+930551632+931698497
1468+934393917+939233777+945011786+949641245+952585986+955505575+959404904
1458+962305497+960885088+956424205+952901123+951551467+952425833+955084831
1448+956904781+954562430+948633505+943264331+941041529+941555913+944077762
1438+947915400+950704867+950289410+948117959+946836964+947472582+949630963
1428+952230942+954632545+956963394+958658626+958444275+957068362+957614696
1418+960734752+962299630+959866950+955907904+953396628+952674457+952480960
1408+952331205+952654532+953417657+953965849+954065473+953994487+953989550
1398+954557783+956329693+958741752+959975461+959340831+958727288+960778319
1388+966044383+971578705+974344240+976047024+980752406+988485772+994707295
1378+996147920+994075860+991517706+990870587+993647971+999375268+1005254759
1368+1008810081+1010866224+1013949742+1017818516+1019481973+1017643434
1360+1014617774+1013140204+1013664638+1015209243+1017161754+1018985887
1351+1019469193+1018250007+1017398760+1019516478+1024274955+1029270785
1342+1033512031+1037277057+1039874480+1039720775+1036709869+1033378425
1334+1032225112+1033164654+1033914592+1034768744+1039207494+1046878472
1325+1051502180+1049674329+1046182092+1045893967+1047660824+1048874085
1317+1050470507+1054164779+1058745617+1061689255+1062315927+1062537829
1308+1064431670+1067465347+1069455268+1069942989+1070261436+1070693043
1300+1070705707+1070627750+1070981633+1070909020+1068690459+1064593508
1291+1062219498+1065017563+1071168333+1073741823+1068193675+1057354020
1283+1046527029+1037856676+1031298581+1027347435+1026468538+1027800303
1274+1029893856+1031438345+1030710945+1026814753+1022408997+1022147361
1265+1027355916+1033649471+1034477598+1027366373+1015760398+1004970468
1257+998277024+995914980+995683783+994792687+992172493+988884964+986044029
1247+983084940+978567768+971909875+963904939+956265040+950425107+946465655
1237+943374469+940137130+936570771+932768858+928263943+922445911+915154259
1227+907038372+899427866+893414536+889224583+886639766+885335710+884653388
1217+883876439+882911917+881944898+880634220+878726728+876925018+876204473
1207+876935881+879102162+882403168+885582533+887668709+889912482+893807919
1197+898222737+900863901+901628013+902339147+903867488+905519907+907083740
1187+909855258+914952397+921400471+926798456+929689813+930456191+930638418
1177+932278697+936639375+942998397+949146901+953722221+957174260+960551188
1167+965196448+972019374+980239822+988595910+996398867+1002588558+1005842046
1157+1006538425+1006498227+1006392736+1005600625+1004036618+1003142385
1148+1004673281+1008514869+1012127120+1013159374+1012510395+1013005552
1140+1015992641+1019738962+1021270090+1019875589+1017086005+1015296145
1131+1016301097+1019737452+1024019244+1029228496+1036869383+1045421117
1123+1049420710+1046027922+1039998211+1037899779+1040701445+1044890526
1114+1047863325+1049122593+1048761508+1048286334+1049616472+1051803665
1105+1052908996+1053230349+1052512011+1048350465+1041453358+1037505349
1097+1040225458+1046966303+1053060262+1056202799+1054463825+1046590812
1088+1036237716+1029939863+1030625553+1036631216+1044258742+1049698030
1080+1050050518+1044977893+1038692703+1037848079+1045603287+1057224364
1071+1062985120+1058350143+1047546620+1036271873+1027098347+1019968416
1063+1014487188+1012835117+1018511178+1030726165+1042570191+1046555958
1054+1042265917+1035168982+1029587142+1025842563+1021946952+1017518076
1045+1014449430+1015808380+1023335760+1032478615+1034219331+1026483409
1037+1016410771+1009646457+1006133308+1005136721+1007354121+1011671929
1028+1015102474+1016162727+1015329024+1013762809+1012758555+1012297090
1020+1011239974+1009517730+1007161728+1003519387+1000551584+1002402671
1011+1009912740+1018301474+1021693100+1020295461+1018358634+1015608087
1003+1007217029+992630240+978746917+971446493+969793493+969352127+967228716
993+962512181+955048525+945996987+938045436+933441130+931693676+929939831
983+926087671+920944524+916347015+912654543+909527342+907474974+906864974
973+906787657+906006002+904273070+902161161+900160958+898135021+895407303
963+891756075+888181815+886165638+885783349+885331586+883672195+882029651
953+882775523+887013631+893577129+899529232+902036442+900640837+897466815
943+895550378+897119149+902638135+910684605+918912024+925268722+928676438
933+929937682+931638723+935998936+942356796+947850688+950837428+951862537
923+951901864+951996782+953758875+957417714+960441399+960756071+959889779
913+960062828+961154740+962364575+963680190+964789704+964793421+963388638
903+961014279+958269251+956212817+955997595+957714552+960827695+964748518
893+967999508+968861327+967379865+965724948+966445551+970336109+975471238
883+978720196+978866001+978069823+980478803+988128055+997871674+1004165926
873+1004925971+1001489965+994668491+985933310+979284711+978335409+983208671
863+990769510+997111861+999096902+995465714+988842791+984045860+983650269
853+986959755+992627568+999268150+1003864324+1004771917+1005710182+1011564463
843+1020473564+1024276000+1019878726+1013131258+1008735029+1005496877
834+1003238465+1005600044+1013322025+1019732688+1018122558+1010427415
825+1003309219+1000341764+999858109+1000712260+1005743410+1017609045+1033992317
815+1048233937+1053407057+1047245715+1035697482+1027315370+1025377149
807+1027252749+1029622925+1032308180+1036072044+1040955762+1046784715
798+1051982698+1054776929+1056473264+1059452918+1063069466+1066037269
790+1066497456+1061412980+1051304791+1040822388+1032535311+1024846557
781+1016231854+1008127063+1003541926+1004787253+1010750858+1015716134
773+1014318728+1008124274+1003177239+1003074652+1007679772+1014946561
764+1021778840+1024413441+1019844801+1009784478+1000903724+999899702+1007876928
754+1018009399+1022142133+1020052298+1016304583+1012864743+1009094953
746+1005484213+1002790942+1000440633+999738909+1003800890+1011978294+1017417697
736+1015792348+1013460046+1018112218+1029028319+1039009524+1040207682
727+1031108860+1018785013+1010601916+1007819884+1010087125+1019045139
718+1032834937+1042030421+1038238790+1026980889+1022010502+1028056943
710+1037671951+1037648715+1024635808+1011887325+1009838153+1015376193
701+1019975039+1019881979+1017319874+1014383440+1009589413+1002565670+997372451
691+997580412+1001971645+1007048685+1010508392+1010463547+1004767154+993547244
681+982320479+974980613+969776066+966047578+967083782+974653452+982807271
671+981287412+968800159+959523523+967108354+979795552+982665300+978716826
661+974715840+973791284+977883123+987366848+994806513+991444861+980407818
651+973419917+974068140+973965321+967616349+959303770+953326049+950853577
641+953778335+961637233+969845948+978017426+986942793+989501877+980300933
631+965365314+953830790+948578261+945505142+940068933+932660056+924653842
621+915055913+905154813+900307170+905535882+920304492+934863747+941297879
611+944021531+947147628+946727407+939713017+929963474+923879971+925559926
601+934629762+939190559
##END=
