##TITLE=<SNM>
##JCAMP-DX=4.24
##DATA TYPE=INFRARED SPECTRUM
##DATE=29/4/2025
##SAMPLING PROCEDURE=Instrument type and / or accessory
##ORIGIN=Admin
##XUNITS=1/CM
##YUNITS=ABSORBANCE
##RESOLUTION=4
##FIRSTX=4497.3318
##LASTX=599.83466
##DELTAX=-1.4281778
##MAXY=2.0300283
##MINY=0.45183507
##XFACTOR=1
##YFACTOR=1.8906112e-09
##NPOINTS=2730
##FIRSTY=0.47125727
##XYDATA=(X++(Y..Y))
4497+249261859+248848860+248473126+248396610+248769523+249232823+249291400
4487+249090244+249100143+249262033+249211354+248959030+248605569+247958926
4477+247249119+247425968+248844762+250400839+250829333+250271658+249741553
4467+249667513+249718886+249620317+249493769+249347770+248829929+247903928
4457+247239125+247378095+248026803+248629451+249056794+249432655+249940660
4447+250923141+252460569+253796165+253861677+252460569+250401453+248658991
4437+247783039+247736821+247940467+247786034+247362237+247198803+247119166
4427+246159920+244134743+242435425+242498998+244049652+245549880+246107665
4417+246201725+246572983+247200284+247584500+247559798+247447926+247418244
4407+247160750+246504712+245868520+245709058+246054227+246732665+247380349
4397+247382839+246665860+246156610+246635547+247647474+248107574+247448903
4387+245903672+244212188+243200592+243171083+243548457+243379254+242403204
4377+241502031+241781499+243317966+245044917+245814120+245443982+244752713
4367+244552329+244699858+244552124+244192846+244314965+244964666+245444581
4357+245432080+245274163+245210826+245101303+244997218+245308323+246063386
4347+246523297+246132240+245419738+245202897+245388148+245367482+245188474
4337+245415734+245981133+245960814+244802083+243272851+242533961+242681506
4327+242969045+243126284+243478169+243838849+243448376+242094401+240442641
4317+239277179+238988884+239594243+240745029+241755537+242031095+241669768
4307+241434706+241977831+243234751+244583793+245404684+245506736+245175138
4297+244813023+244637877+244816113+245582037+246827419+247738555+247444978
4287+246078456+244737375+244341637+244787581+245188159+244776231+243691951
4277+242876640+243059637+243985417+244838591+245176368+245086548+244799624
4267+244566012+244634819+245048874+245595924+246155948+246896667+247838999
4257+248475317+248326542+247729932+247453144+247617697+247720569+247576445
4247+247472706+247500481+247329607+246609885+245369673+244082787+243377126
4237+243599310+244570898+245697188+246352785+246309719+245891865+245726461
4227+246350767+247817229+249372613+249862411+248972776+247765195+247493261
4217+248192444+248870976+248830859+248319181+247982823+248138849+248536289
4207+248628000+248300297+248255245+249100900+250268852+250613833+249892771
4197+248854157+248057336+247421901+246821507+246488255+246616915+246875922
4187+246793969+246571154+246853097+247681286+248417434+248705556+248764826
4177+248810997+248854094+248927992+249118240+249466310+249965913+250474059
4167+250652642+250292923+249609330+248979018+248583500+248427396+248442025
4157+248391834+247992754+247355569+247031569+247437743+248282594+248727372
4147+248358290+247796564+247970102+248991849+250107783+250574787+250292860
4137+249702050+249296917+249217438+249263672+249245702+249165057+249109617
4127+249148631+249305051+249585118+250048087+250682766+251196745+251240709
4117+250895996+250686186+251008940+251704418+252271283+252382998+252037797
4107+251400517+250788207+250616733+250995416+251499495+251661211+251611257
4097+251914559+252645804+252925083+251896699+249994145+248496014+248078207
4087+248515497+249446101+250659073+251755381+252196660+251938567+251693636
4077+252132629+252928929+253163929+252539749+251508118+250533503+249948368
4067+250052800+250784518+251739019+252615886+253231286+253394074+253275455
4057+253434002+253952931+254087928+253322114+252312520+252151797+252975321
4047+253903182+254240580+254142422+254145811+254563586+255218143+255473903
4037+254850763+253755495+253186124+253657242+254713007+255496649+255640190
4027+255512050+255578997+255706428+255397309+254701988+254401445+255033334
4017+256066683+256521392+256279409+256043715+256068921+255869373+255263793
4007+254788608+254928460+255711283+257032234+258590407+259567166+259139680
3997+257514970+255943886+255343382+255330914+255103465+254762992+255022094
3987+255960438+256893627+257310977+257308423+257191428+257133797+257192436
3977+257335299+257482340+257611772+257726388+257762155+257610038+257220495
3967+256811862+256927203+257898728+259245373+260060779+260035084+259613478
3957+259277593+259215691+259470221+259998860+260701069+261504305+262258439
3947+262613996+262323084+261629671+261100480+261045955+261184420+261009573
3937+260466873+260207441+261117174+263268111+265260690+265468451+264180666
3927+263163648+263231335+263548021+263362013+263255296+264085250+265665114
3917+266806820+266400316+264510135+262309055+260993952+260917121+261840505
3907+263842322+267293686+271605209+274836848+275688509+274742047+272884402
3897+270436232+268066499+266906350+267438867+268595359+268663141+267835251
3887+268016624+269807117+271587112+272302515+272818133+273040775+271379257
3878+268337786+266698842+267783232+270428256+273210010+275386295+275972344
3868+275132883+274810681+275734380+276106490+274472305+271889989+269816544
3858+268915796+270453634+276254160+284188189+286612022+281820191+275042465
3848+270217342+268680828+270081557+273038757+276324685+279833381+283580230
3838+286058540+285614361+283118932+280561836+278476821+276262137+274025510
3828+272710029+272760629+274238472+277771412+282990366+286377180+285669312
3818+283774497+283225523+282479413+279616163+276073639+274573285+276520214
3808+280708467+283758071+284330122+284743311+286460505+287509649+286360849
3798+284418523+282598553+280309182+277744331+276296595+276603886+277935603
3788+279430376+280832839+281953896+282687206+283693190+285677509+287836107
3778+288520645+287782512+287467308+289257581+293527046+298984499+303400973
3768+305870708+307365639+308740012+310207231+312453820+316350515+321477442
3758+326295314+330364112+335024382+342051516+351993792+362128792+368211670
3748+370809435+374212391+380355769+386132744+388481638+389644782+393269527
3738+401066699+412212664+423255000+429961413+430859639+428310804+426081995
3728+426781919+430849897+436633966+441591659+443878224+443185142+440757463
3718+438442966+437946043+441125190+449579441+462001037+472424316+476167066
3708+475391731+474633641+476708378+482003248+488418291+493246598+495977563
3698+497646931+498843273+499639605+500436283+502097423+505073034+508087865
3688+508697086+506332902+502461398+498680217+496373853+496496051+499318474
3678+504672867+510898498+513990222+512513388+509841661+508498563+507776476
3668+506235138+504255012+502967842+502788928+503242849+503945610+505605866
3658+508988802+513124280+516601732+520761107+528245629+538406827+544859324
3648+542294568+535190289+530536135+530367278+532698989+534681827+535286319
3638+535596037+537036489+540118157+544927422+552049356+561220964+567843515
3628+566195365+559462407+554896591+554925658+558061110+562435623+566756792
3618+569440719+569938651+569943443+571189502+573452422+575481730+576557230
3608+576631066+576541278+577885448+580703553+582666276+582571759+582817667
3598+585993032+591122355+595053413+596388063+597022190+600025734+606231756
3588+611874207+611699360+606307041+600523162+596876032+595150200+594860975
3578+595636152+596356158+596099152+595863964+598062632+604025016+611940854
3568+617451903+618006709+615476884+612440111+609891307+608745565+609661036
3558+611645891+613098702+613727470+614267080+614884372+615566041+617351585
3548+621356605+626341536+628495059+625578402+620068993+616373250+616695074
3538+619829958+622267914+621322934+618334081+617091679+619130949+622663637
3528+626057229+629769934+633543737+634737967+631598669+625865294+620596434
3518+617606194+617276299+618945131+621465813+624125906+626271232+626544568
3508+624731218+623200410+623993557+625796945+625793918+623863983+622757460
3498+624584808+628588567+632326178+634655871+636439334+638319773+639830278
3488+640592151+640347126+638581444+635975766+634593827+635201282+636321424
3478+636984556+638027205+639715206+640679795+640353872+640333695+641992187
3468+644328690+645321212+643977987+640338740+635330479+631070849+629515135
3458+630635088+632467669+632579084+629780842+625066157+621143989+620446998
3448+623078338+626621114+628028590+626163347+622779907+620936102+621922445
3438+623911462+624452081+624157685+626086233+631297715+637107132+640498643
3428+641161333+639802156+636444063+632035880+628753577+627532550+627569373
3418+627855887+627643398+626627546+625813276+626471111+628097697+629125340
3408+629426419+630665480+634024960+638055138+639432979+636951075+633811209
3398+633892674+636870177+638698660+636561847+631979195+628718709+629031958
3388+632160284+635164585+635409169+633467253+632359722+633346948+634456308
3378+634223326+634400505+636696718+639387959+639762432+638432953+638265106
3368+640155696+642657399+645081609+648727982+653963929+657733318+656923966
3358+653183203+651035796+652567550+655604197+656328365+653828553+651271300
3348+651521811+653213784+652829537+649921960+647762951+648958883+652596492
3338+655937623+658082445+660006327+660787747+657707025+651338641+646207741
3328+645330355+647770202+650998595+652648700+651224956+647785398+645348325
3318+645058343+645041571+643988833+643280618+644048607+644878199+644355361
3308+643332763+642966171+642961001+643136919+644748436+648745763+653693808
3298+656958393+657881746+658251427+659403538+660575951+660507412+659293005
3288+657929414+656712359+655281680+653997978+653983286+655892855+658921369
3278+661078422+661384799+660893487+660897523+661386879+661633796+661257116
3268+659899704+657170631+653938960+652139103+652555822+654206747+656018332
3258+657527702+658264480+658061574+657523414+657334569+657696684+658520476
3248+659278881+658987260+657366033+655547260+654769183+655053805+655719018
3238+656484169+657382994+657924118+657477259+656522443+656347785+657376878
3228+658515873+658364356+656848050+655511131+655935416+657614337+658168512
3218+656562356+654715272+654694654+655910510+656197214+654875680+653548092
3208+653930510+655754327+657050577+656309764+654194641+652820898+653333333
3198+654685511+655154501+654383612+653141209+652005493+651225776+651011079
3188+651137438+650993992+650452301+649852096+648914305+646850066+643849233
3178+641238384+639560347+637801285+635549652+634340163+635461251+637886786
3168+639654107+640104371+639240855+636450558+632145908+628845572+628639199
3158+630458917+631195317+629315761+625953758+622904690+621313855+621545008
3148+622549889+622461740+621126460+620415471+621204646+621954413+621026836
3138+618966821+617474350+617062738+616725087+615640507+614185867+613144101
3128+613017174+613692917+613977602+612680281+610532433+609141981+608352680
3118+606798857+604511977+602784190+602255867+602664200+603415417+603670846
3108+602927321+601729434+601009555+600968949+601119457+601120403+601189383
3098+601681325+602556820+603456023+603856664+603046933+601066051+599615257
3088+600416160+602757456+603979807+602667352+600180530+598462958+597684817
3078+596833597+595533438+594200050+593163958+592630527+592722270+593018179
3068+592951342+592637274+592330204+591743619+590936663+590740756+591402879
3058+591879751+591150161+589392677+587361288+585490497+583881565+582571948
3048+581704461+581478919+581715621+581744941+581142088+580373784+580162997
3038+580408842+580401969+579949687+579586563+579661029+579912423+579949940
3028+579477355+578202985+576253250+574474138+573683639+573788497+573946508
3018+573282431+571449912+569140900+567768293+568025235+569119651+569610143
3008+568676324+566563218+564272744+562923403+562964829+563882065+564678807
2998+564558627+563307461+561329163+559432583+558272150+557728441+557124958
2988+556256083+555811494+556301482+556990087+556736297+555620758+554778240
2978+554823638+555162991+554816702+553613960+552369162+551753320+551319766
2968+550205677+548489240+547085547+546608675+547015936+547973464+548976831
2958+549435733+549053819+547907447+546188236+544258363+542670681+541748022
2948+541393662+541436917+541825010+542284164+542186621+541151853+539618775
2938+538431166+537882728+537532341+536871101+535721008+534185219+532768159
2928+532226468+532761034+533663453+534066931+533732811+532971758+532058431
2918+530913635+529438692+527989443+527167008+527103923+527240181+526836766
2908+525604357+523972191+522788365+522573101+522953313+523054608+522493307
2898+521711762+521339873+521421590+521428652+520916376+519913387+518846209
2888+518264196+518304897+518311360+517480601+516059600+515173291+515314814
2878+515698620+515353056+514297859+513133107+512073874+511081352+510456746
2868+510523331+510952219+510973720+510132337+508572777+506808734+505472067
2858+505075588+505667343+506636788+507078129+506588584+505608294+504822397
2848+504407790+503994476+503179607+501879542+500235238+498462652+496955772
2838+496221485+496340372+496750408+496876420+496651792+496259979+495818637
2828+495398166+494941944+494263144+493353095+492426685+491571808+490601260
2818+489311189+487757619+486243362+485119815+484633990+484777562+485133687
2808+485140749+484696412+484155415+483728071+483416903+483356719+483500071
2798+483257378+482145496+480459514+478834126+477611081+476957533+477043065
2788+477657866+478021968+477451272+476131535+474842158+473916598+472921365
2778+471441756+469786323+468657196+468329130+468447260+468593733+468720092
2768+468839798+468675923+468035490+467268825+466874994+466808252+466579400
2758+465942877+465173658+464688621+464565761+464423576+463781189+462599097
2748+461323151+460352918+459745431+459417333+459196016+458763470+458045860
2738+457452781+457252713+457087261+456528136+455630036+454640225+453726362
2728+453097689+452823849+452611296+452202994+451702792+451190799+450536054
2718+449862014+449542334+449440913+448848401+447536766+446244961+445751191
2708+446013808+446490932+446762723+446575045+445813078+444709928+443708673
2698+443030661+442628728+442414441+442261379+441959386+441383173+440587535
2688+439713206+438956220+438548643+438596437+438943199+439220066+439031505
2678+438237160+437150373+436291114+435844980+435577445+435321922+435195500
2668+435198274+435026674+434526788+433964037+433611002+433367647+432984441
2658+432391708+431625642+430673979+429640094+428911702+428837519+429201242
2648+429353863+429049000+428766080+428907887+429076964+428609613+427588370
2638+426807266+426792322+427248450+427514535+427326100+426938764+426595502
2628+426157628+425365710+424286395+423307934+422723524+422486412+422401479
2618+422382469+422421562+422456966+422410654+422254817+421961083+421508172
2608+421002894+420682047+420681921+420796426+420557895+419675307+418396585
2598+417290441+416686265+416497073+416522294+416671226+416893300+417121585
2588+417315631+417408225+417223384+416631377+415825082+415247136+415134712
2578+415287585+415386042+415338027+415169044+414832056+414360354+414008044
2568+413995307+414199726+414263630+413966303+413399043+412851898+412629320
2558+412848840+413258624+413357050+412851678+411922272+410992267+410429390
2548+410453729+411021682+411725104+412044343+411815869+411338146+410985930
2538+410853613+410826027+410815087+410732235+410406092+409845643+409448502
2528+409610076+410230110+410834445+411062193+410894125+410559375+410345782
2518+410414573+410717954+411041197+411138835+410953489+410671925+410440740
2508+410171628+409790124+409446263+409288504+409280118+409376369+409591538
2498+409788390+409714650+409354489+408991617+408847509+408870839+408919201
2488+408923772+408822382+408553397+408246516+408229271+408640190+409127497
2478+409133267+408475085+407520521+406836487+406773433+407245640+407793415
2468+408023182+408028226+408188665+408653399+409259373+409752513+409819633
2458+409210223+408147775+407303838+407094469+407302262+407546719+407759997
2448+408002689+408155562+408074759+407850384+407685090+407646312+407682505
2438+407756750+407861607+408019556+408300679+408672536+408864250+408627201
2428+408113379+407737802+407692877+407860157+408134218+408520199+408928564
2418+409175985+409234215+409283176+409481794+409789431+410012955+409987418
2408+409722626+409398752+409250010+409434567+409919258+410494146+410977355
2398+411339029+411582036+411716939+411941314+412552521+413595328+414894163
2388+416511134+419018449+423445642+431092684+443095007+459914823+481413195
2378+507513922+538479717+574289014+614004337+655810949+697138167+734940138
2368+766951987+792951072+814219457+830999770+839734103+835659409+820800772
2358+802172113+780081135+747418513+702185963+654526364+617986721+600026365
2348+602335566+623467882+657398064+692276694+718134666+733741305+741678519
2338+744346493+743485879+739764220+733534049+725152184+714784392+702907608
2328+690233893+676749944+661678942+644842953+627471893+611001360+595668877
2318+580921087+566587431+552916843+539878176+527170097+514770286+502988271
2308+492067911+482184968+473708491+466920235+461507487+456846019+452725738
2298+449314049+446637247+444586312+443047433+441605247+439647158+437134042
2288+434744006+433031542+431921362+431137610+430692075+430713040+430995582
2278+431069417+430789618+430504964+430458620+430396733+430004006+429399703
2268+428964761+428886386+428982983+428876234+428383977+427784845+427551484
2258+427834594+428377892+428877905+429219843+429416380+429514113+429553427
2248+429517203+429325678+428913814+428312285+427647105+427059196+426615111
2238+426288842+426013835+425743242+425462497+425148775+424781017+424436146
2228+424240397+424141940+423948713+423686506+423630798+423908516+424372557
2218+424888239+425430213+425905320+426167401+426252996+426472043+427184104
2208+428428871+429822412+430960114+431848536+432745437+433714819+434610680
2198+435383966+436135719+436900020+437577086+438156514+438894427+440108014
2188+441760389+443391988+444571810+445288821+445800120+446290738+446811842
2178+447375192+447972969+448536129+448894398+448873401+448573930+448437514
2168+448809528+449515820+450050165+450080399+449662009+449096894+448669865
2158+448438397+448263298+448029118+447705150+447218441+446504394+445709449
2148+445093040+444724399+444532465+444607341+445123527+445964752+446744375
2138+447256872+447691751+448331521+449193334+450098338+450985246+451912886
2128+452801212+453492529+454081762+454858831+455900219+457007688+458050936
2118+459120226+460295287+461462782+462532450+463699251+465166061+466648601
2108+467567257+467792956+467847308+468322982+469341419+470585019+471722469
2098+472668301+473421945+473968617+474465162+475096294+475632027+475630955
2088+475132077+474631844+474375721+474080442+473369895+472269394+471175293
2078+470405507+469996385+469960886+470368494+471028063+471481133+471492388
2068+471291279+471217948+471304394+471293612+471008580+470579597+470259538
2058+470134188+470124856+470177191+470301847+470426157+470352857+470002943
2048+469616489+469559047+469990521+470781367+471605033+472107252+472204670
2038+472231310+472637089+473557541+474752338+475926801+477056905+478346535
2028+479891530+481525336+483015600+484295173+485525942+487010942+488942517
2018+491157642+493204258+494671162+495444385+495735060+495927972+496321645
2008+496936478+497577257+498088115+498509090+498957652+499427620+499769463
1998+499845379+499763851+499997558+501009469+502624296+504156208+505310241
1988+506349643+507343395+508067121+508678485+509780531+511742908+514350288
1978+517044966+519336039+521119817+522691358+524426585+526549337+529080297
1968+531707035+533837291+535207754+536322474+537878440+539938707+542036995
1958+543968003+546044726+548552356+551310119+553895683+556178275+558479406
1948+561151605+564193044+567408952+570634318+573563901+575818876+577479952
1938+579100611+581087358+583371275+585632051+587681599+589635873+591666253
1928+593745309+595896941+598333509+600955833+603334267+605584009+608241958
1918+610909176+612317283+612259148+612063493+612935583+614837523+616787195
1908+617888295+618114025+618098010+618356528+618932331+619617973+620296489
1898+621075387+622058514+623032751+623755594+624467277+625497189+626559511
1888+627110030+627140863+626992625+626790917+626434224+625743475+624618668
1878+623384021+622768368+623234711+624555993+626234724+627941514+629107432
1868+628611833+625948147+622176613+618811521+616583028+615391131+614633609
1858+613501235+611610896+609446529+607834130+607158072+607144389+607241050
1848+607439164+608423300+610020692+610121577+607277558+603090692+599675788
1838+597440738+595772095+594353143+593624373+594085419+595060097+594764818
1828+592645849+590182608+588356648+586483902+583912146+581193729+579150487
1818+578004178+577629515+578034632+579219530+580664397+581418199+581071595
1808+580295156+580058517+580799835+582364881+584158811+585360859+585548064
1798+585279520+585806961+588148194+592032971+595187339+595104487+592601838
1788+590852487+591706418+594582847+597786585+600513073+603029341+605363575
1778+607199246+609010830+612189789+617424348+622787410+624968172+623637369
1768+621174633+619303463+618683460+619633295+621790096+624103963+626120471
1758+627971527+629149237+629459207+630508162+634193880+640113829+645280416
1748+647449513+647553047+647791325+649467219+652610490+656131512+658391721
1738+659337773+661337004+666185866+671566205+673047643+671168906+669158578
1728+668307925+668840726+670780876+673532522+676583231+680728796+687220513
1718+695371098+701590866+703266570+701912311+700156403+699765283+701996425
1708+707363837+714531611+720587377+724605449+729109157+735896783+742376771
1698+745480255+746599388+747267249+747124748+746829533+747701118+749891212
1688+753444392+759933019+770277922+779859440+782466442+780413111+778718616
1678+779321217+782376906+786945938+791300273+794893114+798386582+801176817
1668+801913217+801873871+803782747+808105997+812265624+813700465+813250327
1658+813377254+815686140+821075936+828865226+834169334+834869982+836144983
1648+840502093+844350740+842200118+835418357+829379615+826457851+826685221
1638+829882465+834903400+837330007+833704442+827460651+823180466+821994055
1628+822671059+823822854+824758186+824278729+821181172+817021482+814990031
1618+815882172+816573173+813759041+809163779+805925362+804334022+803028630
1608+801449333+800387137+800534241+801372534+801576512+800402018+798549764
1598+797198910+796510557+795925927+795458702+795656374+796641645+798045779
1588+799578731+801026435+801961326+802064734+801739442+802108556+804205078
1578+807869358+810748246+809843242+806389371+804151735+803889938+803198306
1568+800596474+798118858+797893884+800090787+804692165+812256103+820215385
1558+820235562+811610815+802656678+797053068+794509560+793656954+793280588
1548+793355117+794852570+798403165+803770578+810337201+816193782+817223694
1538+813442262+810534117+811182053+813192697+813247868+812020536+812672444
1528+815717162+819141587+822343749+827603971+836256840+845463064+851355332
1518+853749088+853728154+851768457+849728872+850455625+855508149+864797793
1508+876887508+886764745+888263522+884416766+881897093+883049455+887072950
1498+891643116+894626294+896375961+899137632+904055223+910171015+915407151
1488+918308045+919260276+919918048+921736568+924702091+927460736+929620880
1478+932747063+937966048+944599949+951537831+957266161+959531477+959033419
1468+959887287+964498060+970140511+971733427+969416092+968220979+971500319
1458+977354503+977975389+969452915+958871813+952557844+951227167+952940199
1448+955331244+956682728+956333413+954549950+952342706+951665451+954586458
1438+961255922+968449295+971852219+971485816+970138682+969259278+969430531
1428+970863859+972232935+971518919+969285193+969329330+974200450+980421605
1418+980561646+974310857+968382585+965514731+963885245+962437730+962478210
1408+964575678+967137976+968642680+969473848+971646981+976813695+983472439
1398+986815715+984113943+978295132+973556802+971410026+972049135+975696390
1388+981285498+986390735+989904066+992548900+994524044+995445695+995623316
1378+995587375+995816007+997232184+1000202436+1003706561+1006892770+1009651920
1368+1011676309+1012828861+1013575097+1014104492+1014132866+1013855053
1360+1013880149+1014480227+1015923643+1018870061+1023283603+1027294676
1351+1028851652+1028604041+1029057899+1030944959+1032958944+1035065933
1342+1038994722+1044848402+1049904962+1051403424+1049246055+1045756306
1334+1043727062+1044648018+1047916891+1051824935+1055265880+1057973704
1325+1060224203+1063157821+1067471298+1071522851+1072543306+1069997339
1317+1066168743+1063679146+1063800713+1066197747+1069195806+1071196992
1308+1071604190+1070190030+1067524515+1065891434+1067407362+1071130659
1300+1073741823+1073238405+1070643257+1068096408+1066351093+1063719122
1291+1057906111+1049397509+1041483688+1036934960+1034994305+1032482829
1283+1028031139+1023525791+1020528552+1017282064+1012184456+1007224115
1274+1004654504+1003629257+1001729650+998009127+993017701+987159923+981419802
1264+977400090+974692203+970360693+962827021+954433680+948380689+945443224
1254+944602535+944281908+942227821+936685183+928233707+918806796+909329821
1244+899691240+890091059+881062456+872798879+865399132+859228168+854478930
1234+850854626+847965523+845605816+843486973+841187293+838612889+836240320
1224+834777420+834443111+834525900+834100858+833285894+833106822+834223307
1214+836592346+840183736+845020682+850284120+854482335+857120233+859325270
1204+862217588+865512439+868266986+870265082+872259521+875297871+879869488
1194+885157958+889269853+891107857+891624768+892457261+894380008+897575802
1184+902048110+907145718+911826291+916053384+921187752+928440017+937335200
1174+946407688+955177898+964183550+972909497+979064004+980768966+978740793
1164+975371476+972933962+972903318+976083474+982736040+991481281+998784872
1154+1001402025+999621085+996785451+995973577+997882894+1000784922+1002524122
1144+1003271304+1005123873+1008849503+1012765681+1015164607+1015715063
1135+1014718757+1012790146+1011039975+1010994136+1013630016+1018002952
1127+1021433556+1021940946+1020314928+1018994402+1019916998+1023613877
1118+1029364338+1036096288+1042209306+1045366952+1043447357+1036028190
1110+1025917340+1017687118+1013840110+1012847525+1011783815+1011202653
1101+1014730422+1023275659+1032072604+1035676163+1034939953+1033993838
1093+1032824515+1028628695+1021891071+1016101895+1013806881+1015471236
1084+1020113977+1025149729+1026489864+1021964087+1014431171+1008422948
1075+1005055082+1002225060+998457877+994748451+992547008+991240480+989006754
1065+985617954+982222092+979395349+977955023+979541065+983551382+985947092
1055+983657564+977774123+971262608+966372761+964311737+964882685+966734876
1045+969429207+973854035+979705572+984672028+986384745+984426120+980677034
1035+977212759+974643211+973400367+974841261+979330530+984368994+986348805
1025+984118483+980024432+977116603+976617284+978200615+981125721+985277403
1015+990681450+995162964+994970147+988843257+979102845+968350428+957488865
1005+947163129+938694692+932769131+928364921+923766948+918277905+912466030
995+907039347+902028942+897220371+892754242+888958811+885813018+882781731
985+879259069+875453486+872588848+871404392+870728587+868723996+865223213
975+861273176+857178683+852720247+848292644+844573445+841703889+839298720
965+836907487+834342604+831695059+829398153+828204176+828809929+831388115
955+835349376+839513543+842974161+845844599+848820841+852271181+855890126
945+859504531+863886294+870162557+878457220+887389603+894926113+900197369
935+904487832+909733047+916299292+922677639+927797063+932183871+936016440
925+938488003+938987133+937095849+932685018+927379398+924021872+923731512
915+925143338+926908768+929131271+931836510+933839776+933458304+930192017
905+925994873+924049994+925846383+930081799+934441746+937611436+939269360
895+939715147+940454888+943298970+947840511+951195704+951075146+948600366
885+947312818+949231089+953092347+956611037+959408838+962577519+966078176
875+968099728+967300401+964887729+963456734+964079638+964512940+961602274
865+956698177+955089119+958920679+964372899+966900454+966811675+967352735
855+969911438+973272306+975852762+977678345+980058418+982920912+984609858
845+984946499+984957092+984145470+981040221+976284867+973042035+973861034
835+978249671+983472313+987586037+991269170+995615560+999123972+999639055
825+998713811+1000100037+1004416352+1009355317+1011964148+1011106497+1009462508
815+1011335128+1017123106+1020516194+1016581920+1010579686+1011123332
807+1019000834+1026932120+1029110549+1027448590+1025819607+1024606147
798+1023513307+1023899949+1025673576+1025674774+1021642704+1014240183
790+1005237053+996666533+990220278+986024585+982585342+978841741+975182001
780+972143778+969485324+966576675+962749339+957452546+951366641+946503655
770+944555623+946080630+951198226+959131404+966701079+970599602+971708773
760+973912108+978762546+984252850+988818540+993138133+997332313+999354873
750+998162157+995991736+995577791+996400574+996046088+994054297+992213015
740+991688726+992134513+993841240+998766208+1008206927+1019622476+1027954466
730+1030964190+1029213073+1023896229+1017827664+1014502926+1014941840
721+1016858535+1017330615+1014022775+1006903363+1000705601+999762009+1001722021
711+1001663129+999969959+1000669409+1005254708+1009562952+1006617858+995771680
701+985881202+984673037+990028028+993734113+992594424+992762461+996970387
691+999760243+996414193+988032328+980481947+978314994+981425224+987313142
681+994062116+1001176231+1008617530+1012277523+1006565208+991786144+973486056
671+957903630+951595777+960562525+977726328+984983953+981007433+977213327
661+979456133+982712016+981635948+979588734+980730692+982445805+980778045
651+979599264+980835802+977348639+968583220+961596662+956420742+949247483
641+945367308+952788241+966366897+968388764+954833249+943044613+944770067
631+953351496+955916315+952092448+952281671+960339442+967041000+963194180
621+953984930+948631452+945559495+935305514+920147688+914246907+919405172
611+923806860+918499979+904302455+887976188+876097639+872036502+875610363
601+884457183+894981348
##END=
