##TITLE=<SNM>
##JCAMP-DX=4.24
##DATA TYPE=INFRARED SPECTRUM
##DATE=29/4/2025
##SAMPLING PROCEDURE=Instrument type and / or accessory
##ORIGIN=Admin
##XUNITS=1/CM
##YUNITS=ABSORBANCE
##RESOLUTION=4
##FIRSTX=4497.3318
##LASTX=599.83466
##DELTAX=-1.4281778
##MAXY=2.1127484
##MINY=0.38347325
##XFACTOR=1
##YFACTOR=1.9676503e-09
##NPOINTS=2730
##FIRSTY=0.39457092
##XYDATA=(X++(Y..Y))
4497+200528988+201241130+201294565+201298836+201557548+201592717+200897176
4487+199607481+198489150+198418206+199652814+201478697+202648737+202325094
4477+200748168+199136784+198759327+199811863+201263243+201945441+201664873
4467+201050833+200613928+200467055+200801013+201858956+203268714+204088530
4457+203800768+202790762+201799492+201295398+201252489+201259138+201066555
4447+201002093+201355014+201628826+201175623+200353490+200218598+201021995
4437+201733092+201370569+200222748+199294229+199055798+199155959+199016766
4427+198424613+197697491+197403747+197844530+198716070+199254364+198830817
4417+197556329+196279236+195831092+196311210+197202500+197999384+198531620
4407+198713843+198328798+197399703+196495024+196257168+196761581+197516222
4397+197949932+197817222+197303389+196802233+196598729+196919918+197943480
4387+199334487+200249663+200214448+199509546+198528333+197394402+196261682
4377+195442942+195236818+195797377+196986334+198384612+199539157+200111288
4367+200014837+199587504+199265345+198919846+197990691+196463111+195174885
4357+194888926+195459254+196145950+196536675+196821256+197265705+197894331
4347+198670238+199495945+199995132+199786070+199121926+198791301+199156141
4337+199664567+199587443+198977447+198563457+198838087+199526086+199930200
4327+199711823+199229358+199012737+199109749+199224602+199260544+199346195
4317+199511182+199668172+199711338+199469985+198908744+198418266+198441016
4307+198814702+199025793+199050754+199366233+200166768+201064147+201576208
4297+201538661+201114947+200684872+200532593+200562491+200584241+200713574
4287+201087093+201422338+201351606+201001078+200781535+200746684+200628195
4277+200405517+200319729+200346522+200209420+199971913+200064637+200676421
4267+201601790+202595725+203360000+203413405+202633788+201837479+202176525
4257+203812431+205678421+206697469+206764157+206355666+205762830+205012687
4247+204143616+203279635+202517753+201841796+201307394+201288916+202114517
4237+203380569+204151492+203953562+203111285+202252241+201970780+202586910
4227+203760934+204706538+205002161+204832781+204528859+204336896+204476392
4217+204988726+205707774+206548628+207459744+208143699+208275940+207844320
4207+207071049+206392834+206394591+207055342+207369716+206547068+205214525
4197+204601954+204991801+205714969+206267379+206785710+207520738+208254932
4187+208415951+207761637+206838919+206552490+207185296+208011731+208165858
4177+207793793+207850303+208857082+210377317+211564699+211855883+211276452
4167+210327622+209559016+209262015+209515364+210243061+211164538+211844766
4157+211870439+211188787+210396067+210319913+211041793+211708451+211556111
4147+210722755+209826905+209166518+208657623+208310519+208332374+208787380
4137+209557016+210552255+211577528+212256923+212531977+212850758+213456907
4127+213909338+213663470+212828281+212085408+211997182+212558847+213398822
4117+214172017+214636065+214691636+214563803+214574708+214646410+214453402
4107+214041367+213918789+214468049+215430223+216115662+216159177+215853573
4097+215608478+215433237+215180599+214932611+214831859+214819803+214873148
4087+215270143+216240209+217407643+217968430+217554198+216691352+216262898
4077+216610668+217202913+217216984+216529076+215968926+216405756+217725470
4067+218935072+219193450+218508905+217447039+216501662+215895800+215698249
4057+215897512+216415753+217082956+217628702+217885686+218040919+218502256
4047+219442210+220535111+221171007+221005066+220335136+219833557+219879253
4037+220219374+220308176+219997392+219826150+220352948+221263035+221677206
4027+221420479+221287042+221840421+222641819+222986773+222820574+222543521
4017+222365917+222223513+222023796+221667725+221112573+220663929+220897786
4007+222000334+223468163+224701211+225594273+226237939+226322318+225436495
3997+223990735+223134538+223434356+224201569+224455358+224033190+223482188
3987+223296769+223482870+223675665+223603781+223332029+223040481+222908376
3977+223165512+223800424+224363724+224496844+224373781+224334613+224516306
3967+224962633+225676077+226546420+227412356+228041239+228063125+227263424
3957+225970927+224969782+224930387+225806183+226858704+227456098+227645107
3947+227789843+228123589+228779387+229628828+230107946+229822896+229085748
3937+228456759+228319913+228963019+230250062+231203406+230924990+229962392
3927+229707346+230676593+231975315+232406723+231907642+231471675+231810812
3917+232479394+232460416+231519234+230425909+229889296+229873135+230142828
3907+231123041+233544607+237071812+239988248+241048463+240653543+239492818
3897+237688563+235629520+234292615+234413936+235540218+236183839+235807305
3887+235606967+236406835+237244932+237215519+237211202+237854292+238019567
3878+237196798+236805240+237843902+239451105+240541204+241116909+241243667
3868+240868073+240680730+241283032+242027662+241744505+240332066+238608495
3858+237558246+238689708+243894122+251551681+254476614+250462946+244138929
3848+239286164+237191164+237558624+239297811+241521447+244285119+247632888
3838+250025025+249711742+247596083+245937216+245531541+245559229+245266090
3828+244835394+244733385+245359315+247285465+250268575+252040780+251194853
3818+249762845+249660851+249921562+248897106+246987510+245606909+245704041
3808+247192483+248793083+249798741+251444492+254459893+256726635+256353161
3798+254763088+253609497+252663590+251433829+250471867+250342943+250768671
3788+251361673+252224518+253326310+254280744+255227893+256793733+258819106
3778+260348261+261112990+261733952+262798181+264650342+267306916+270105500
3768+272333832+274055919+275518552+276881190+278943853+282673895+287437753
3758+291134594+293219886+295505560+299957225+307077823+314763494+319627437
3748+321577443+323440813+327150468+331229417+333299532+334191034+336062674
3738+340226138+346699147+354100979+360408653+364326447+366001610+366880057
3728+368795832+372568072+377288853+381611503+385271812+388569826+391577911
3718+394351383+397296703+401470830+408213774+417070332+424522752+428089822
3708+429247048+430420026+433276590+438520580+444970083+450098720+452972792
3698+454919254+457237917+460025081+462929022+466090084+469871653+473579369
3688+475400966+474778399+472954378+471449154+471441763+473427847+477090458
3678+482036221+487531486+491026581+491101615+490426036+491466001+493494555
3668+494464393+494477752+494913082+496057495+496939364+497015428+497458120
3658+499915401+504168469+508379613+512401461+518114285+525607448+530720121
3648+529900775+526110603+523795605+523881999+524857471+525282775+525159667
3638+525469436+526964664+529669282+533218569+537403026+541932209+545334640
3628+546047539+545198021+544727521+545539597+548107718+552646534+558264967
3618+562861641+565098545+565589038+565899474+567302310+569895209+572505678
3608+573419779+571777088+568583614+565703180+564500697+565542509+568673460
3598+572974603+577172267+580441533+582585864+583669541+583971676+583930721
3588+584199595+585639933+588225865+590417028+590743034+589914843+590123557
3578+591855125+593231486+593222883+593340296+595094947+597854575+600165998
3568+601643656+602483177+602368187+601171460+599630370+598711059+598792848
3558+599709675+601307715+603659548+606529440+608951552+610379106+611759526
3548+614005700+616087144+616404547+615498383+615417382+617078611+619402878
3538+620740283+620898106+621260523+622901154+625394513+627038900+626296133
3528+623949449+622865227+624493802+626880229+627421128+626185445+624720388
3518+623470286+622296883+621796697+622417871+623739584+625635034+628259195
3508+630520030+630842461+629563945+628814331+629735581+631019126+630544809
3498+628094526+625603227+624680523+625111522+626091902+627625116+629681963
3488+631383785+632415358+633901680+636653069+639433962+639948144+637835498
3478+635648819+635670690+636837731+636560980+634875517+633891684+633992618
3468+633995950+633860362+634111121+633984560+632594265+630690030+629894433
3458+630980715+633237552+634825111+633952511+630418793+626026592+623430542
3448+624055593+626676725+629078480+630520515+631104429+631106974+631942738
3438+634560295+637084613+636993070+634428645+631320898+629386492+629416966
3428+630295928+629841967+628032911+627079492+627704300+627898777+625689863
3418+621710364+618826658+619376827+622714129+626117590+628305178+630460051
3408+633479466+635951257+635451373+631616975+626948144+624299204+624279211
3398+625693377+628064415+632155329+637192575+639729009+637603641+633160852
3388+630426184+630629628+632012774+632783349+632706891+632479517+632909910
3378+634376118+636358688+637859066+638465518+638638123+638995269+639435174
3368+639037921+637361182+635043094+632997819+632091473+633060827+635793979
3358+639269596+642606293+645582995+648028735+649439265+649382498+647907323
3348+645474064+642593631+640004306+638978124+640270030+642889586+645316423
3338+647525701+649955810+651756081+652141278+652006174+652619411+653917315
3328+654348798+652135522+647764101+643835009+641964399+641501533+641165349
3318+641047512+642259931+644942919+647501407+648311059+647748592+647364182
3308+647644750+647848072+647211933+645595536+644049297+644607644+647852858
3298+651128848+651346953+649171239+647706364+648125488+649228370+650307806
3288+652189018+655116950+657600010+658215368+657031060+655102410+653557442
3278+653092153+653662799+654628760+655860142+658266562+661913088+664321507
3268+662953143+659211378+657124482+658610076+662206378+665044584+664476119
3258+659521390+652459165+647687825+647912776+651948922+656322099+658713010
3248+659285776+659065006+658450375+657623032+657015247+656799082+656663675
3238+656613875+656887172+657011249+656410553+655780533+656105873+656251700
3228+654286093+651473151+651158838+653542236+655205767+654512195+653765975
3218+654858800+656439997+656449630+654827296+652611717+650388626+648536191
3208+647492198+647113544+646695571+646118200+646080395+646752702+647209147
3198+646503821+644897360+643909104+644777644+646479284+646616084+644846287
3188+643283628+643588490+645427596+647351702+648053999+646963537+644686828
3178+642595024+641396176+640364178+638356889+635723398+634092279+633740586
3168+632746756+630029901+627593794+627735320+629875410+631682709+631630424
3158+629371952+625587657+622390244+622007047+624321560+626723072+627136017
3148+626162847+625268860+624420070+622856321+621066107+620372171+620894835
3138+621063199+619217550+615321416+611109393+608837350+609241267+610472164
3128+610162092+608526672+607631292+608053143+608464451+608215267+608058777
3118+608171525+607416702+605005132+601911077+600159455+600826734+602846503
3108+603953626+602901089+600479220+598480171+598158346+599200522+599880584
3098+598830108+596697954+595375150+595537941+596043035+595878729+595288757
3088+594692968+594190964+594423003+596068662+597979137+597640226+594453659
3078+590933633+589740662+590938177+592443704+592373668+590753939+589186555
3068+589102646+590352082+591626054+592173557+592105945+591116780+588571561
3058+585158892+582937739+583146574+584816710+585745714+584593092+582053144
3048+579846229+578872695+578765157+578706572+578085640+576919690+576122639
3038+576678684+578223107+579147688+578404315+576387151+573983639+571715110
3028+569805120+568544355+568382594+569354492+570590296+571111263+570940233
3018+570641612+570092049+568637049+566312661+564065578+562669224+562041750
3008+561699386+561499336+561753973+562504434+563015041+562397442+560682353
2998+558975866+558151250+557860322+557243935+556067503+554772083+553906814
2988+553956191+555213382+557242905+558831493+558973261+557545222+554893919
2978+551579699+548602512+546845922+546298541+546445276+546786974+546680102
2968+545621750+544143486+543581079+544374980+545309315+544994033+543527583
2958+541980192+540826722+539878210+539350275+539813081+541001751+541675936
2948+541057367+539697062+538691903+538697476+539694638+540912873+540996480
2938+539215293+536584770+534952985+535009510+535659098+535235976+533131449
2928+530379575+528685327+528689144+529347274+529262820+528279350+527291155
2918+526859913+526631025+525957324+524663237+523117421+521862351+521252506
2908+521113404+520843076+520110426+519240613+518584725+517957735+517222419
2898+516799418+516999226+517360068+517161290+516343095+515556161+515322971
2888+515389433+515123709+514437770+513821806+513429642+512754669+511455917
2878+509992315+509071671+508809401+508807644+508877376+509184601+509507093
2868+509043075+507494624+505565035+504000074+502923607+502190534+501614314
2858+500935191+500159799+499564101+498972704+497813085+496244853+495256203
2848+495344384+496049922+496917826+497977602+499052070+499410792+498614044
2838+497231291+496234887+495951775+495890918+495316333+493811079+491619946
2828+489601783+488547944+488391424+488281735+487542967+486368171+485415872
2818+484913928+484571504+484291119+484358368+484777038+484909657+484163134
2808+482789227+481600618+481037272+480877298+480727048+480401043+479845482
2798+479030831+478017948+476970198+475985668+474976601+473756155+472285888
2788+470897562+470066887+469934146+470256971+470745646+471205604+471361579
2778+470880689+469731914+468308176+467077310+466266082+465863770+465649149
2768+465212970+464286026+463096235+462164626+461787002+461891935+462194888
2758+462233359+461550268+460138859+458531247+457300531+456593449+456198619
2748+455869705+455465848+454913771+454249491+453685116+453374256+453055914
2738+452279674+451082099+450006449+449365131+448974027+448678678+448538727
2728+448392688+447846548+446854627+445874308+445320898+445143203+444917798
2718+444276056+443356291+442699645+442498898+442243261+441352365+439872071
2708+438331708+437201866+436661300+436606380+436682292+436453494+435752197
2698+434878053+434339001+434285384+434256636+433703863+432721998+431931309
2688+431665555+431688516+431694423+431586946+431262425+430637525+429840383
2678+428916650+427615020+425967695+424667913+424387528+425030603+425934131
2668+426536524+426658692+426369280+425847556+425323953+424898165+424378531
2658+423540343+422515797+421622750+420962317+420527925+420399456+420487394
2648+420444076+420089808+419578535+419055084+418491041+417863657+417260114
2638+416810425+416543701+416278855+415803751+415167764+414607296+414284865
2628+414246363+414415758+414555648+414442506+414060702+413534888+413006136
2618+412603006+412345795+412102123+411788840+411519390+411447083+411560679
2608+411661764+411518118+411114594+410718038+410576512+410607744+410528681
2598+410210218+409734689+409202514+408674792+408190055+407659667+406910690
2588+406023489+405415977+405380808+405754857+406214088+406625791+406945405
2578+407021833+406688557+405927766+404912035+403996268+403611041+403958403
2568+404729736+405239585+405031962+404373165+403969853+404157726+404555494
2558+404605143+404251996+403864315+403660418+403565815+403543186+403662084
2548+403828449+403801519+403546397+403312632+403296365+403387242+403317266
2538+402995956+402616151+402432550+402534180+402820958+403098344+403241172
2528+403353678+403636123+404018533+404172751+403937017+403477240+403046090
2518+402807962+402825895+403012738+403156596+403138330+403078745+403164927
2508+403354829+403414535+403302151+403274978+403440920+403472242+403068627
2498+402500071+402348489+402811597+403515227+403973276+404021441+403839506
2488+403780012+404120376+404764299+405256822+405262759+404927635+404629953
2478+404511601+404395612+404098475+403696375+403427955+403414656+403598924
2468+403878462+404131917+404226005+404173387+404131614+404146972+404109804
2458+403991755+403898576+403881794+403887852+403891820+403926233+403931746
2448+403709158+403175468+402640143+402618120+403292851+404288922+405017088
2438+405205840+405096878+405120173+405442756+405914164+406276218+406245290
2428+405633415+404627317+403724243+403280704+403360342+403899787+404639556
2418+405070645+404911187+404514933+404451349+404833517+405335188+405718507
2408+406045360+406378394+406564237+406482054+406314023+406363127+406701370
2398+407137367+407446076+407540285+407509690+407521867+407639644+407819762
2388+408020782+408035837+407307550+405317346+402152619+398342847+394167297
2378+389458208+384147393+378736371+373945493+369914497+366006336+361524439
2368+356509489+351812396+348540131+347260827+347521583+348353500+349374623
2358+351178409+354642302+360254162+367968277+376833651+384606018+388613659
2348+387370311+381736550+375008570+370734055+369706813+370362611+371313668
2338+372081305+372450022+372250881+371730732+371659696+372624233+374278011
2328+375782660+376862489+377898274+379246402+380981302+383127815+385726469
2318+388623170+391379406+393522071+394908731+395858485+396959731+398652253
2308+400853867+403032549+404740762+405973204+406951766+407852266+408840703
2298+410054091+411403462+412589133+413400118+413929415+414463408+415154345
2288+415835558+416220149+416215908+415964149+415656228+415377841+415080462
2278+414713864+414376499+414204530+414127709+413928567+413530829+413041063
2268+412538726+412036480+411650435+411610813+412066954+412997654+414236640
2258+415426279+416157535+416426530+416663083+417050703+417247391+417040919
2248+416758716+416729817+416824056+416774801+416589594+416425652+416277583
2238+415991503+415531302+415042021+414618171+414243092+413999178+414017233
2228+414162211+414089237+413700648+413328477+413398422+414004479+414806559
2218+415333978+415405044+415214081+415055713+415102787+415403014+415920195
2208+416570176+417275442+417967621+418560865+419015461+419444612+420044339
2198+420817399+421472409+421779058+421940455+422362427+423115857+423913180
2188+424605571+425408741+426513623+427666517+428374902+428523456+428532271
2178+428799176+429237718+429510439+429514044+429488296+429739419+430316154
2168+430947960+431333551+431457537+431565984+431930037+432677863+433684748
2158+434594274+435148533+435529579+436178107+437235702+438327588+438980690
2148+439163201+439298395+439803641+440758090+442001165+443405576+444950726
2138+446566365+448082465+449423868+450686360+451965816+453362079+455137722
2128+457476802+460104689+462551459+464710391+466751849+468674138+470319615
2118+471660928+472772322+473626686+474142442+474428250+474832561+475648030
2108+476832610+478131514+479403669+480700755+482077176+483448145+484674741
2098+485716614+486542261+486912493+486549955+485582570+484452516+483236796
2088+481400840+478492810+474871305+471387903+468456639+465804791+463104778
2078+460511515+458469299+457177817+456386340+455722909+455129240+454778637
2068+454659195+454554747+454347154+454058953+453771025+453638738+453702988
2058+453709864+453456106+453106866+452908694+452952406+453348386+454191875
2048+455289638+456254326+456891828+457420974+458366578+460082637+462330749
2038+464667285+467181515+470320403+474093278+478046211+481946768+485923147
2028+489884016+493271210+495631706+497203725+498607379+500054503+501217424
2018+501826723+502003752+502000571+501969067+501939623+501728728+500991928
2008+499612205+497925500+496437118+495393094+494634545+493814623+492780777
1998+491739268+491053904+490987292+491612100+492752454+493980716+494864675
1988+495259626+495370799+495640461+496475619+497916473+499634046+501297911
1978+502837244+504362310+505977010+507682527+509419063+511201462+513143743
1968+515274261+517391450+519203717+520596557+521734699+522952631+524574057
1958+526788908+529566712+532603333+535485281+538024987+540309693+542422641
1948+544388914+546391417+548662854+551062065+553125576+554753242+556469179
1938+558758974+561538534+564382678+566972972+569271976+571472287+573737302
1928+575937371+577906310+579832476+581919979+583917029+585495742+586733546
1918+587828006+588790150+589701706+590816887+592192945+593520474+594444147
1908+594962751+595453001+596272772+597319431+598115937+598449939+598742563
1898+599564030+600894770+602136754+602921022+603542014+604308167+604882145
1888+604721596+603877168+602908602+602330201+602260832+602356919+602249442
1878+602046362+602016130+602035639+601935008+602045514+602783010+603846512
1868+604238131+603232851+601008366+598171008+595181704+592360097+590029772
1858+588321468+586992848+585732991+584543352+583677780+583293189+583245630
1848+583338325+583680143+584208380+583848326+581531026+577936542+574552710
1838+572116968+570607502+569807543+569519161+569481174+569255618+568409736
1828+567096565+565912621+564937754+563709038+562175642+560800371+559726267
1818+558655374+557531530+556829476+557045460+558069339+559081829+559237047
1808+558587156+558030626+558404009+559894692+562063257+564081572+565124536
1798+565012273+564572732+565081763+567134551+569776706+571218135+571193295
1788+571181602+572376633+574803652+577921880+581282568+584281566+586177137
1778+587144370+588472081+591306531+595697460+600291105+603079026+603438414
1768+602309178+600865811+600274929+601462569+604108601+606533923+607761852
1758+608482566+609335294+610373896+612121337+615432952+620189206+624813628
1748+627679643+628632881+628773255+629543103+631782734+634881818+637135504
1738+638194826+640147285+644611703+649422968+650736442+649321428+647991294
1728+647412105+647445548+648549884+650973085+654270765+658320240+663609638
1718+669686273+674066599+675046737+674223271+673853342+674854926+677307027
1708+681156814+685938332+690355191+693631000+696823384+701192926+705766639
1698+708634108+710005016+710700709+711045678+711805227+713515166+715735773
1688+718405373+723092742+730707195+737484551+738742833+736885067+736157325
1678+738077977+742562813+748178095+752487053+754894685+757163699+760347904
1668+763297344+765098948+766667120+768528581+769640611+769573060+770039137
1658+772519349+776950143+783206350+790815351+795728519+795552520+794520038
1648+795665935+797837650+798110584+796613357+795569727+795809217+797195393
1638+799670819+802137884+801446735+796845153+792363045+790895686+791762712
1628+792603626+792169659+790818865+788616130+785688198+783682424+783988255
1618+785620949+785867649+783350238+779575515+776220098+773953871+772916057
1608+772565030+772024555+770986438+769597536+767824831+765617552+763466072
1598+762231782+762218030+762608073+762166230+760647253+759163294+759010681
1588+760402430+762371127+763771297+764277906+764422158+764905562+766276955
1578+768870642+771600826+771520006+768200637+765040423+764488679+765824206
1568+766404243+765004315+762509926+760498578+760918127+765474209+772914300
1558+776314368+772981428+768814238+767059041+766993186+766890010+765934591
1548+764897928+765363157+768239229+773324155+780187601+787792785+792042734
1538+790288325+786899041+786228612+788334169+790555988+791611129+793072733
1528+796405552+801246685+806235826+810764888+815037919+818731277+821596807
1518+824670263+828591056+832313191+834885734+837165593+840728088+846635813
1508+855266028+864258781+867835210+865791389+863565875+864537470+868792386
1498+874244212+878783937+882295601+885830228+889666080+893342293+896601441
1488+899238991+900424087+899918508+899391665+901087912+905632605+911783455
1478+917942424+923173965+927443845+931238198+934070346+934760344+934425553
1468+935925143+940575677+946469891+949811919+949605568+948714975+949944236
1458+953413370+956299923+956428726+954912718+953185512+952126614+952734702
1448+955370859+958776924+961023159+961681774+962337844+964891667+969896499
1438+976346396+982082908+985218525+986214232+986317347+985224583+983077344
1428+982750369+986506977+992268511+996164767+998231186+1002045471+1008132041
1418+1011080270+1007044063+1000009526+995651737+995940119+999165522+1002370447
1408+1004304610+1005803291+1007376430+1008309615+1008028139+1006307839
1400+1003287395+1000731209+1001040494+1003946252+1006182308+1005460140
1391+1002693363+999331766+995951691+993384116+992898894+995105930+999288569
1381+1003611219+1006621365+1008573764+1010301091+1011910581+1013752111
1372+1016542576+1019696004+1021784113+1022740259+1024388039+1028676580
1364+1035219110+1040445016+1041378988+1039812876+1039671229+1041466957
1355+1042320957+1040547525+1037518053+1036128606+1038225196+1043527317
1347+1049979455+1054559287+1054882445+1052037635+1050742942+1054258303
1338+1060506755+1064887264+1066000081+1065408897+1063752635+1061000520
1330+1058638205+1059001470+1062603709+1067003847+1069234572+1069009803
1321+1068123814+1068052445+1069473517+1071529274+1071380114+1067698146
1312+1064012664+1064861939+1069801765+1073741823+1072707402+1067929822
1304+1063640917+1062748870+1064301047+1064602516+1061282359+1055423102
1295+1049171499+1043795222+1040320211+1038974628+1038319466+1036755535
1287+1034085572+1030786378+1026909570+1022007064+1015075581+1005853091
1278+996157618+987803609+980741081+974938167+971487935+969971867+967558419
1268+962418240+955613803+949057702+943720320+939498544+935309543+929975736
1258+923708684+917803322+912802428+907788326+901467959+893763780+886193977
1248+880220821+875404467+869787549+861923244+851986038+841376222+831950168
1238+824982819+820128297+815893494+811605196+808073599+806033897+805155300
1228+804895089+805165296+805661363+805593266+804761863+804070532+804403081
1218+805623800+807055656+808352106+809592757+811206428+813897232+817764165
1208+821637399+824450523+826815321+829728229+832662764+834733909+836721629
1198+839998286+844182137+847567483+849728657+851963743+855182603+858915583
1188+862211930+864701412+866823569+869316746+872671436+877018562+882238834
1178+888155161+894842246+902564116+911270183+920115897+927844128+934124024
1168+939390461+943387226+945037369+944400988+943871358+945908939+950083641
1158+953934216+956305315+957693611+958142785+957316896+955932841+955381522
1148+956297258+958025251+959097841+958355619+956210500+954446156+955076842
1138+959502304+967362185+976029356+982702204+985704958+984905302+982554256
1128+981910848+984793039+990195852+995532991+998079240+996208327+992050164
1118+990954856+995563404+1001985492+1003939830+1000195884+994799190+991353805
1108+989796175+988438474+987351284+988211040+990640421+991855445+991021377
1098+990515799+991996729+993565324+992686424+989505975+986016666+983602431
1088+982691238+983257522+984003561+983029300+980664138+979084637+977850650
1078+973405377+965196286+958747662+958712947+962798711+964590925+960687520
1068+953443905+946281837+940253246+935479180+932169201+930822224+932550642
1058+937340520+942091504+943758549+943967869+946195140+949752001+950444544
1048+946565615+940743739+936430176+935870072+940004243+947279241+953462141
1038+955475670+954647115+953761247+953410826+953220772+953275419+952560763
1028+949451623+944420739+939966923+938510348+941240532+947583012+955173050
1018+960968814+962685176+960306443+955821729+950823076+945248021+938360280
1008+929886313+920350480+911278301+904002940+898254795+893385914+889903875
998+888022239+886027249+882064289+876506622+871029896+866496594+862292810
988+857279254+851450774+846281878+843211208+842267846+841923362+840072745
978+835936211+830991781+827259406+825104958+823471112+821574451+819254728
968+816077308+811465185+805904913+801000469+798049999+797260703+798191767
958+800062559+801925838+803510428+805641915+809210469+814109702+819346574
948+823679160+826569166+829034050+832817073+838534320+845394314+852844037
938+861251240+870188316+877590420+882541938+887598207+895659230+905617943
928+913318548+915986572+913881136+908752469+902838080+898479018+896799189
918+897064731+897992766+898880936+899180103+898277999+896761021+896670265
908+899281946+903288647+905709911+904986591+902633667+901049138+900679208
898+900369621+899866708+900541439+903265625+906628676+908552661+909134818
888+910173420+912559847+915744718+918763043+920592819+920479889+919163265
878+919231604+922505171+927189511+929327118+927335520+923790413+922155719
868+923416909+926913851+932535375+939412211+944119209+944062744+941190550
858+938947103+937980597+937660528+938485751+940796932+943362387+944684706
848+944836228+945043064+945982913+947356608+949239880+952301704+955621558
838+956243398+953148676+949564674+949043707+951995509+956969201+962750971
828+968073327+971185921+971505626+970378753+969680091+971274375+976608909
818+984020585+988565763+988751939+989677308+994524500+998290559+995165485
808+989260789+989244128+995519723+999753011+995399765+985587364+978893008
798+979994921+986703271+992846549+994077991+991830485+989536752+986890296
788+980986388+972264630+965061970+961603680+958651514+951337197+939441715
778+927294686+918843741+915286881+914918344+914428276+912107704+909881766
768+911338946+917329914+924918619+931089463+934685522+935278645+933861995
758+932855564+933420213+934942885+937044201+939963349+942977129+944464117
748+943999979+942760176+941294574+940022540+940352120+942939991+946822736
738+950231952+952936994+956740434+962584848+969113443+974819361+979220408
728+981739333+981741090+979318070+975549102+972307221+971024706+971691378
718+972460682+971374097+969506698+969819557+973996016+980384056+983530274
708+978959591+968231453+956366445+947419131+943284717+944596252+950858215
698+959139281+964696766+964546759+958990909+950260124+941448762+934292873
688+929754966+929401515+932823454+936848695+938305148+936708199+933359386
678+929510931+928076712+932149208+938443645+937876028+926547618+911292114
668+904158400+910760424+921848131+927993045+928394115+924839980+919031796
658+912922506+907873265+904265998+901152313+896629128+891045834+887534654
648+888176851+893827697+903883951+914551384+921781307+924486833+923468284
638+918016277+909595806+902057629+897665731+895013216+891347969+885459571
628+879136660+878518091+882882908+881000484+868458504+854319393+848645222
618+854319999+865601941+870861168+863283611+849954637+842415672+843771131
608+849061196+853642239+858540988+867665210+881804018+896421747+904370385
##END=
