##TITLE=<SNM>
##JCAMP-DX=4.24
##DATA TYPE=INFRARED SPECTRUM
##DATE=29/4/2025
##SAMPLING PROCEDURE=Instrument type and / or accessory
##ORIGIN=Admin
##XUNITS=1/CM
##YUNITS=ABSORBANCE
##RESOLUTION=4
##FIRSTX=4497.3318
##LASTX=599.83466
##DELTAX=-1.4281778
##MAXY=2.109865
##MINY=0.38356328
##XFACTOR=1
##YFACTOR=1.9649649e-09
##NPOINTS=2730
##FIRSTY=0.39334449
##XYDATA=(X++(Y..Y))
4497+200178894+200679764+201657995+202237050+201912737+200851968+199685546
4487+199040106+199199737+200011346+200911771+201204976+200673879+199890299
4477+199572432+199709237+199777215+199748398+200138580+200981023+201639780
4467+201894507+202349709+203336586+204196713+204206966+203511399+202598218
4457+201588940+200634597+200278798+200757372+201514956+201829593+201479769
4447+200681387+199846876+199365465+199294818+199430031+199671608+200020537
4437+200411037+200801660+201091726+200961033+200303793+199676522+199765552
4427+200460133+200848267+200235845+198951183+197866071+197297845+196864361
4417+196402243+196389821+197198017+198378331+199040607+198824221+198216652
4407+197813806+197591885+197197182+196681297+196529750+197057723+198030464
4397+198823994+198962270+198588756+198271208+198364757+198809252+199363903
4387+199683666+199404490+198620030+197991607+197883482+197732754+196858507
4377+195654198+195201089+195787576+196574098+196795018+196732349+197138729
4367+198008154+198594550+198619014+198595369+198760172+198672917+198140060
4357+197614165+197536526+198029114+199028807+200064263+200307387+199465673
4347+198274089+197666960+197764468+197987982+197944772+197769943+197674529
4337+197647092+197570636+197248340+196537258+195762323+195579153+196143223
4327+196839791+197086586+197022506+197208633+197939751+198930313+199556598
4317+199472467+199045642+199024697+199662372+200346321+200332837+199684970
4307+199076855+198935986+199253473+199899445+200672271+201273273+201510422
4297+201320229+200614789+199535258+198763918+198953397+199855203+200677018
4287+201248263+202010382+202839978+202899856+201998855+201162858+201303606
4277+201995912+202160624+201631226+201313162+201857833+202925413+203780277
4267+204057709+203888689+203569488+203112450+202269234+201245533+200853090
4257+201493298+202644007+203685909+204536132+205301967+205991831+206552291
4247+206714334+206099682+204825303+203590009+202952470+202901024+203233178
4237+203894438+204758356+205536704+206095329+206469981+206551366+206237230
4227+205804763+205619606+205567174+205202745+204447224+203823411+203911015
4217+204676638+205599343+206351998+206883247+206993798+206557948+206044187
4207+206112453+206817863+207639147+208052292+207860690+207278237+206817832
4197+206869506+207340072+207789709+207877813+207654512+207429390+207375184
4187+207404714+207510472+207939360+208685660+209062010+208437409+207382904
4177+207273702+208542758+210077749+210683649+210525141+210605055+211258731
4167+211830172+211781183+211419484+211153928+210713998+209800226+208974543
4157+209003405+209713275+210353983+210733457+211253392+212040870+212673221
4147+212781846+212513833+212198090+211815142+211136168+210310909+209922789
4137+210322284+211146663+211674727+211564358+211173584+211203857+211956057
4127+212885633+213129592+212584450+212061846+212149904+212466361+212443883
4117+212323535+212711320+213532165+214116408+214109855+213742863+213365815
4107+213186316+213330446+213855780+214716984+215737440+216579033+216928098
4097+216837704+216708680+216775110+216777476+216386991+215795939+215554392
4087+215897420+216552810+217142633+217502255+217684196+217854899+218123231
4077+218438625+218695825+218816007+218681765+218112569+217108190+216145171
4067+216019164+217175333+219156017+220876878+221502753+220965422+219810527
4057+218802963+218556669+219213424+220301903+221004871+220801044+219933121
4047+219119784+218850891+219048242+219233171+219008656+218530946+218360076
4037+218683509+219021017+218934096+218639101+218641983+219065426+219616923
4027+220063829+220435538+220799072+221178183+221684528+222367506+222964534
4017+223164843+223054109+222947578+222913225+222779150+222570970+222721076
4007+223610672+224892195+225684875+225619248+225174329+224774561+224251926
3997+223543362+223181435+223580854+224338180+224704460+224453949+223998534
3987+223856436+224157877+224566805+224684470+224460289+224069060+223733326
3977+223910536+225016502+226588182+227443987+227085245+226251827+225863677
3967+226089162+226504719+226687191+226598935+226539208+226722515+227014189
3957+227132596+226980321+226815108+227161974+228357698+229976319+230884662
3947+230316330+228870049+227966833+228356227+229432558+230115217+230060222
3937+229730677+229867876+231019222+232942833+234375706+234192703+232984846
3927+232489329+233615362+235601203+236992503+237285845+237165026+237331710
3917+237512468+236694945+234528451+231981832+230219292+229607098+230313782
3907+233118374+238612565+245500771+250726493+252485225+251541332+248844985
3897+244649759+240156292+237594748+238227403+240578158+241584478+240987739
3887+241451587+243917049+246126130+246634644+246872218+247004852+245005042
3878+241510813+240007915+241980394+245665907+249141300+251661104+252147657
3868+250642332+249397634+249582245+249499692+247379928+244323020+242690430
3858+244034789+249448443+259109361+268009358+267514282+259050878+249839460
3848+243501249+241134615+242746229+247134407+252476717+257656650+261906947
3838+263559314+261737806+258227803+254992017+252306287+249932918+248419615
3828+248328053+249186724+250730664+254138503+259542375+263238020+262635380
3818+260701547+259482102+256823202+251735316+247123563+246024998+249204060
3808+254668235+258785822+260656956+262789688+265733816+266457122+264156827
3798+261546916+259335529+256072352+252039320+249412589+249211598+250535102
3788+252268810+254024524+255577124+256998348+259071353+261937918+263934633
3778+263557980+261769596+260720535+261878615+265585089+270735721+275317807
3768+278453037+280482695+281423616+281898702+283939917+288654775+294142049
3758+297642800+299583732+303034857+310518847+321613365+331268217+334511768
3748+334101778+335870869+341157911+345216620+344716903+343260491+345547258
3738+353310833+364410963+373756623+377558254+376445432+373802427+372852800
3728+375184339+380270966+386006886+390628528+393769855+395723830+397223498
3718+399311184+402628932+407797035+415913392+426544381+435700030+439854897
3708+440360894+440782502+443662959+449383045+455626659+459303467+460189697
3698+460400394+461464743+464123734+469208753+476728112+484094893+487126200
3688+485207715+482042181+479754141+478274312+477928508+479466820+483646045
3678+491315162+500759952+505342160+502591773+499080861+499192549+499871053
3668+496915672+492034161+489102501+489350024+491594110+494852040+499567716
3658+505741715+511183611+514260479+517647539+525754644+539313017+551214927
3648+551949124+543216720+533563386+527888376+526642814+528225080+531034951
3638+534036167+536114935+536803146+538045918+543262464+553293149+562347272
3628+562362863+555465042+549960265+549968152+554682675+560991174+565841350
3618+568122383+569199836+571044003+574220972+577990662+581322030+583024114
3608+582102940+579288701+576999963+576783441+577809752+578091248+577215575
3598+577148841+579623343+584002133+588521914+592701048+597125278+601387101
3588+603314080+601278021+596744347+592816801+591582887+592845740+594576156
3578+594971040+594019654+593019976+593104911+594654659+597664004+601694442
3568+605381260+607160635+607131697+606725225+607135822+608694428+610221608
3558+609749676+607264376+605254830+605624294+607674670+609849232+611871276
3548+613690327+614442178+613729761+612457990+612270892+614396435+618177348
3538+621203437+622097856+621779717+620960221+619210756+616861593+615172856
3528+614650995+615075242+616390936+617961068+618199067+616667215+615024221
3518+614857749+616690815+620176641+623703358+625230902+624710498+624211751
3508+624470619+623750497+621389201+619734376+621248634+625317414+629170643
3498+631453435+632995236+634273377+634300435+632270504+628774060+625124128
3488+622543034+621795793+623076239+626283967+630864052+635144985+637176918
3478+636905492+635833075+634862518+633963245+633103770+632729331+633431374
3468+635074672+636553925+636739810+635478292+633677198+632556308+632462516
3458+632205832+630266660+627016526+624663116+624576665+625940165+626944210
3448+626311631+624503561+623887180+626437516+630911129+633951718+634622700
3438+634567371+633597482+629906417+624490578+620630070+619633304+620699898
3428+623516260+627841117+631960857+634299767+635206987+635845208+636651417
3418+637216898+637176615+636676776+635842236+634666441+633619625+633612284
3408+634613054+634938838+633265328+631195781+631819017+635379647+638508992
3398+638174654+634909778+631194871+628532422+626898710+625903825+625718911
3388+626629710+628593271+631269370+634191961+636569820+637556271+637763997
3378+639160196+642089399+644148815+643547540+641474475+639872249+639353664
3368+639590146+639911561+640048427+640919186+643166731+645300767+645429018
3358+643730877+641405132+639255080+638615403+641148084+646689383+652673129
3348+655927146+654940876+650689548+645924306+643246205+642939896+643764487
3338+645126834+646512902+646411405+644135892+641229075+639177122+637660073
3328+636530446+636755765+638104401+638554917+637768789+638499164+642339895
3318+647291325+650488678+651154746+650127950+648117797+645889908+644890473
3308+645934984+647898181+648833551+647910436+645804367+644202081+644895691
3298+648272680+652538690+655127853+655200714+653826173+652059721+650692703
3288+651041722+653837882+657566682+659457927+658676046+656872950+655867206
3278+656490928+658157400+658792891+657101363+654569288+653341623+653364798
3268+653182674+652645404+653282048+655969492+659191719+660216876+658081566
3258+654350643+651161965+649815877+650512035+652223826+653717093+655247064
3248+657828219+660821305+662020578+660168585+656080331+651582572+648840042
3238+649719416+653954606+658592628+660539869+659707513+658167350+656578228
3228+653803362+649806352+646747381+646465035+648140244+649224370+648495269
3218+647098948+646253488+645844468+645735267+646698786+649564350+654196062
3208+659196693+662246989+661409597+656953092+651498972+647956785+647217007
3198+647806512+647309464+644883861+642773303+643621372+646933509+649680528
3188+650220710+649431185+648058039+645990980+643566104+641540845+640253544
3178+639525960+639335828+639561814+639382724+638202804+636704987+635774106
3168+634807493+632521121+629060956+625699376+622968555+620474882+618232919
3158+617325456+618906630+622514702+625809063+626577476+624591771+621153508
3148+617755831+615577811+615202097+615937932+616051987+614413967+611530628
3138+608744721+607167369+607557157+610054105+613325352+615206344+615088285
3128+614476030+614572795+614622967+613230529+610470526+607892162+606701747
3118+606671534+606860938+606721706+606089128+604829066+603291693+602591956
3108+603402411+604888641+605637459+605118389+603593089+601161722+597775693
3098+594223435+592318601+593307176+596342426+599137373+600011347+599037393
3088+597403741+596033265+595202910+595034316+595509645+596139130+596248392
3078+595646571+594584831+593367540+592340320+591624748+590717224+589077021
3068+586989577+585354712+585093842+586559749+588728062+589583351+588417323
3058+586775603+586200173+586298758+585937605+585167068+584870162+585270567
3048+585628262+585178777+583860414+582052404+580146356+578846800+579214323
3038+581289148+583239544+583146177+581093071+578431532+576017698+574165158
3028+573112094+572555349+571616885+570018542+568826913+569392394+571598685
3018+573682488+573994137+572615531+570953912+570197996+570285357+570020847
3008+568377065+565678700+563143592+561461407+560501345+560016370+559703994
2998+558875459+556988764+554643545+553370015+554102028+556228420+558428159
2988+560029171+560948889+560783085+558987451+555857317+552619620+550524411
2978+550045867+550674199+551226393+550697859+549169223+547743236+547408473
2968+548089343+548828393+548747160+547778544+546694418+546484751+547385602
2958+548492235+548610840+547464044+545791930+544424426+543643758+543293889
2948+543034779+542395648+540962260+538813117+536621326+535191820+534955885
2938+535794429+537051033+537658071+536708990+534385672+531960554+530430461
2928+529694263+529363322+529520875+530161583+530703950+530612524+529941543
2918+529020673+528046658+527045524+526031469+525154522+524505138+523708515
2908+522149848+519911100+517968894+517098438+517153221+517651482+518275082
2898+518503556+517832999+516749480+516278822+516315040+515677547+514035827
2888+512535462+512138697+512411458+512370325+511709111+510719202+509608564
2878+508424761+507318339+506444183+505747236+505063788+504298590+503548438
2868+503203998+503619995+504461603+504808226+504195546+503123462+502296263
2858+501871379+501655524+501567617+501598861+501600286+501438729+501230731
2848+501128324+500812672+499500042+496840808+493705790+491592199+491248610
2838+492156618+493131119+493210047+492284323+491075798+490277840+489795565
2828+489155524+488377343+487935472+487988981+488003996+487251084+485718929
2818+484288058+483726793+483867876+484036713+483826440+483199533+482382920
2808+481789502+481505851+480943070+479517387+477597355+476259760+476089770
2798+476529427+476547748+475867363+475086726+474579273+473959040+472814459
2788+471348128+470064376+469312859+469181878+469378501+469364942+468997388
2778+468704607+468726569+468655012+468050825+467025516+465955920+465055585
2768+464400590+463948982+463421145+462562550+461569212+460842235+460338271
2758+459595672+458495135+457569502+457288673+457384588+457202343+456466539
2748+455360967+454118195+452902815+451911661+451273046+450950478+450849527
2738+450834239+450684694+450302156+449870841+449588040+449327200+448763661
2728+447787796+446628684+445604649+444842364+444218763+443524364+442624182
2718+441573878+440703786+440363078+440418679+440280934+439619326+438710801
2708+437903652+437175765+436383934+435549666+434797451+434317906+434368442
2698+434976724+435648281+435654378+434685854+433119452+431672899+430876154
2688+430759642+430868207+430594688+429691138+428558872+427911278+428009711
2678+428356577+428318022+427825919+427133977+426226332+425048778+424046462
2668+423757200+424017038+424192822+424101669+424113803+424336088+424234500
2658+423341325+422030181+421146712+420950726+420850413+420264881+419323566
2648+418493242+417964253+417698166+417678115+417820987+417917599+417802786
2638+417373777+416536324+415465090+414720337+414679569+415061925+415375150
2628+415505980+415513957+415251268+414603431+413777111+413014218+412310992
2618+411659364+411277190+411343742+411708383+412075360+412314056+412383186
2608+412135633+411508514+410822821+410554216+410770192+411037432+410952710
2598+410562588+410143286+409745914+409186500+408430918+407710948+407207651
2588+406909866+406825599+406959795+407050644+406777884+406267732+405950714
2578+405964637+406072625+406024971+405725153+405238782+404803251+404608205
2568+404531734+404335566+404085283+404129054+404636598+405275183+405445203
2558+404912877+404090349+403551471+403423493+403452492+403483341+403555475
2548+403658063+403722098+403777639+403889631+404026557+404094868+403977780
2538+403574251+402985777+402578821+402656596+403099165+403433776+403295909
2528+402851763+402663785+403015110+403552563+403770844+403577436+403192744
2518+402844574+402721723+402883917+403145302+403313897+403462502+403717092
2508+403963493+404006719+403864150+403725192+403699226+403701107+403570975
2498+403264756+402911672+402702279+402735130+402935818+403098619+403084969
2488+403012107+403114696+403380055+403493897+403219317+402699306+402350863
2478+402511267+403126192+403747578+403935859+403649934+403180034+402856495
2468+402904847+403328882+403828720+404076547+404070025+403982634+403844797
2458+403641471+403481278+403417517+403341076+403197749+403078508+403068346
2448+403224989+403602219+404071754+404311876+404213018+404111340+404387983
2438+404955981+405333363+405208964+404797063+404545354+404589884+404678489
2428+404565920+404242290+403815040+403448457+403375656+403665707+404008266
2418+404010874+403685181+403415879+403530146+404071724+404846537+405517883
2408+405811664+405791462+405778024+405942190+406201088+406480613+406779309
2398+407038844+407225579+407418349+407633112+407789725+407956530+408306429
2388+408757552+408942526+408546702+407455569+405653414+403235029+400487828
2378+397779363+395315266+393000683+390520661+387641174+384516592+381631857
2368+379381218+377786576+376648607+375851256+375477848+375756402+376995382
2358+379391562+382737369+386639040+391104312+396144832+400739052+403257749
2348+402832441+399923166+396058077+392916022+391253523+390859883+391142411
2338+391532169+391850430+392300005+392931401+393431422+393640482+393887277
2328+394461372+395114639+395477915+395696075+396256369+397310555+398534611
2318+399650254+400738718+401967293+403300641+404543170+405510663+406174516
2308+406726802+407411646+408239058+409062830+409903195+410870142+411858535
2298+412654855+413219881+413653289+414056514+414479973+414839397+415027132
2288+415199822+415623614+416195252+416528953+416506142+416336820+416159823
2278+415985616+415927436+416068609+416152087+415780045+414925787+413930266
2268+413074946+412525725+412534461+413213875+414204149+414978628+415443159
2258+415952158+416784636+417807185+418623192+418930745+418726114+418265345
2248+417889480+417772119+417763474+417586356+417172240+416659479+416154453
2238+415665474+415181349+414714907+414323026+414063067+413900599+413736160
2228+413515179+413251731+413030447+413004663+413262014+413701398+414116787
2218+414342167+414355969+414361975+414628062+415133907+415604200+415957254
2208+416434160+417231724+418254849+419248217+420013809+420517622+420884326
2198+421292314+421855459+422580647+423349303+423946573+424268687+424514784
2188+424986685+425708688+426457627+427103765+427663027+428112785+428429256
2178+428714150+429093625+429597376+430169106+430631786+430767923+430645739
2168+430678621+431163808+431939047+432626226+433013860+433097187+433011403
2158+433100190+433785883+435119626+436611588+437685250+438184057+438320528
2148+438361873+438592470+439360670+440803675+442578651+444141594+445296914
2138+446300262+447510333+449130365+451149861+453334312+455385112+457222090
2128+458982567+460783115+462702206+464879680+467332190+469741413+471683771
2118+473051578+474100426+475117211+476151135+477047344+477696667+478280257
2108+479230460+480830350+482823638+484539494+485537017+486100739+486958090
2098+488470498+490208952+491399611+491635849+490957194+489459316+487204188
2088+484387522+481264061+477995939+474761306+471823943+469323566+467104323
2078+464850044+462381913+459882629+457839563+456622060+456082423+455738591
2068+455353414+455060875+454906083+454640208+454093534+453445727+453012866
2058+452940550+453107112+453247891+453252562+453330156+453755889+454537831
2048+455468075+456395528+457342515+458415964+459663255+461057695+462664046
2038+464752825+467648540+471449321+475902247+480552827+485034691+489232996
2028+493164182+496761486+499868293+502399215+504489965+506436236+508272547
2018+509454833+509364560+508173386+506751160+505726579+505065153+504452715
2008+503656334+502486334+500779214+498631467+496504013+494887713+493854183
1998+493121897+492650239+492852413+493904234+495153314+495755984+495711879
1988+495664043+495976359+496549726+497256228+498179070+499533348+501411853
1978+503535819+505432281+506965589+508451849+510195581+512162782+514109659
1968+515844079+517335102+518652555+519893446+521245358+523015511+525380386
1958+528101501+530674344+532826581+534734570+536702499+538832834+541115869
1948+543633566+546522244+549805017+553204514+556101321+558043042+559347876
1938+560768342+562758476+565327861+568157995+570687582+572498382+573726533
1928+574970457+576939417+579980431+583576976+586766503+589314837+591500926
1918+592825173+592554051+591394212+590886365+591681714+593370270+595194660
1908+596524974+597189646+597515369+597827685+598112579+598288818+598595552
1898+599533713+601197880+602719964+603198690+603205000+603991977+605366154
1888+605986236+605635275+605175052+604722291+603753736+602455940+601632865
1878+601608234+601932926+602034544+602110863+603279742+606236792+609465025
1868+609794388+606179704+601013572+596794398+594103435+592408024+591205051
1858+590260884+589362825+588192429+586532934+584688645+583397582+583148664
1848+584065591+586238939+588902299+589525474+586418576+581530968+577726819
1838+575729649+574451023+573080789+572393913+573542650+575881317+576997051
1828+575812884+573687281+571438402+568393384+564587051+561308707+559334772
1818+558303790+557752020+557914670+559214590+561223773+562580902+562395806
1808+561389941+560980314+561901670+564036252+566703919+568795002+569383901
1798+568791726+568664628+570741273+575216585+579475678+580042069+577446415
1788+575337009+575710478+577880975+580429430+582944215+585572872+588008971
1778+590020581+592474637+596940728+603778489+610115198+611834087+609072264
1768+605150239+602339883+601781803+604022311+607880696+610728423+611775239
1758+612475584+613394937+614392309+616825314+622330941+629631230+634540799
1748+635081891+633713902+633326359+634782194+637550205+640527214+642622787
1738+644432617+648499152+655969188+662745008+663136798+658963063+654875477
1728+652461218+651889913+653136324+655721969+659577321+665969115+676023522
1718+687498092+693965357+692275649+686766625+682230706+680716387+682897259
1708+688488851+695328189+700247586+703450521+709019909+718733183+727356749
1698+729598470+727736284+724410983+720271162+717453525+717880866+721128453
1688+726260853+734504823+746937695+757888159+759074570+753396709+748549627
1678+748639294+753876164+760642216+765067416+768458906+773587969+778110966
1668+777789914+775100225+775346717+778891270+781486924+780566479+778881381
1658+780026599+785757605+797247523+812698719+821403337+818959169+815596740
1648+816070734+816812332+813170590+806652243+801223058+798835978+800191955
1638+804832403+809873803+810396634+805293051+799183359+795835854+795929585
1628+797978262+799938426+800996283+800575615+797427827+792460745+789051238
1618+788902603+789587659+787299164+782819726+779588035+778691007+778471937
1608+777001784+774385442+771830556+769649988+767514436+765625920+764633281
1598+764827780+765815627+766776356+767133566+766949198+766457124+765715223
1588+764968165+764612957+764521774+764083149+763205049+762884604+764503877
1578+768429603+772582347+773316240+770889727+769335307+770372294+771790091
1568+770839797+768519452+767406933+768663597+773453470+784089252+799120447
1558+805540695+797054480+785289253+777165283+772852559+770994742+770353002
1548+770759898+773646635+780580068+791344162+803785163+813261773+812659831
1538+803621725+796919920+797499778+802374646+804870320+802937336+801027284
1528+802768377+808086845+815385920+824253794+834399444+842766327+846387988
1518+846652013+845795996+844334579+843267682+844759190+850321601+860197827
1508+873047059+882472648+880656388+872666735+867721251+868826126+875108841
1498+883374348+888907578+889534272+888539509+890062503+894497835+898683824
1488+900241217+900802087+902634303+905865812+909790749+914377265+920190717
1478+927600450+936502723+946425238+955253982+957961446+952407104+944644590
1468+941203717+943282728+948052520+951891309+954040027+956609352+961442055
1458+967563092+970185136+966611342+960990447+957568624+957669696+960572449
1448+964103291+966127944+966145113+965140643+964914050+967609684+974239720
1438+982727634+987921369+987598437+986107353+986953421+989258539+991708046
1428+995098989+999726576+1003499481+1004181504+1002022897+999516242+999073613
1418+1000257658+999872845+997216827+994961092+994557775+994881921+994869605
1408+994981355+995907382+997807666+1000588053+1003697620+1006104781+1007142861
1398+1007145955+1007079342+1007511537+1007553700+1005154366+999334786+991866084
1388+985902237+983118817+983294207+986237303+991388935+996601659+1000570156
1378+1004746924+1010317767+1015380400+1017090311+1016121210+1016033728
1370+1017554902+1017926004+1016151726+1015545537+1019301334+1026234889
1361+1032852973+1037574837+1040792150+1043320403+1046391144+1049650074
1352+1049927931+1046154177+1042490837+1042741272+1045762751+1048724533
1344+1051469489+1055326358+1059948000+1063636699+1065511442+1065661533
1335+1064640865+1063573847+1063352532+1063609520+1062915485+1060411135
1327+1057337967+1055869695+1056601587+1058564783+1061207212+1064552533
1318+1067802728+1069884105+1070904773+1071906513+1073284391+1073741823
1310+1071240507+1066244426+1062509620+1062983311+1066865902+1070765481
1301+1071705825+1069259231+1065759208+1063672614+1062626465+1060339183
1293+1055386297+1048353127+1040281331+1031768361+1023694138+1017427136
1284+1014106689+1012858882+1010444320+1004421018+995862973+988267840+984370325
1274+984063590+985014612+984841528+982215965+976310844+967018723+956243467
1264+947033004+940947276+937369720+934548141+930415599+923768941+915555304
1254+907954348+901794363+896086107+890125172+884191052+878041927+870727927
1244+862141793+853251472+844774842+836786767+829488844+823509769+819161980
1234+815758904+812177768+808212366+804794607+802580612+801029711+799338425
1224+797707079+797023721+797684632+799367909+801618852+804074364+806415276
1214+808713600+811496413+814918539+818471707+821999091+826028558+830538026
1204+834522053+837402056+839743332+842274193+845352153+849032480+852588317
1194+854726539+855291838+855941343+858116329+861226322+863648043+864988731
1184+866640158+870282992+876394443+884178494+892718279+901756264+911349295
1174+921599839+932717259+943872536+952167953+955087146+953748217+951391349
1164+949754786+949166858+950057395+952560289+955848825+958798231+960859102
1154+962138517+962900075+963071217+962392228+961174876+960383955+960730548
1144+962304806+964897488+968413284+972624390+976467123+979246600+981455257
1134+983222134+984182256+984772185+985728243+986632066+986267333+984854208
1124+985076554+989225839+995919515+1001153048+1002201320+999443380+994757431
1114+990268166+988096637+989307922+993158117+996956139+998186534+997586048
1104+997152944+997160163+997189162+997345199+997654360+997334521+995841497
1094+994597027+995928191+999427425+1000646111+996211871+989430167+985637666
1084+985122661+984800396+983278251+981428260+980337945+980771656+982323710
1074+981684215+975629124+965467640+955145508+947257777+942571949+941264263
1064+942958582+945831122+946982044+944977836+942053182+942511767+947745239
1054+952571452+950007284+941443354+935097545+935577788+940876295+946757332
1044+950151490+949847910+947272155+945206248+945014843+945795632+945857877
1034+944613467+942609381+939711542+935340639+931111212+930196711+933619262
1024+939182098+944018138+946840446+948207828+949728214+952570663+956059584
1014+957945733+956048724+949394179+939568488+930671737+925338649+921983560
1004+917255326+910321528+902950077+895917816+887966869+878547529+869669827
994+863943917+861648567+860257524+857018310+851847022+846930597+844045013
984+843251423+843559310+843876843+843327379+841423818+838389660+834997140
974+831891151+828956427+825319599+820275894+814427982+809397503+806036712
964+803482250+800530357+797390699+795231243+794710717+795907199+798978364
954+803988823+810292226+816642827+822227200+827423726+832975945+838600055
944+843412738+847759314+853042533+859655218+866737954+873664471+880438410
934+887033077+893128754+898266736+902559015+907261465+913182906+918165337
924+918209988+912880843+905953234+900095979+895315995+891918015+891187034
914+892916236+894916986+895393468+894168775+892131928+891189460+893287217
904+897913045+901738731+902133372+900101075+898912176+900504028+903988156
894+907286824+909135663+909523692+909215987+909812286+913134190+918885216
884+923729871+924575028+922639314+921821821+922848556+922226958+918462910
874+915599652+917799512+924177354+930557500+933547614+932220454+928764597
864+927876366+933170991+942812920+950603219+952914890+951558670+948845078
854+944273063+937930651+933268726+933655784+938853281+946320587+953438025
844+957856006+958387695+956175337+953582898+951798974+950609104+950306435
834+952576184+958631274+966612070+972930821+975681966+975567486+975217800
824+977126396+981063527+984606624+985977647+985310245+983710567+982230283
814+981638472+982036208+982853943+983846037+984733480+985201529+986958274
804+991255406+994425581+992303253+986477485+981244013+978333555+976526577
794+975102956+974605362+974616161+973103905+968927259+963643918+959123651
784+956012445+954232949+951951067+946520789+937962137+929492606+924268658
774+922605704+922333126+921772498+921527099+922659759+925119700+928112726
764+930151636+929697176+928323545+930618107+938212390+947237999+953400775
754+956134569+955684174+951409489+944757552+939376476+938323715+942763112
744+950840126+957317219+957885794+954495821+952807751+955810605+962480984
734+970569343+978177701+983194712+983573277+979330806+973910781+970009201
724+966049926+960193702+954881544+954216994+958638615+965261189+971965239
714+977965850+981837279+982555278+980586864+975847891+968424690+961520316
704+958952751+960720720+963193826+963256132+962292369+964914899+973398931
694+982736855+983726644+974642369+963131885+955755883+951438913+945812316
684+938417810+932031900+928140876+926295980+925038952+924353350+926213958
674+929991959+930365731+921529647+904738005+891237448+890085374+898331589
664+909447979+918153385+920065439+914178154+906112000+903639379+907953134
654+912240438+911229234+909141730+913367699+925122552+938608609+945406147
644+939830026+923449770+905672404+895266430+894325236+900951147+912323006
634+924250155+930905125+927149146+913008366+896049343+884530183+880196044
624+878487650+875125463+869609402+862750165+858536330+863750085+881444518
614+903805305+915514111+909527210+892296519+876816082+868709887+864813645
604+863138072+865890491+873637474+882265105
##END=
