##TITLE=<SNM>
##JCAMP-DX=4.24
##DATA TYPE=INFRARED SPECTRUM
##DATE=29/4/2025
##SAMPLING PROCEDURE=Instrument type and / or accessory
##ORIGIN=Admin
##XUNITS=1/CM
##YUNITS=ABSORBANCE
##RESOLUTION=4
##FIRSTX=4497.3318
##LASTX=599.83466
##DELTAX=-1.4281778
##MAXY=2.0881104
##MINY=0.37477967
##XFACTOR=1
##YFACTOR=1.9447044e-09
##NPOINTS=2730
##FIRSTY=0.3759622
##XYDATA=(X++(Y..Y))
4497+193326141+193942814+195299340+196451279+196883271+196323178+194902686
4487+193407915+192718066+193292549+195217888+198048221+200566295+201466079
4477+200672772+199541828+199246947+199535928+199688012+199808205+200173212
4467+200169243+199152270+197776282+197383000+198433626+200038307+200765625
4457+199924781+198278125+197270822+197540340+198517545+199289811+199390280
4447+198812671+197756375+196596421+195862498+195893285+196514310+197196757
4437+197564431+197712346+197963061+198404846+198833620+199071079+199049241
4427+198611241+197633653+196384631+195454289+195296367+195837855+196443187
4417+196471186+195978216+195562452+195564291+195845380+196230218+196703311
4407+197163563+197404133+197419979+197380257+197237613+196745915+195929437
4397+195133433+194629521+194520285+194766004+195048640+195049943+194950224
4387+195115779+195434015+195548032+195399993+195095381+194733914+194479843
4377+194446634+194599852+194866213+195133080+195252798+195303646+195556782
4367+196067238+196598198+196819229+196447662+195536354+194626762+194261310
4357+194389825+194504807+194290397+193925803+193798990+194097488+194695586
4347+195344425+195854728+196195139+196523336+196992951+197511713+197813291
4337+197765355+197559787+197457616+197285365+196564100+195337805+194366117
4327+194312802+195183514+196430498+197261657+197238272+196708859+196269633
4317+196113166+196271580+196809084+197427718+197648104+197588445+197913531
4307+198928328+200109982+200589481+200008776+198922091+198287396+198534617
4297+199177556+199370910+198926443+198576101+198994899+199922620+200577130
4287+200525822+199879741+199015388+198226143+197467394+196723019+196600849
4277+197750459+199614621+200752461+200641203+200207540+200349555+200861023
4267+201093225+200959408+200804091+200653126+200194606+199527652+199397989
4257+200296179+201664796+202530528+202568764+202137262+201614071+201086681
4247+200531507+200035488+199880293+200345648+201368076+202526804+203411263
4237+203870120+203891989+203466050+202736862+202144342+202095180+202577621
4227+203358423+204299446+205123157+205317431+204780999+204097756+203756655
4217+203613613+203484792+203685624+204495037+205491490+205945489+205668615
4207+205087527+204691272+204700160+205050916+205500149+205847977+205998452
4197+205815550+205308435+205004022+205494785+206466274+206853319+206188511
4187+205169438+204662798+204713892+204793964+204677418+204745430+205459185
4177+206710414+207800104+208113298+207725656+207248439+207202741+207639928
4167+208237874+208651231+208828111+208961560+209061340+208875924+208409482
4157+208034574+207945353+208033885+208272140+208621685+208748084+208493140
4147+208340060+208751686+209413505+209717841+209584255+209287857+208923033
4137+208527100+208427243+209045157+210335035+211581053+211917556+211112312
4127+209785685+208934281+209254264+210576386+211849269+212084322+211356452
4117+210494275+210082359+210228956+210882761+211827186+212611849+212883498
4107+212703308+212447153+212533478+213182685+214198417+215045345+215378584
4097+215385680+215399978+215416866+215296290+215122123+214976199+214687586
4087+214171184+213751881+213875231+214599177+215453339+215833518+215643459
4077+215459867+215824415+216540178+217013501+217069774+217008153+217004889
4067+216914610+216650900+216378562+216218662+216037722+215726520+215507512
4057+215671856+216093213+216361398+216393136+216492625+216779920+217015203
4047+217028596+216929475+216906457+217095520+217521996+217953804+217974738
4037+217397389+216550170+216127648+216614687+217691243+218461348+218459172
4027+218129826+218207124+218928588+219936335+220641708+220600300+219801798
4017+218703328+217837259+217380302+217232172+217369912+217814103+218383467
4007+218864346+219255958+219558256+219702034+219924581+220602706+221506352
3997+221905794+221564678+220982288+220610568+220434056+220297297+220254265
3987+220519170+221107614+221583972+221456424+220922383+220757120+221267315
3977+221912583+222186531+222225762+222322677+222506728+222737337+222925679
3967+222845469+222550082+222555798+223103723+223686405+223751842+223466739
3957+223432534+223934637+224610877+224877515+224784891+225089565+226113296
3947+227103420+227287318+226796785+226030618+225090637+224229855+223925412
3937+224220002+224770363+225676522+227323117+229071653+229426653+228341454
3927+227741593+228966662+230906437+231492996+230628705+230189402+231337648
3917+232945287+232937839+230970556+228698278+227570721+227596467+228290407
3907+229985198+233481918+238487630+243071939+245384614+245090714+242629265
3897+238851749+235489490+234413363+235987869+238126116+238155218+236570015
3887+236105120+237594604+239203638+239940411+240986762+242001498+240774789
3878+237813811+236303025+237625637+240577880+244008211+247172718+248245428
3868+246689878+244883920+244543018+244432112+242664896+239710094+237542898
3858+237974094+242738332+252714341+262994058+263764408+255681265+246570160
3848+240699191+238878475+240227768+243206047+246683488+250494091+254426158
3838+256961917+256588603+253935058+250572631+247281203+244441277+242861100
3828+243078192+244455498+246464066+250132056+255645328+259291020+258334994
3818+255844275+254579131+253005130+249496887+245831992+244629696+246956163
3808+251506374+255150212+256733285+258423388+261182690+262477426+260807262
3798+258112017+255534008+252344782+248622343+245892066+245248652+246476817
3788+248774887+251391928+253610600+255234530+257065053+259624182+261654696
3778+261491425+259660043+258326872+259296200+263170968+268786763+273501609
3768+275888855+276974100+278092661+279931154+283290854+288464618+293746117
3758+296809802+298195046+300904941+307439400+317835601+328107640+333550969
3748+335545101+338619789+344168706+348609912+349192257+349024909+352384977
3738+360957703+372530333+381719180+384820656+383191654+380705440+380204287
3728+382458175+386685752+391344847+394964885+396733098+397200568+398277844
3718+401321729+406092787+412408897+421068271+431319621+438987262+441241579
3708+440208255+439483174+441718366+447733374+455128722+459737183+460548941
3698+460314624+461726902+465735732+472418811+481365924+489948949+492646707
3688+487332781+479473794+474414997+473249419+475019103+478605610+483673511
3678+490734318+498765709+503169215+502024693+499350230+497653400+495619055
3668+492341252+489589244+488759955+488941431+488701383+488739634+491395003
3658+497405198+504002918+508019871+510690626+515763798+524325920+531938391
3648+532876395+528082288+522638224+519861911+520038024+521476722+522587100
3638+523468586+525096147+527630450+530799570+535282704+541809317+548150376
3628+549799025+547071383+544493742+545014481+549081086+554683180+558175103
3618+558534440+559201316+562829998+567785322+571200620+573311038+575741193
3608+577466527+576356945+573017045+569757019+567859985+567718383+569811575
3598+573709116+577225436+578039370+576395074+575312955+577811397+584451720
3588+592631027+598639721+601122042+600735365+598216816+594788583+592092205
3578+590596437+589417649+587869654+586450818+586648324+590017709+596747530
3568+604330209+608491276+607463652+603631763+599560377+595625566+591966664
3558+590335547+592416847+597639498+603424939+607029714+607780141+607964101
3548+610374334+614475695+616362982+613986219+610209009+608575869+608832285
3538+608381673+606870580+606889767+609359399+611099445+609315263+606498922
3528+607361589+612499585+617857340+619556745+617460549+614044576+611482137
3518+610246279+609536309+608744566+608416368+609403718+611715504+614575000
3508+616841486+617141056+614895719+611692456+610337125+611945745+614716112
3498+615824467+614597559+613376964+614659042+618147777+621276623+622259989
3488+621569389+620889149+621414976+623124372+625108390+626246168+625964865
3478+624616584+623216137+622883894+624112580+626081763+627474119+627552950
3468+626132642+623680726+621606169+621441396+623285957+625723652+627279738
3458+627312350+625937465+624048706+622751917+622274578+622161787+622006577
3448+621521943+620752084+620206151+619731571+618053866+615354484+614625940
3438+617894488+622578991+624204223+622427152+621154944+622896522+625873591
3428+627000703+626004036+625293330+626835011+630178282+632717612+632181487
3418+629237581+625989569+622761541+618936210+615546535+614178332+614553484
3408+615517173+617297309+620599632+624141268+625227249+623134732+620423396
3398+620069882+622160622+624393148+625185933+624686404+623360559+621718898
3388+620959644+621941661+623978641+625766378+626920462+627733722+628187277
3378+628211612+628171706+628237849+628141670+628183721+629099351+630381429
3368+630770925+630694608+631959767+635121224+638958140+642237782+644488146
3358+645522881+645541087+645039535+644201387+642898774+641288561+639790586
3348+638212616+635815256+632659806+630215062+630181531+632772842+636650155
3338+640385436+643222987+644723475+644748301+643926766+643135390+642292523
3328+640881287+639725793+640374402+642381284+642988946+640376609+635902424
3318+632159971+630810525+632600530+636651810+639742466+639143019+636198132
3308+634551568+635655632+637865293+639027899+638861041+638710061+639598474
3298+640783760+640160344+637087894+634210927+634563460+638193307+642450430
3288+644789126+644946666+644562135+644988717+645829868+645977968+645656391
3278+646130910+647666890+649205138+649698721+648727309+646589552+644566855
3268+644139597+645779725+648658163+651137419+651761018+650488748+648675327
3258+647495251+647143576+647099441+646291330+644452470+643319779+644653042
3248+647745414+650226019+650527489+649040181+647470670+646985485+646330439
3238+643405659+639358119+637768563+639465699+641511568+641665920+640751577
3228+639482495+637420566+635619956+636194209+639278123+642508971+643650183
3218+642489171+639961979+637113946+635203426+635303406+637093350+638751622
3208+638827695+637685196+636303997+634864747+633458415+632936083+633994172
3198+635867299+636553056+634699055+631390601+629347736+629939153+631955537
3188+633577704+634016118+633044767+630501085+626789404+623038185+620256294
3178+618914449+619053476+619875011+619821068+618419333+617163798+617223259
3168+617902334+618101986+617735600+616887154+615080230+612451097+610492642
3158+610829421+613569199+616960959+618771254+618124115+615817724+612907104
3148+609851879+607011079+604876939+603489794+602270670+600731932+599063177
3138+597988537+598260216+599981688+602178353+603506835+603398458+602185648
3128+600423534+598510011+596755560+595519702+595090177+595247900+595111202
3118+593942835+592032377+590305510+589401344+589488327+590473655+591941163
3108+593173159+593503318+592576164+590386977+587349713+584416718+582965148
3098+583865085+586400797+588495399+588319470+585801902+582495349+580002300
3088+579010598+579510189+580883235+581887258+581644942+580711841+580106142
3078+579549788+578243007+576778808+576359581+576693663+576502961+575636983
3068+574841991+573950146+572150823+569804710+568282890+568193760+568944862
3058+569604444+569439917+568218954+566720980+566256943+567185262+568201791
3048+567434444+564549018+561489625+560481923+561648145+563329589+564379587
3038+564985164+565351796+565026541+563766347+562000433+560189770+558489814
3028+557194312+556753569+557012007+557109044+556588734+555832054+555073228
3018+554066508+553045075+552800306+553296158+553267531+551817922+549568110
3008+547732498+546741654+546221160+545897806+545931091+546314029+546449194
2998+545786976+544686529+544090576+544416995+545104223+545092699+543672391
2988+541190806+538915493+537827673+537733946+537832822+537731923+537413412
2978+536628840+535122958+533366177+532390106+532658659+533481482+533905735
2968+533892249+534015338+534232522+533712213+531892416+529148224+526388217
2958+524461392+523864029+524440243+525402767+526158773+526851457+527552906
2948+527631983+526740627+525506425+524570566+523981356+523711209+523644331
2938+523216339+522099156+520871513+520292356+520300999+520224129+519622414
2928+518596139+517470620+516447287+515589646+514978185+514739791+514874282
2918+515097351+514939321+514195728+513249418+512544321+512025145+511426832
2908+510590003+509324476+507608521+505996192+505162305+505080041+505090278
2898+504600128+503507558+502271516+501670229+502024540+502665211+502569768
2888+501460310+500011436+499082045+498898453+498995827+498944734+498830441
2878+498811683+498704838+498304584+497638811+496784756+495880773+495182266
2868+494741799+494281747+493636294+493028112+492695256+492514515+492109172
2858+491222813+489971722+488761885+488021358+487949882+488242649+488137673
2848+487225905+486025785+485210319+484711923+484180856+483750963+483633482
2838+483410598+482443017+480739904+478982541+477877649+477673491+478027465
2828+478195487+477616054+476427917+475275304+474677297+474644226+474735194
2818+474420728+473520699+472390859+471671540+471717730+472176495+472312395
2808+471798461+470895949+469948291+469141345+468546495+467969821+467116624
2798+466152139+465558147+465352181+465045684+464344020+463444819+462742787
2788+462439998+462342042+462082224+461535402+460814735+460054684+459427100
2778+459094551+458960458+458658007+457882630+456701972+455498480+454555511
2768+453830952+453225528+452749936+452325836+451885154+451622915+451538996
2758+450972191+449385332+447324813+445850347+445308521+445205569+445047171
2748+444799184+444574031+444324359+443952057+443412560+442625721+441523005
2738+440250704+439204844+438780928+438991246+439359809+439347641+438798030
2728+437846356+436657331+435459816+434552554+434052136+433819382+433679006
2718+433531029+433302597+432924655+432327568+431465269+430369082+429148610
2708+427983675+427092565+426553375+426206175+425905563+425692670+425568998
2698+425400977+425135274+424774956+424211859+423445157+422781222+422470220
2688+422381489+422239489+421892043+421288213+420499627+419743651+419147453
2678+418549078+417705874+416696977+415978394+415914950+416317901+416607909
2668+416389591+415694670+414793109+414005625+413539228+413332220+413194113
2658+413002583+412587064+411793941+410905835+410486762+410597346+410679426
2648+410355366+409800974+409258750+408752018+408346614+408227601+408371808
2638+408388850+407848648+406767633+405712823+405310361+405596323+406011933
2628+406091040+405872048+405580569+405269382+404835229+404121550+403079797
2618+402033661+401535051+401722413+402116292+402230800+402066701+401875600
2608+401785582+401781567+401793827+401722352+401505290+401162443+400733684
2598+400246414+399755682+399336608+399048470+398920906+398891973+398799410
2588+398553569+398276097+398178325+398370743+398791166+399175145+399170425
2578+398702864+398122358+397762868+397538052+397212491+396863635+396735489
2568+396765740+396654267+396370880+396205004+396275804+396344950+396183947
2558+395881588+395745258+395973414+396352092+396345962+395705658+394849918
2548+394389069+394469831+394808419+395105077+395163250+394840080+394225951
2538+393750942+393794311+394251023+394730415+395045280+395231998+395301542
2528+395305833+395415896+395643010+395716600+395423620+394881917+394435166
2518+394375706+394675889+395000715+395139435+395251644+395475602+395570125
2508+395242235+394670587+394439580+394903402+395692295+396019021+395545636
2498+394738813+394294116+394446261+394909869+395287106+395397169+395284194
2488+395097231+395048253+395317939+395849712+396351754+396579513+396505371
2478+396231179+395893265+395625663+395491356+395471249+395535001+395642030
2468+395699528+395647301+395598384+395755342+396128410+396460806+396512114
2458+396312308+396064383+395886553+395731435+395540211+395431251+395651286
2448+396265292+396970695+397341648+397226528+396863482+396649915+396746462
2438+396881596+396701100+396295022+396079800+396173833+396267192+396138770
2428+395946412+395923639+396061563+396170461+396113637+395980280+396072995
2418+396607404+397371624+397881513+397937847+397747972+397482668+397143100
2408+396909702+397125108+397791801+398484760+398880111+399091104+399432174
2398+400047253+400780302+401319737+401469400+401270422+400903085+400572221
2388+400405272+400297691+399930722+399053742+397635794+395708999+393293250
2378+390538851+387738233+385139443+382876268+380997777+379348976+377570985
2368+375553897+373719818+372527574+371946486+371754680+372061698+373186083
2358+375258587+378151123+381707656+385975721+390830667+395269697+397767036
2348+397431605+394717818+391334824+388999959+387933502+387324615+386758545
2338+386354092+386196154+386241301+386513685+387055235+387740379+388359503
2328+388881253+389425378+390032027+390667182+391373443+392266760+393407573
2318+394701053+395939179+396993498+397917250+398774094+399487742+400022028
2308+400589569+401466488+402639361+403806287+404746621+405538763+406333234
2298+407078543+407663401+408196982+408870663+409602793+410086323+410189337
2288+410107471+410096407+410221458+410428435+410682031+410868228+410715531
2278+410081756+409259669+408744754+408714748+408902600+408954398+408771542
2268+408464892+408105646+407701101+407380351+407369379+407754768+408433200
2258+409240299+410002619+410572887+410919290+411106100+411183859+411176472
2248+411162373+411285861+411591224+411822384+411588037+410885422+410193352
2238+409845171+409602946+409071204+408318110+407824558+407866854+408153828
2228+408175711+407793172+407293858+406970748+406880362+406953063+407155750
2218+407519256+408027520+408532535+408911213+409285354+409872511+410605008
2208+411121854+411232040+411223887+411551625+412311707+413206342+413959589
2198+414582974+415277711+416211976+417321189+418299283+418931924+419386306
2188+419961080+420647174+421166105+421374094+421416727+421489521+421617483
2178+421730427+421822254+421928976+422088753+422415418+423033286+423850683
2168+424567733+424967681+425082802+425125129+425358680+425912459+426650382
2158+427368290+428090980+428963945+429936859+430823739+431609874+432455009
2148+433428199+434439855+435435082+436517323+437836089+439417982+441178379
2138+443074340+445170168+447541506+450144863+452787942+455319118+457898721
2128+460842872+464067253+467013917+469341733+471361427+473567011+476006821
2118+478271345+480001766+481345971+482805725+484649306+486800181+489363110
2108+492847340+497800733+504518201+512946261+522492086+532053389+540512098
2098+547176451+551838089+554632792+555678806+554708803+551377240+545866604
2088+538730736+530301512+520745358+510607289+500828987+492109509+484524041
2078+477942626+472539203+468485717+465349944+462373182+459362153+456870454
2068+455481163+455172858+455291503+455026168+454124453+453154941+452804738
2058+453015730+453147616+452879094+452495880+452343797+452508263+453048740
2048+454090524+455636802+457653830+460321612+463873332+468336790+473837679
2038+480928062+490088252+501011015+512802269+524795412+536767254+548404033
2028+558932028+567433280+573474462+577309416+579416094+580018667+579192412
2018+577154329+574123868+570066336+564939557+559127328+553297997+547794043
2008+542416856+536890834+531294134+525879983+520723658+515760059+511018609
1998+506733165+503363688+501416174+500916001+501074951+500833400+499823185
1988+498544571+497721718+497752736+498557413+499701996+500748347+501562557
1978+502282304+503121034+504278766+505882788+507937607+510370520+513021414
1968+515507260+517390685+518688210+519844257+521075701+522228376+523411700
1958+525218624+527973543+531135000+533809801+535746189+537507138+539660220
1948+542211932+545062294+548487830+552474684+555954408+557791858+558395413
1938+559237361+561128264+563673049+566094929+568144292+570079760+572033680
1928+573920109+575951450+578493660+581259062+583525486+585295568+587067183
1918+588483691+588688002+588105289+588232057+589736835+591902545+593766477
1908+595177283+596497183+597814446+598863280+599391681+599332282+598868061
1898+598562177+599060419+600459027+602379783+604600049+606840911+608179140
1888+607823848+606241280+604524467+603344391+602901074+603019504+603188936
1878+603038936+602636567+602211087+602109882+602934176+604971401+607207850
1868+607500493+604792652+600452590+596548123+593981270+592424938+591239223
1858+590066259+588735203+587096239+585177138+583374873+582196453+581792489
1848+582115783+583220521+584445345+583886478+580791347+577176642+575024847
1838+574207971+573417147+572097063+571256342+572197717+574403148+575323866
1828+573636231+570943408+568586567+565901958+562439888+559309449+557543289
1818+556891921+556667259+556967565+558395045+560691812+562331756+562046775
1808+560342835+558751869+558449969+559958978+562969822+566037491+567522777
1798+567431257+567510762+569511024+573570518+577305677+577624066+575020127
1788+572816412+572997184+575250368+578445050+581850479+584974911+587407579
1778+589383260+591825920+595603498+600584629+604837462+606078714+604625611
1768+602316706+600385161+599984201+602027128+605414719+607355520+607163040
1758+606858443+607549533+608867226+611342926+616428389+623700648+629601639
1748+631267941+630041339+628948922+629698246+632339210+635633381+637771015
1738+638736358+641112938+646681195+652500105+653401943+650119358+646590778
1728+644696319+644781525+646361886+648368278+650663819+655000142+663276363
1718+674409077+682562576+682775469+677549692+672371545+670738834+673627632
1708+680034649+687316287+692467524+695583252+700148834+708040830+715617012
1698+718689892+718547370+716896699+714211784+712377704+712986776+715573428
1688+719451169+726003712+736468507+746146278+747724432+743327362+739522567
1678+739777328+744351308+750860941+756421106+761212577+766746384+771108452
1668+770566136+766759073+764767822+766548755+769917465+771742227+772004834
1658+773430659+779088168+791234529+807645860+816441472+813679932+810500024
1648+811316409+811858787+807301174+800199940+795349315+794069383+796040650
1638+800995668+806972241+808525569+803379052+796886460+793535833+793353590
1628+794212640+794802586+795520770+795873426+793712620+789330998+786373606
1618+786960426+788284494+785611470+779798077+775206749+773531067+773084378
1608+771390429+768312523+765789009+765035639+765535230+766315081+767110809
1598+767987146+768567100+768360643+767548794+766683797+765900513+765143526
1588+764729387+765069844+766180713+767592255+768553614+768861215+769565790
1578+771794332+774334458+774021708+771189980+769625373+770873982+772714926
1568+772277678+770153284+768547423+768650896+771945373+780909619+794471385
1558+801199673+794905385+784942877+777388947+772909614+770911926+770650361
1548+771945496+775573319+782242024+791527479+802202286+811278404+812470004
1538+805642901+799628078+799384167+802997585+805140246+804207943+804083014
1528+807650580+813937941+820595367+827279151+834301738+839767931+842358446
1518+843973992+846058235+848279481+851157122+856290153+864051459+873247478
1508+881939003+886156037+883002181+877328734+874834398+877338419+884291369
1498+892461052+896652095+895706919+894919956+898961490+907068954+913786146
1488+914723660+911932942+910160223+911879795+916579991+921910897+926358416
1478+930902973+937170656+945185252+952796374+956049106+953391714+949128522
1468+947961319+950157862+951894291+949558476+944543140+941388855+943584846
1458+951260578+958297447+957926095+953452033+950558638+950189615+951018322
1448+952210413+953411759+954344369+955118581+955875200+956477467+957327935
1438+959637330+963627004+967263471+969218616+970932916+973676495+976392980
1428+977701846+978437378+979996468+981801797+982398670+982348405+984016301
1418+988399579+993503554+997205917+999244859+999855095+998982007+997062906
1408+995490146+995091761+995155390+994941761+994811684+995158332+995747849
1398+996670528+998643144+1001124423+1001406400+998470464+995710089+996159843
1388+997802913+996022593+991137457+988826468+992310238+998646883+1002467616
1378+1002301127+1001343691+1002669169+1006007843+1009247150+1011696185
1370+1014282531+1017635733+1021869808+1027121883+1032257182+1034592446
1361+1033656526+1032721587+1033916313+1035910997+1037793380+1041004244
1352+1045484007+1047881061+1046067701+1042783522+1042678332+1047290257
1344+1053683053+1057507892+1057767189+1057465228+1058943035+1061631996
1335+1064485240+1067137789+1068938522+1069261815+1068688910+1068138686
1327+1067342897+1065860431+1064962149+1066186299+1068635825+1070017637
1318+1069881920+1069813632+1070897774+1072631077+1073741823+1073375252
1310+1071862627+1069814858+1067467948+1065866561+1066307427+1067779594
1301+1067429820+1064622673+1062028358+1061520063+1061451408+1059409278
1293+1056034009+1053422162+1051645091+1049065121+1044602031+1039094154
1284+1034385621+1031171569+1027941395+1022417580+1014573949+1007017322
1275+1001649330+997709860+993874599+990272706+986968298+982178605+973987958
1265+963034055+952075247+943498352+937786164+933602232+929405243+925114834
1255+921104441+916549157+910807790+905135631+900813468+897103688+892411093
1245+885752748+876476672+864534131+851756692+841144349+834425563+830701867
1235+827315195+822554374+817426370+813991149+812837432+812973517+813040027
1225+812065243+810073686+808177326+807429289+807780842+808490751+809018600
1215+809513899+810805417+813493030+816943637+820055135+823008787+827040084
1205+832379265+837565504+841164149+843500332+846274928+850771855+856569127
1195+861582379+863588280+862683072+861667340+863044493+866539726+870471533
1185+874472180+879111321+883761497+887249374+890461587+896020281+905121103
1175+916136122+926452756+934697898+940442759+943103584+943098373+943510367
1165+948368593+958135187+967651067+971034061+968935842+967482187+970423886
1155+975385769+978086745+977793795+975959164+972723963+968047797+963536036
1145+960895808+960755003+963392227+967856543+971835918+974589060+977761858
1135+981915631+984572839+983746338+981793522+983074190+988679901+994828235
1125+997194945+996404121+996371816+998627574+1001881594+1005805493+1011620971
1115+1018418772+1021803911+1018400750+1010790731+1005625396+1006938981
1107+1012876016+1018289921+1019309515+1015384757+1008833686+1003292094
1098+1001370785+1002522234+1003658480+1002809054+1001248003+1001132085
1090+1001681757+1000252009+996509495+993082427+991354089+989146819+983943968
1080+976522996+969864651+965868357+964017420+962358228+959967489+958192931
1070+958564161+960157701+960724782+959155700+955428633+950093314+944503602
1060+940595763+940040451+943020891+948102553+953093370+955817885+955796491
1050+954447352+952518442+949563871+946220109+944155544+944135499+946286496
1040+950786917+956343343+959292030+957712773+954615803+953616806+954710817
1030+954768377+951154285+945187274+941047417+941291389+944519356+947610441
1020+949341599+950489799+951693781+953127636+955275814+958072907+959470596
1010+957036517+951093414+943727919+935769229+927288574+919291571+912566655
1000+906039430+898061737+888869273+880459909+874300909+870214259+867512364
990+865799045+864076592+861155796+857675766+855290298+853768968+851113170
980+846487269+841122097+836355024+832632922+830066314+828454875+826763378
970+823772578+819573015+815392148+811919351+809020623+806800602+805447662
960+804524922+803837817+804249381+806665560+811078322+816840531+822872396
950+827991941+832008097+835664976+839096212+841826121+844516247+848674862
940+854735293+862177719+870865627+880697383+890704701+899652089+906525963
930+910171809+910261919+908673957+908060288+908997066+909843979+909224855
920+907521098+905757697+904056209+902184982+900773011+900422746+900197225
910+898854767+896828147+895372224+895055060+896213620+899255421+903800222
900+908632702+912430754+913871843+912128058+908752972+907169485+909138913
890+913255170+916808760+918501238+919088670+919496557+919496128+919119994
880+919890099+922941647+927417916+932028185+936489068+940477455+943279146
870+945075648+947381059+951003549+954356690+955391363+953870095+950855143
860+947316940+943801662+940778312+938729501+938324312+940152384+944187113
850+949290046+953222282+954577981+954823730+956293568+958789988+960972984
840+963868830+969140521+975110167+978500823+979073605+978822522+978580328
830+978068907+977170318+976251317+976503932+979160711+983545521+987377840
820+989351007+989716781+988883967+987676307+988058938+991067821+994565322
810+995270572+992954924+990484373+990066740+990874911+991590828+993095300
800+995913541+997859002+996245049+991346794+985068690+978917720+974947662
790+974694618+975778392+973196337+965481190+956019805+948141294+942085155
780+936139355+928833320+920183540+912366145+909366641+913809379+922991790
770+930189754+932002255+931630352+933238420+937443623+942719604+947241174
760+949556576+949892129+950018835+950664563+950880644+950745724+951980294
750+955417599+960268653+965453911+969310688+969172519+964292716+958393135
740+956747429+961359967+968757399+972516465+969642441+963063907+956732779
730+952745189+953569973+961025885+970944686+974288570+969320925+965882517
720+972329440+985146234+993209010+991960831+987214048+986119975+990282698
710+993833651+989643467+978663389+969404415+967380859+970473109+974274471
700+975399623+971436859+963099277+953550970+946013836+942297619+942337770
690+944620132+947084676+948757599+951042413+953886707+954417928+952342145
680+949070717+946511833+946932224+948418858+945023298+933951578+918363927
670+902758377+893408128+896454404+906671856+912907480+913612178+915015874
660+919493614+923407216+924108236+923586210+924631795+927042763+927287532
650+921646328+911969108+905631237+907284299+913981385+919572691+920675100
640+915873699+907509942+903119186+907678699+916369305+920752398+920758774
630+920053340+918529006+914099632+906053528+895753016+883835792+868694892
620+853886663+850447029+866596857+896807489+919880659+920789239+907652708
610+891840089+880071393+878886291+890149695+904532505+908221690+898732843
600+886035829
##END=
