##TITLE=<SNM>
##JCAMP-DX=4.24
##DATA TYPE=INFRARED SPECTRUM
##DATE=29/4/2025
##SAMPLING PROCEDURE=Instrument type and / or accessory
##ORIGIN=Admin
##XUNITS=1/CM
##YUNITS=ABSORBANCE
##RESOLUTION=4
##FIRSTX=4497.3318
##LASTX=599.83466
##DELTAX=-1.4281778
##MAXY=2.0675218
##MINY=0.50062114
##XFACTOR=1
##YFACTOR=1.9255297e-09
##NPOINTS=2730
##FIRSTY=0.51686865
##XYDATA=(X++(Y..Y))
4497+268429327+268678576+269531725+270024280+269337637+267833228+266837686
4487+267194163+268399053+269486004+270228551+270808956+270945096+270299933
4477+269408369+269326896+270312377+271414713+271681762+271182830+270379302
4467+269451242+268960637+269996389+272447370+274214989+273517946+271070897
4457+268774319+267451553+266880682+266913433+267517178+268238056+268355561
4447+267543149+266269199+265597786+266359742+268227160+269901667+270477646
4437+270230904+269935315+269945623+270060156+269968901+269806666+270148966
4427+271097178+271725810+271195212+270024094+269276563+268857371+267714732
4417+265655084+263948693+263844653+265153985+266666753+267476317+267574940
4407+267455268+267487089+267683468+267823260+267750764+267649758+267971194
4397+268900956+269913059+270186422+269512316+268527547+267943675+267682787
4387+267047839+265832827+264660440+263879416+263002308+261735910+260633234
4377+260230944+260412339+260832243+261338852+262076446+263422923+265389583
4367+267124329+267674026+267018308+265847035+264804814+264259047+264315911
4357+264809426+265422581+265880528+266145472+266430412+266846941+267219175
4347+267320180+266989179+266276287+265836480+266504085+267954261+268511295
4337+266904580+263753491+260938883+259991383+261079852+262949994+263953398
4327+263658552+263222831+263793082+264999118+265487896+264647036+263245521
4317+262440290+262611192+263284864+263987479+264831187+266092043+267548659
4307+268661272+269139928+268921417+268018276+266834157+266169647+266454959
4297+267166334+267335225+266701360+266065267+266181348+266712349+266885202
4287+266632950+266402924+266355470+266386487+266510709+266690836+266602614
4277+265895449+264621870+263374324+262979927+263820292+265333802+266490867
4267+266917890+267212055+267916218+268608153+268500275+267597537+266587880
4257+265969710+266043692+267048953+268373824+268604779+267456970+266477680
4247+266871086+267911946+268196422+267454432+266613479+266603233+267329188
4237+267854029+267748782+267646910+267911234+267846538+267059911+266459602
4227+267120119+268925937+270785245+271744662+271560635+270410164+268562495
4217+266574693+265301547+265113929+265458458+265628958+265527425+265321978
4207+265067497+265141851+266314393+268648952+270756426+271015704+269583265
4197+268327021+268571007+269764382+270595460+270581871+270028211+269114328
4187+267832206+266605988+266250780+267106034+268533707+269494331+269615210
4177+269425364+269509716+269913956+270432916+270938441+271236382+271093958
4167+270627560+270268081+270277336+270588371+271004932+271332466+271349832
4157+270858639+269981005+269264893+269104547+269219142+269248239+269499470
4147+270290678+271029634+270947263+270311294+269892288+269802147+269708725
4137+269706775+270246010+271289160+272037774+271751596+270670835+269778807
4127+269671177+270001713+270076841+269625271+268877864+268205275+267885479
4117+268148039+269168933+270813445+272459442+273242045+272632171+270964567
4107+269358222+268787692+269189951+269737204+269912749+269937265+270177785
4097+270564505+270669752+270224279+269499655+269017687+268848209+268553270
4087+267994719+267703495+268089751+268743488+269030998+269080866+269505877
4077+270277924+270531043+269711263+268481950+267950640+268332685+268978529
4067+269479318+270007657+270600660+270927049+270908724+270871392+270943270
4057+270845855+270485570+270319125+270753330+271529463+272107732+272386853
4047+272624463+272855294+272785274+272280554+271718567+271559985+271739647
4037+271853407+271748717+271615735+271691605+272070834+272590475+272866933
4027+272767568+272665385+272843469+272989638+272701696+272204188+272101449
4017+272565773+273108382+273216631+273023255+273013412+273211307+273202546
4007+272862011+272458266+272134261+271858174+271718536+271725408+271659474
3997+271613382+272148469+273344227+274377472+274673432+274727108+275206878
3987+275948032+276348806+276236378+275909586+275670552+275602204+275598489
3977+275426658+274909990+274212544+273798367+273940791+274390937+274739737
3967+274983167+275460987+276283862+277078290+277353603+276959113+276099464
3957+275101663+274351594+274242508+274909371+276106522+277415172+278421084
3947+278856651+278878226+278923699+279076617+278946761+278350600+277628297
3937+277185673+277305159+278257797+279894941+281255163+281326947+280276554
3927+279199074+278812726+279034270+279500699+280098315+281004273+282312336
3917+283566846+283869864+282906020+281468380+280504413+280146760+280177312
3907+280959760+283022349+285988203+288744276+290590799+291223147+290144955
3897+287426988+284294380+282333045+282554991+284522363+286223492+286490075
3887+286482894+287373343+288324898+288308306+288069829+288306697+288434324
3878+288130935+288072430+288639029+289570710+290936411+292683136+293532044
3868+292644133+291384608+291243825+291697345+291304930+289980616+288694283
3858+288264784+289597951+293652645+298609087+299377698+295580673+291016677
3848+288167307+287849802+289786033+292811754+295729009+298212275+300156090
3838+300665082+299207538+296861154+294889666+293672053+293148203+293271527
3828+293656421+293649209+293731518+295688334+299844003+302980666+302608062
3818+300665701+299017877+297010202+294293257+292127185+291825808+293926905
3808+297578442+300367636+301069044+301191007+301959556+302371380+301740704
3798+301166367+301047500+300717118+300170020+300132688+300819486+301950919
3788+303608216+305982026+308528595+310598304+312739921+315973411+320020831
3778+323654476+326663605+330077284+334996889+341715410+348907603+354204983
3768+357020798+358921926+360953592+363185319+366202805+370935970+377074302
3758+383026719+388072280+393194888+399739380+407934730+415954286+421555643
3748+425221203+429492179+435853665+442052607+445125813+446316897+448691976
3738+453708749+459871784+463848997+464276361+463100136+462372850+462680511
3728+464333442+467436953+470827106+472748417+472868367+471977639+470307775
3718+467856145+465632590+465332760+467827295+472020852+475393268+476286937
3708+474910526+472805684+472027724+473505668+475925755+477304767+477625800
3698+478256569+479872076+482446133+486512931+493011362+500956905+506303039
3688+506433204+503933129+502019278+501123721+500560589+500103539+500334432
3678+502855588+508455211+513908170+515037592+512533183+509280810+506653696
3668+504421102+502106819+500071068+499326199+499993587+500663978+500528303
3658+500848903+502864069+505827849+508912013+512947639+518394500+522741780
3648+522715901+519233967+515892258+514721109+515164260+515352342+514394380
3638+513492477+514183143+516193202+518174689+520199761+523697482+527957810
3628+529137502+526324442+522903550+522067210+525043279+530592260+535448408
3618+537521832+537918426+538084902+538129291+538455618+540118579+543107402
3608+546141728+547989614+548001686+546591937+545616918+546781381+549506591
3598+551795833+552670495+552349245+551425859+551185463+553310272+557992144
3588+562626964+564223805+563267669+562615696+564026498+567150284+570215690
3578+571487009+570852123+569358919+567759539+566743475+567503294+570530501
3568+574110625+575305300+573451037+570902208+569974922+571008445+572767429
3558+573894250+574014169+573989963+575117403+577214600+578080719+576242244
3548+573211322+572032373+574276110+578542443+581683935+582060038+581198190
3538+580963552+580528697+578638837+576911923+577464654+579337551+579873443
3528+578830633+578311890+578812494+578753184+577445833+575929104+575171389
3518+575198134+575607420+576018439+576608688+578237289+581098516+583607351
3508+583825459+581658800+578747241+577026084+577555600+579956588+583007630
3498+585534605+586654988+586335285+585755747+586043318+587072384+588329340
3488+589785894+590837680+589913738+586511295+582567637+580676290+581617258
3478+583992245+585423539+584142190+580131298+575463603+572957430+573487007
3468+575166126+575914988+575785844+575863603+576611103+577706536+578362718
3458+578002217+576864376+575549039+574357274+573427326+572815347+571984083
3448+570341119+568262681+566249124+563916980+561024427+558766388+558747568
3438+560515775+561291258+559283707+556234708+554842479+555306679+556481790
3428+558233778+560494788+562240646+563052656+563733603+564418759+563836621
3418+561131469+557458728+555222110+555584035+557030931+557282037+556528656
3408+557053652+559499154+561546513+561081632+558990316+557466776+556998057
3398+556235946+554027188+550779458+547974446+546747083+547077929+548305107
3388+550022115+552062107+553968188+555284887+555977782+555894699+554742557
3378+553118908+552430099+553186452+554352339+554748314+554360325+553909126
3368+553802022+554121724+555061145+556414061+556991990+555796634+553775339
3358+553103059+554441737+556145001+556746641+556713024+556703056+556080615
3348+554626166+553971717+555642788+558830713+561395081+562284664+561826655
3338+560492435+558865073+558141594+559062132+560480115+560266403+557924600
3328+555026723+553317577+553680245+555864425+558151438+558626286+557507761
3318+556566359+556417899+556473990+556837339+558209881+560355243+562174588
3308+563351928+564909085+567652807+570790585+572730097+572737774+571351055
3298+569859894+569548549+570574643+571723628+571919016+571511277+571474008
3288+572084006+572833177+573060943+572565355+571879332+571855249+572828162
3278+574175878+574703969+573772597+572261253+571846395+573313597+575805717
3268+577490966+577246917+575874066+575111708+575512760+576210793+576747119
3258+577665985+579040570+579842860+579143835+577213424+575296385+574537741
3248+574885117+575277440+575422186+576191601+577535107+577982963+577088675
3238+576084312+575594295+575039211+574251718+573884468+574394296+575572688
3228+576643048+576621194+575228036+573015625+570434169+567979196+566716606
3218+567215042+568274258+567852900+565402817+562554220+561275905+561867515
3208+563035631+563669774+563908250+564401858+565437672+566862404+567946260
3198+567504099+565089800+561899213+559842258+559739364+560537753+560504260
3188+559181308+557677765+557155865+557600006+557845293+556830591+554971437
3178+553632327+553234432+552852325+551623599+549593575+547337951+545625214
3168+545196488+546034562+547228370+548069416+548666413+549195123+549303094
3158+548502290+546789863+544645429+542646173+541148945+540115360+539311151
3148+538676451+538268836+537929261+537323349+536120440+534051722+531325707
3138+529017707+528286799+529162514+530722271+532164152+533013865+532755577
3128+531218850+529128340+527654575+527395544+527949638+528459961+528398484
3118+527832319+527207400+526854886+526488255+525498688+523998983+522803566
3108+522092593+521204372+520057925+519679718+520880274+522999944+524328344
3098+523896646+522593506+521950262+522165399+522233128+521606477+520558095
3088+519421987+518476500+518048981+518190259+518633812+519077273+519212608
3078+518835793+518123459+517341568+516392273+515222362+514264771+513830752
3068+513591192+513220816+512923989+512838027+512720337+512637873+513077371
3058+513953303+514283344+513353860+511591225+509865456+508531670+507455367
3048+506558788+506072177+506336315+507340679+508432367+508774914+508285888
3038+507736128+507576494+507104988+505431905+502995132+501231475+500869983
3028+501435035+502259458+503010239+503234476+502410332+500728829+499156411
3018+498435811+498418631+498413400+497888435+496841168+495654232+494708033
3008+494097385+493554714+492687480+491508964+490563848+490164560+489798271
2998+488933297+488111908+488243961+489055445+489295500+488434056+487200223
2988+486398583+485929771+485141379+483875508+482863375+482829820+483537140
2978+484183448+484328317+484003259+483441799+482979394+482691946+482205366
2968+481355189+480633258+480509686+480782770+480935347+480673654+479894487
2958+478559865+476816483+475058491+473745599+473075734+472880502+472803424
2948+472571200+472202434+472021936+472217230+472384573+471920527+470846670
2938+469880411+469653450+470010608+470147707+469527247+468544923+468002407
2928+468032990+467982812+467396402+466655496+466411478+466686822+466758390
2918+465884903+464172477+462707503+462565885+463589409+464453795+464191947
2908+463243921+462558610+462222780+461604455+460563007+459767744+459631326
2898+459638043+459106640+458079307+457066803+456387466+456080640+456098656
2888+456339795+456623404+456790065+456872375+456992511+456978952+456407896
2878+455239254+453958711+452898102+451988243+451277332+451075970+451475320
2868+452087144+452295347+451765275+450812977+450119370+449971808+450031799
2858+449886156+449447493+448785429+447960047+447167043+446801156+446995398
2848+447149894+446517702+445315598+444478205+444294673+444186888+443849603
2838+443646755+443729653+443614439+442888267+441805958+440922752+440362901
2828+439688703+438592774+437532104+437255738+437751946+438186460+438002433
2818+437540957+437289634+437098208+436655243+436209028+436073662+435867193
2808+435054471+433865801+432962103+432586713+432524524+432461593+432141240
2798+431583680+431171082+431147865+431174022+430649305+429413151+427972694
2788+426948581+426390990+425950222+425628353+425763286+426232470+426317441
2778+425591362+424538739+423995666+424106454+424133849+423404489+422126019
2768+421020185+420473088+420296985+420107943+419749021+419307294+418794463
2758+418124475+417457334+417093676+416950107+416618734+415968990+415268325
2748+414755959+414423874+414134632+413755991+413274394+412883464+412839106
2738+413125222+413384717+413330360+413051859+412719310+412240004+411457123
2728+410507456+409804655+409696097+410067308+410318848+409981934+409261923
2718+408675636+408371875+408118788+407712195+407127642+406440349+405734515
2708+405041713+404423109+404072452+404124456+404370084+404401905+404069449
2698+403573025+403089849+402557858+401921270+401377206+401158850+401163926
2688+401071990+400836980+400736686+400842707+400794851+400297591+399583089
2678+399147429+399160337+399314802+399221721+398806182+398244597+397652306
2668+397013241+396351332+395803925+395519449+395480322+395421198+395084935
2658+394598602+394349507+394435221+394526817+394341552+393985508+393735083
2648+393655621+393568979+393356968+393139696+393046212+392928831+392522578
2638+391856242+391245377+390839465+390513727+390280203+390358952+390693420
2628+390860360+390611390+390101933+389572263+389159572+388900077+388652314
2618+388210184+387625569+387211702+387194305+387476088+387713203+387624981
2608+387256958+386844979+386494786+386219194+386153322+386376445+386598206
2598+386392418+385730168+384980935+384458415+384256063+384375828+384663925
2588+384810435+384717756+384612231+384620681+384606597+384534534+384614335
2578+384987776+385474202+385623931+385048819+383865226+382718934+382190069
2568+382253279+382399448+382194619+381681758+381291385+381414462+382049564
2558+382779946+383088629+382811768+382279281+381939210+381927045+382032323
2548+381956142+381594125+381137694+380847553+380801214+380979236+381336982
2538+381600718+381374035+380723362+380331256+380769640+381743761+382278105
2528+381787500+380801183+380335899+380750974+381584095+382292561+382693860
2518+382778894+382563602+382209849+381992484+381986200+381965862+381757598
2508+381496833+381382362+381383321+381377842+381386696+381489311+381646469
2498+381751561+381784652+381782300+381686123+381420344+381162768+381258325
2488+381730419+382158092+382208209+382044736+382042847+382275938+382435634
2478+382251917+381917666+381926240+382426936+382959547+383004834+382623624
2468+382305066+382308007+382454269+382506243+382453588+382397931+382364686
2458+382295811+382148373+381987964+381971527+382151747+382347815+382372084
2448+382348744+382588211+383133080+383639781+383754717+383478042+383128684
2438+382987097+382971464+382787685+382453372+382394960+382846437+383424180
2428+383537475+383071789+382494820+382356885+382793040+383532492+384284820
2418+384904445+385233310+385161897+384892837+384821393+385139641+385708438
2408+386181058+386211579+385790902+385387280+385539207+386336204+387363938
2398+388058722+388132426+387806903+387623619+387938710+388636681+389288902
2388+389455780+388912428+387773039+386346605+384737877+382703611+380025638
2378+376835763+373386950+369755070+366056636+362707808+360021043+357679984
2368+355127502+352454543+350356727+349196103+348769854+349014800+350245073
2358+352711933+356433986+361402376+367501984+373969924+379249474+381860956
2348+381339025+378527265+375287955+373282106+372679228+372639203+372597197
2338+372635488+373065917+373839295+374527051+375044123+375882506+377197007
2328+378331506+378802299+379071948+379870616+381311011+383062750+384910636
2318+386726669+388296641+389510353+390483329+391381115+392322362+393422531
2308+394710039+396048500+397241936+398094249+398440016+398384421+398367643
2298+398671218+399082021+399389961+399871063+400806954+401858338+402465055
2288+402656357+402914521+403361324+403633635+403578473+403550056+403843757
2278+404250133+404405063+404276011+404063413+403843633+403529688+403055087
2268+402453787+401838589+401395314+401317649+401610823+401981849+402075270
2258+401869606+401725758+401963554+402471432+402846729+402874124+402738325
2248+402781817+403178938+403835770+404497773+404952624+405157391+405149714
2238+404915788+404465858+403951728+403571694+403403268+403351976+403220944
2228+402911797+402561542+402339657+402197357+401986430+401660846+401229891
2218+400747118+400398968+400321550+400345137+400192437+399890843+399750369
2208+399963123+400401166+400815683+401085641+401217200+401284155+401464623
2198+401894029+402384696+402602495+402590144+402746219+403273134+404016300
2188+404791009+405513311+406071955+406373580+406494644+406613635+406819702
2178+407072047+407317427+407589025+407960330+408452451+409031123+409613230
2168+410028522+410126896+410018183+410015582+410236879+410442110+410363671
2158+410063253+409895973+410156242+410729620+411141599+411099562+410915783
2148+411163051+411977661+412935995+413556115+413696341+413504792+413231243
2138+413140916+413407500+413961872+414510022+414778370+414771034+414773572
2128+415037339+415492067+415893119+416182672+416494264+416890580+417343234
2118+417878507+418532275+419239317+419890051+420436096+420921717+421438293
2108+422014705+422581707+423069680+423477140+423882247+424425290+425106050
2098+425609037+425648009+425439745+425445564+425759200+426141957+426471473
2088+426768826+426963563+426978143+426937592+427035843+427269553+427486330
2078+427630271+427800894+428106265+428529388+428916789+429117438+429188449
2068+429357184+429715952+430116664+430415843+430660759+430986962+431439399
2058+431935978+432383834+432766158+433103660+433477750+434102916+435122014
2048+436316349+437295267+437959065+438533403+439217909+440011408+440827721
2038+441644807+442462079+443127548+443431928+443500865+443834064+444788900
2028+446236167+447801093+449220841+450436101+451563046+452854858+454531965
2018+456525091+458470485+460069741+461364678+462590710+463923135+465408476
2008+466988694+468562939+470070599+471491987+472845461+474235368+475725786
1998+477161321+478365004+479440750+480592366+481768592+482739400+483415239
1988+483932434+484542278+485501973+486967782+488893396+491015480+493042378
1978+494953629+496997057+499305212+501700597+503982843+506171759+508319412
1968+510316191+512079446+513774940+515637715+517715318+519947849+522305625
1958+524723762+527082528+529351649+531606530+533867416+536086513+538293600
1948+540642832+543355227+546594537+550185124+553459165+555809573+557442136
1938+559073771+561110110+563568799+566438259+569596467+572626150+575193491
1928+577434070+579746094+582396951+585303000+588065233+590407902+592462072
1918+594318377+595710730+596574125+597411270+598751062+600607738+602520258
1908+603997551+605002906+605923939+606956162+607866608+608607608+609686387
1898+611470134+613437382+614613422+614830416+615079975+616294522+618190388
1888+619654928+620055361+619643103+618997817+618595898+618587850+618799396
1878+619074028+619407412+619704827+619961568+620731850+622665357+625225516
1868+626497145+625284083+622544200+619820042+617719564+616221531+615346249
1858+615009026+614694586+613807851+612258742+610529723+609240326+608768016
1848+609239274+610525266+611842336+611711025+609478122+606264381+603467231
1838+601680141+600750998+600115865+599493423+599208575+599377466+599259032
1828+598256587+596760659+595098256+592948993+590335468+588011867+586510800
1818+585566922+584629607+583654031+583134360+583360454+583927239+584203543
1808+584028771+583677371+583574105+584205153+585688080+587254956+587862045
1798+587530517+587379271+588412609+590620686+592640001+592795951+591418147
1788+590451858+591002670+592590039+594251452+595752891+597295065+598730012
1778+599918124+601454913+604347714+608768449+612957581+614516285+613550429
1768+612133127+611780303+613030882+615685082+618478022+619761846+619632641
1758+619662048+620581100+622139000+624455048+627843127+631460521+633534749
1748+633576352+632804646+632483953+633347409+635721343+639010181+641605381
1738+642927466+644674067+648333312+652258150+653382247+652158227+650593455
1728+649344548+648794850+649471772+651144763+653238059+656145161+660780167
1718+666491042+670223155+670088377+667948091+666188922+665673337+666434704
1708+668419287+671195449+673745145+675904128+679160959+684465891+689651895
1698+691894332+691710770+690451213+688638554+687124425+686786087+687859233
1688+690447808+695078233+701344131+705600620+704810464+701720233+699871233
1678+700563509+703850861+708633460+712854661+715562784+717260786+717889790
1668+716860786+715200364+714830824+716337957+718514089+719878892+720588379
1658+721989276+725526125+732508257+742004550+747149012+744732361+741273766
1648+740746170+741546912+740126762+736792482+734477486+734339923+735933792
1638+738635910+741199660+740972389+737348495+733702994+732634801+734007776
1628+736324691+738550908+740592943+741880173+741332952+739770347+739758274
1618+742436495+745670171+746280726+744851351+743998357+744494936+745489518
1608+746264506+747104004+748715518+751287068+754088056+756046698+757019240
1598+758233541+761116497+765801341+771002141+775377187+778627084+781018229
1588+782729665+784222312+786296664+789181292+792171353+794543430+796471241
1578+798661860+801128225+802889004+803916769+805483399+807417896+807209136
1568+803550201+798947450+795899875+794793979+795800943+799587474+804452166
1558+804259007+797953425+791264683+787076295+785427883+785317560+785398352
1548+785076421+785210827+787291679+792132474+799284611+806254053+808138094
1538+803860246+798709654+796606390+797971008+800970603+803436658+804823625
1528+805634582+806498720+808198456+811339824+815559663+819417700+822071528
1518+824388010+827410883+831076999+834633969+837830004+841233251+845744437
1508+851792474+857808132+860609182+860354794+859986802+861243263+864146279
1498+867457837+869966735+872183108+875506182+880592139+887032066+893078307
1488+896879820+898869418+900766336+903365931+906503524+909727913+912668818
1478+915639315+919715399+925232930+931007263+935939127+940436383+945264239
1468+950658817+956782569+963170120+967952967+969556370+968748756+967853292
1458+969082450+972454309+974724420+974000075+971696285+969639701+968302510
1448+966972252+965199340+963393800+961792935+960425036+960556471+963841594
1438+968842426+970199119+965714306+960577768+958868065+959688061+960964209
1428+962442865+964514245+966257255+966376989+965221318+964685797+966011845
1418+968185314+969271461+969031622+968351542+967407231+965848031+964384977
1408+964796802+967741049+971286751+972568409+971098421+968981971+968352409
1398+969806239+972409301+974435425+974401994+972273471+969331080+966730680
1388+964864593+964244689+966251560+971345256+976962090+979392486+978207346
1378+976983016+979553452+987089306+997331551+1005592866+1008544976+1006638895
1368+1002427166+998844133+998764145+1003654530+1010892474+1014477984+1012254305
1358+1008346802+1007079074+1009450469+1014201928+1019663307+1024116855
1350+1026355825+1027119298+1028265064+1030392906+1033501648+1038879510
1341+1047061766+1054595949+1056883395+1053790130+1048273713+1043215801
1332+1039897928+1037945105+1037012494+1037798502+1040990884+1045319003
1324+1048871763+1052179235+1057203097+1063038474+1065462988+1063151893
1315+1060411762+1061344867+1065295088+1068441472+1068189251+1065176964
1307+1061924839+1060807861+1062102644+1063564460+1063168361+1061516977
1298+1060466738+1061364679+1065036924+1070619337+1073741823+1069768572
1290+1060032254+1050738345+1045813539+1044383421+1043826975+1042594845
1281+1041039793+1040403484+1040367328+1038181477+1031811075+1022980871
1273+1015210501+1010679380+1009976517+1012461084+1015368557+1014982859
1264+1010752867+1005718109+1001805468+997809309+992471069+986416718+980654085
1254+975731137+972023912+969302664+965791631+959392256+950546946+941998679
1244+935669571+931167548+926937618+921955483+916089895+909680986+903125659
1234+896624133+890378294+884662156+879371153+874229724+869552062+865940365
1224+863525199+862216858+862077313+862754669+863350861+863376058+863000451
1214+862392062+861881987+862218220+863451340+864341666+864026235+863589771
1204+864943059+868630782+873595767+878926516+884753906+891005441+896549284
1194+900411593+902962465+905181315+907681668+910831023+914761928+919146014
1184+923397364+926661562+927958016+927410547+927001076+929376743+935848615
1174+945223254+954548118+962120624+968943215+975622051+979981249+980428052
1164+979554752+980867241+984267455+987060766+987840211+987691999+988332704
1154+989883608+991552575+994200955+999793521+1008251399+1015721877+1017569205
1144+1013824959+1008995432+1007005773+1008573392+1012421524+1016876620
1135+1019881663+1019849594+1018359237+1018971092+1022696828+1027005136
1127+1029087784+1029112362+1028803494+1028552573+1027887723+1027224173
1118+1027170559+1028030797+1030141675+1033767303+1038939315+1043958224
1110+1045282972+1041599335+1036373523+1034011104+1034706352+1035834721
1101+1037180827+1041178471+1047690770+1051830931+1049346735+1042187231
1093+1035457504+1031883881+1030886265+1030624387+1029999035+1028495987
1084+1025744837+1022312739+1019860304+1019500731+1020965828+1023154590
1075+1024646865+1024449744+1022946882+1020765488+1018028639+1014192703
1067+1009154293+1004500404+1001462920+999322820+996925051+994888092+995223272
1057+998472550+1002780610+1005902415+1006863132+1005771723+1003054809+999384111
1047+995543842+992265157+990478624+990569198+990579537+987701533+982808858
1037+979943917+981348838+985977467+991837793+996704590+997715516+993726725
1027+987323573+982328066+980472132+981178152+983101135+985564157+988883021
1017+993034821+997151889+1000458556+1002706813+1004093470+1004264280+1000973647
1007+992165854+980046626+969389152+962130591+957118121+953142022+949115837
997+943241272+934916066+926248128+919742763+915723141+912929087+910527789
987+908637866+907067151+904396917+899649482+894624754+892288275+892505331
977+891703908+887804763+882938709+880073830+879268383+878366046+876155183
967+873433811+871259598+869021433+864873100+858568819+852571362+849410368
957+849300107+850887847+853301651+856869393+862241064+869097396+875734815
947+880579448+884277881+888547062+892747151+894296260+893307374+893794604
937+898867437+907140762+914729426+919394086+921832468+924451318+929659981
927+937763734+945739583+949897511+950179634+949303300+948277887+945948095
917+942304390+938776642+935737486+932917616+931489479+932981135+936755780
907+940465295+942273683+941553052+938924730+936473471+936472604+939373205
897+943409419+946249163+946900393+945838638+944247369+943890768+946508751
887+952044483+957834542+961313010+962893197+964006832+964447382+963912295
877+963916505+966262394+971281674+977845420+983721472+985985887+983256900
867+977817747+972952746+969902508+969391504+972594473+978305411+982086618
857+980568402+975675603+972376736+973034467+976016541+978359830+978196387
847+976281206+976261085+981636595+991321836+999257072+999782563+992950809
837+983624645+976273653+972847870+974043783+979730081+988732766+998069083
827+1003821872+1004361354+1001664746+1000248372+1003825215+1010936554
818+1015532618+1014288849+1011936832+1015681759+1026757930+1039156743
810+1045243968+1043118107+1037309971+1031123752+1023775855+1015472318
801+1009837096+1008804316+1009338908+1008620134+1007886812+1008254061
793+1007886007+1005067994+1001360521+998607823+995621786+991303449+987037550
783+984146235+981509370+976606790+968610697+960157524+955332764+954854325
773+955271411+954922673+956754091+962568480+968770239+970680158+968987109
763+967987760+970064836+974046074+976354755+974450160+970200666+968199554
753+970524641+974492134+976469102+976356241+976711294+979079222+982225420
743+984091507+984676431+984570504+981865290+975948316+971825305+974736926
733+983007837+989783686+992580340+995122112+998681434+999522046+995298245
723+987290018+978394685+973480094+976738472+987601301+1000680256+1009583328
713+1011134727+1007573796+1004055148+1001975472+999232617+996800736+997809371
703+1001139194+1000609864+992642374+981578895+973369585+969210170+967192156
693+965961512+964448806+960410735+953477759+948430805+949799446+955221574
683+958163840+955720134+950100947+943955278+938944170+936960825+937713835
673+936841897+930567641+920569569+914028606+916014674+921898898+926972659
663+932753121+941370789+949374497+949444269+939217378+924037079+911817371
653+907157663+909210780+913623592+916397711+918204798+922759878+927797608
643+925173001+914522461+906689377+909823935+920375605+924547526+915281847
633+902281456+896765968+899989863+904090834+901783763+896622028+895332631
623+897699321+898669511+894721395+887316294+882065285+884000463+890625376
613+894269205+889718830+878756574+870738751+868745624+866047654+858498303
603+851706481+851665126+857267721
##END=
