##TITLE=<SNM>
##JCAMP-DX=4.24
##DATA TYPE=INFRARED SPECTRUM
##DATE=29/4/2025
##SAMPLING PROCEDURE=Instrument type and / or accessory
##ORIGIN=Admin
##XUNITS=1/CM
##YUNITS=ABSORBANCE
##RESOLUTION=4
##FIRSTX=4497.3318
##LASTX=599.83466
##DELTAX=-1.4281778
##MAXY=2.1456468
##MINY=0.39038554
##XFACTOR=1
##YFACTOR=1.9982893e-09
##NPOINTS=2730
##FIRSTY=0.40178183
##XYDATA=(X++(Y..Y))
4497+201062891+201188914+201205081+201253417+201288106+201005667+200200032
4487+199132315+198516250+198923445+200101182+201118833+201293252+200742391
4477+200122405+200064673+200807640+202174858+203598526+204270577+203847588
4467+203039299+202887371+203458395+203865112+203473338+202472644+201431936
4457+200834276+200892664+201452040+202038202+202145537+201577571+200591015
4447+199830912+199972251+201013690+201966630+201807200+200785836+200058394
4437+199998440+199854789+199178607+198466423+198125536+197835952+197308134
4427+196900208+197099085+197862752+198677455+199015926+198732905+198103135
4417+197442896+196948022+196995717+197929149+199278068+199927256+199530665
4407+199031631+199362168+200326189+201030304+200890173+200020662+199001296
4397+198339595+198030683+197764634+197633332+198049698+198735977+198719378
4387+197759056+196822775+196613727+196642138+196302145+195871282+195841529
4377+196139986+196468033+196720182+196882058+197013271+197264167+197586785
4367+197672853+197426535+197180113+197194445+197285062+197121128+196627716
4357+196039690+195766959+196138972+197068870+198026134+198543886+198586853
4347+198261088+197580432+196749816+196181820+195966657+195789912+195514601
4337+195359869+195502028+195914353+196494535+197029527+197214862+197028706
4327+196941520+197435827+198283668+198593102+197849032+196645896+195890968
4317+195789956+196247277+197331459+198590626+198924072+197942423+196637112
4307+196173975+196721092+197606278+198090980+197992951+197774716+197888464
4297+198114947+197939917+197418810+197161798+197547502+198360773+199176087
4287+199717134+199732883+198934153+197475408+196200641+195864302+196354851
4277+197172641+198259955+199679939+200866878+201057328+200329962+199508697
4267+199132180+199119205+199312594+199676210+199987464+200026941+200035367
4257+200321401+200639784+200632177+200496207+200604676+200902805+201098670
4247+201093525+200996122+200996450+201258830+201742757+202212068+202533061
4237+202839482+203312000+203872271+204193233+203979353+203272194+202532673
4227+202251113+202363176+202250516+201526282+200589837+200138437+200370125
4217+200907921+201379529+201833643+202482652+203166499+203400916+203002745
4207+202344743+201945348+202042423+202508274+202997376+203254745+203364855
4197+203605177+204038114+204389396+204389202+204131355+203941949+203922575
4187+203870750+203726994+203808812+204400954+205247543+205694587+205509610
4177+205301665+205697466+206400657+206654045+206386951+206227939+206549215
4167+207089471+207416399+207396773+207209842+207049234+206945239+206895963
4157+206902272+206729449+206010703+204879781+204092579+204112802+204516149
4147+204753012+205017928+205743684+206633911+206876501+206187239+205144950
4137+204494360+204482683+204912159+205518603+206121871+206606081+206937856
4127+207124042+207142848+207005461+206727973+206172429+205330166+204760410
4117+205065697+206050791+207016602+207603524+207819851+207699286+207467405
4107+207553921+208021412+208439091+208577552+208745945+209197986+209618916
4097+209490463+208793028+208081157+207859402+208074386+208325596+208445042
4087+208596060+208842737+209005403+208942048+208626455+208071255+207511103
4077+207364603+207640824+207801268+207495637+206968027+206617834+206606410
4067+206895889+207287976+207487643+207381859+207141342+206967177+206903286
4057+206901541+206930206+206985447+207043059+207119225+207393954+208009436
4047+208669646+208823647+208395975+207896463+207706788+207765638+207913525
4037+208008840+207823385+207315775+206868059+206879155+207270407+207659884
4027+207887291+208095818+208336513+208431336+208356334+208398704+208727005
4017+209183087+209641899+210094477+210323599+210026663+209370123+209017065
4007+209376014+210043590+210330832+210243303+210412098+211033054+211579754
3997+211670192+211417192+210849031+209859612+208867911+208699265+209584570
3987+210757848+211233274+210777967+210016223+209690145+209948096+210459599
3977+211066506+211904519+212880262+213529316+213501322+212816803+211728132
3967+210708453+210302421+210606009+211198927+211753024+212272102+212701355
3957+212868406+212809555+212709915+212709185+213042913+213946622+215122570
3947+215803122+215673997+215186953+214784292+214421168+214003772+213717097
3937+213675935+213795067+214251343+215479221+217223851+218300696+218142563
3927+217705705+218004744+218617363+218503406+217809819+217690373+218620898
3917+219635760+219315856+217463921+215355391+214292014+214443882+215323788
3907+216980426+219894233+223665157+226790816+228331573+228493568+227296309
3897+224733411+222065789+221136503+222455117+224361443+224770711+224186697
3887+224852320+227218741+229185156+229405360+228936213+228178825+226186042
3878+223654807+222760315+224109831+226487169+229092287+231548401+232434258
3868+231448582+230744600+231418441+231625163+229645817+226683287+224790964
3858+225008648+228349962+235847442+244020403+244611949+237675068+229796105
3848+224859091+223680892+225577763+229218877+233249035+236975486+240157773
3838+241899376+241177482+238588680+235614665+232980554+230791326+229496261
3828+229571501+230623484+232252323+235308945+240045471+243529765+243346026
3818+241670700+240613900+238823693+235037885+230981955+229096016+230491049
3808+234173698+237479651+239475088+242108230+245934187+247968952+246649369
3798+244210108+242072660+239993168+238457452+238473067+239845237+241548048
3788+243274006+245349576+247610944+249807630+252672608+256935692+261490044
3778+264431188+266011765+268214730+272284559+278042315+284276810+289483557
3768+293181463+295877661+297903090+299909788+303515585+309767559+317494878
3758+324604879+330999907+338363326+348114403+360261670+372508204+381858723
3748+388724196+395529745+402010975+404529787+402734629+401263311+403915692
3738+411337006+420754429+427419250+428675778+425922937+422298467+420213979
3728+420651434+423157509+426127138+427995643+428272028+427131978+424904048
3718+422333425+420689464+421313910+424798129+429680349+432297563+430690857
3708+426764410+423178030+421662239+423190409+427353719+431873173+434619063
3698+435822915+437314128+440645927+446222927+453447169+460862816+465859426
3688+465993442+461696057+455740034+451026580+449613486+452198814+458235699
3678+466603004+474632061+477697706+475157597+471626041+469549785+467284898
3668+463233771+458402437+454425492+452179128+451871454+452994800+454602938
3658+456069274+457262179+458485090+460942546+466265472+474340344+480585547
3648+479364068+472466172+465800307+462421410+461880005+462586656+463796384
3638+465375439+466816243+467510814+467686530+468921283+473348837+480375172
3628+484408342+482018566+476970056+474144793+475872630+481957479+489708630
3618+495228897+497072675+496947070+496818631+497428133+498883523+501350553
3608+504574345+507293630+508379363+507989513+506927463+505777600+505037094
3598+505156346+505801880+505878955+505143401+505156883+507840255+513184926
3588+518466600+520914093+520554966+518388451+515182138+512850198+513330605
3578+515758173+517266567+516564181+514905276+514204202+515648228+519238008
3568+523373160+525535797+524765941+522652281+521104693+520511597+520103373
3558+519351831+518721270+519067929+520355000+521264511+520850858+520225667
3548+521204318+523589352+525226423+524907862+523677642+523306047+524326756
3538+525151197+523706814+520470971+518168859+518306663+519946956+521726544
3528+523430906+525045428+525492248+523582969+519873460+516364036+514669099
3518+515195441+517147673+518690667+518299684+516478754+515027331+514701731
3508+514922934+515323224+516061641+516761045+516412297+514896864+513554910
3498+513548885+514506000+515237081+515292561+515334439+516314104+518644971
3488+521761920+524521889+526222792+526691149+525566341+522810726+519813208
3478+518321935+518501976+519158487+519425088+519103842+517755385+515053759
3468+511787671+509463545+508937024+509747208+510584475+510240381+508838592
3458+507983130+508722025+509996628+510151852+509263102+508573483+508370295
3448+507925085+506914816+505567075+504114341+503215807+503824653+505569521
3438+506314561+504523042+501327645+499252165+499747665+502442192+505891483
3428+508568531+509614474+509069102+507440204+505234078+502693581+499866618
3418+497196102+495679715+495840755+496887951+497603491+497661745+497425389
3408+497171942+496999477+496847385+496617830+496750295+497998650+500159080
3398+502018160+503018168+503666625+503908290+502779247+500202897+497708873
3388+496763688+497166274+497508608+497087827+496915810+498270292+500664513
3378+502259944+502139678+500908504+499181562+497206453+495892328+496326591
3368+498164165+499827186+500574910+501433832+503599274+506774327+509617517
3358+511218078+511666092+511593372+511356897+510753182+509756216+509227607
3348+510160980+512146380+513451944+513028509+511691506+510875953+510989657
3338+511278927+510820115+509451316+508039863+507839658+509204461+510970805
3328+511607033+510970686+510180726+509968531+510118386+510172911+509856139
3318+509071786+507999953+507076364+506713836+507031443+507866086+508789436
3308+508996382+507879150+506128555+505479382+506834043+509202969+510975280
3298+511646287+511766493+511895528+512221725+512812436+513560279+514172406
3288+514799745+515991964+517458240+517812416+516215255+513518162+511394003
3278+511134023+513176812+516562749+519050510+519262586+518308155+517978796
3268+518424364+518529179+517473512+515390634+513258064+512244633+512692587
3258+513978704+515251398+515694043+514736271+512842562+511406232+511355286
3248+512326779+513188684+513082974+512116194+511144940+510807588+510900233
3238+510888242+510776626+510895580+510926780+510074360+508496229+507426662
3228+507428452+507681093+507442053+507063001+507227651+507900447+508238934
3218+507572401+506542625+506671481+508250388+509499279+508649842+506144900
3208+503935195+503114333+502955648+502313276+501311479+500771654+500580995
3198+499871838+498396971+496713876+495372070+494579187+494356403+494629387
3188+495148302+495396499+494863715+493577270+492096736+490961757+490367765
3178+490119926+489812102+489323791+488938206+488790439+488509043+487607915
3168+486094689+484551606+483530032+482879099+482081264+481263385+481148637
3158+481900388+482639552+482219069+480215116+477284531+474706869+473396085
3148+473300725+473701641+473865157+473399187+472369768+471336443+470950500
3138+471250300+471663982+471756210+471509235+470856751+469540300+467615719
3128+465628886+464081060+463048838+462502422+462615529+463371158+464090933
3118+463913577+462808217+461644902+461164077+461223524+461149074+460591263
3108+459833547+459274394+458919980+458631962+458471727+458490996+458577855
3098+458633484+458547013+458069409+457060453+455724047+454383464+453140658
3088+451927828+450884421+450393783+450525025+450755326+450629184+450342001
3078+450222481+450113908+449781387+449486987+449625418+449978370+449833735
3068+448931533+447856448+447238266+446965461+446569019+445997488+445595766
3058+445491160+445359828+444952231+444475851+444223925+444195290+444178646
3048+443897220+443213835+442462621+442141852+442130518+441932550+441578941
3038+441324719+440858182+439903422+439023740+438786280+438783089+438331018
3028+437514123+436871393+436570907+436378279+436141745+435915262+435642069
3018+435057175+434093646+433138260+432589249+432280710+431745748+430969061
3008+430430311+430445135+430758954+430750662+429934274+428385255+426715552
2998+425591281+425284114+425556442+425834438+425613921+424836398+423774706
2988+422649988+421609235+420891876+420716458+421069620+421698212+422272219
2978+422598833+422672896+422501774+422039412+421295954+420341314+419308585
2968+418490437+418148670+418170474+418201972+418123853+418124151+418254439
2958+418185775+417637749+416851994+416263043+415915012+415620074+415389058
2948+415318903+415340946+415244214+414729385+413634883+412217912+410886367
2938+409836576+409213294+409139142+409371799+409463729+409285895+408943084
2928+408415787+407711254+407127344+406997146+407191355+407128299+406466986
2918+405567975+404998740+404941978+405324192+405986817+406487507+406257833
2908+405175530+403752175+402723085+402449295+402667933+402852508+402651409
2898+401927219+400814253+399840971+399549582+399954943+400599910+401004047
2888+400958262+400559344+399998253+399353256+398717445+398277545+398019146
2878+397639706+396969833+396259065+395912018+396048749+396412171+396708869
2868+396856129+396788360+396380971+395777942+395379472+395292077+395171691
2858+394741663+394138455+393673678+393459782+393358756+393220653+393011410
2848+392739231+392490079+392433377+392538848+392513822+392199109+391725145
2838+391213001+390695368+390312946+390205595+390253320+390162047+389697419
2828+388755098+387451293+386232707+385616583+385668990+385911640+385838383
2818+385355709+384677782+384027237+383510529+383111254+382758450+382444243
2808+382206516+382018332+381827881+381673701+381606738+381553972+381397227
2798+381171311+381084989+381234934+381329011+380941010+380123250+379431960
2788+379186388+379060007+378589771+377772876+376963498+376411415+376047426
2778+375587391+374826155+373917360+373260939+373028759+372940409+372616688
2768+372045723+371556606+371408004+371568627+371858852+372112866+372178487
2758+371929275+371330511+370456526+369478501+368592644+367861146+367203174
2748+366648883+366423415+366607244+366886522+366811028+366219482+365343230
2738+364599025+364293469+364379552+364452481+364084614+363211613+362183895
2728+361467848+361279873+361462837+361707336+361852985+361863455+361586951
2718+360853574+359859472+359112583+358869426+358880552+358774991+358462753
2708+358063597+357652689+357242049+356901177+356734051+356726505+356671323
2698+356287409+355493571+354582540+353985864+353822228+353861124+353939809
2688+354116539+354378666+354528134+354444467+354207723+353858618+353266953
2678+352405913+351579354+351124688+350968301+350736747+350279606+349825298
2668+349616921+349636876+349716218+349733667+349629807+349335436+348847870
2658+348369252+348151539+348122039+347892425+347279313+346617941+346398259
2648+346712048+347156930+347225713+346765082+346070391+345519680+345184445
2638+344905048+344653688+344575092+344674896+344751852+344686201+344560357
2628+344480180+344453395+344395767+344181156+343805713+343463498+343309199
2618+343287693+343322860+343448375+343667908+343922250+344169314+344294084
2608+344098592+343566762+342940557+342426325+342025200+341688026+341468404
2598+341461931+341635410+341789649+341764475+341599109+341386526+341103341
2588+340711343+340289608+339953866+339750619+339671784+339701522+339846694
2578+340113385+340398956+340470752+340202600+339796762+339578184+339550832
2568+339389016+338959227+338584201+338595834+338864672+339012111+338929279
2558+338839796+338917169+339062431+339087128+338961971+338800125+338712312
2548+338790520+339082624+339419321+339426360+338911204+338128074+337538736
2538+337403914+337640359+337964498+338167715+338319986+338654684+339217237
2528+339746741+339994909+340043409+340161050+340422043+340620398+340530825
2518+340138709+339646490+339328853+339321128+339515605+339715989+339827217
2508+339809529+339607773+339258131+338918601+338725108+338739246+338965132
2498+339275372+339470356+339519632+339563270+339652127+339692812+339613918
2488+339431908+339225172+339099507+339093243+339142459+339159789+339046622
2478+338735070+338387158+338331261+338611016+338878393+338882539+338747270
2468+338661604+338622112+338570421+338551599+338656802+338885999+339118358
2458+339255626+339333506+339383915+339295983+338994543+338640695+338469871
2448+338530809+338693908+338814025+338827477+338775547+338751923+338776471
2438+338764630+338686421+338709478+339073020+339763832+340399195+340561995
2428+340230370+339770096+339555306+339698957+340067390+340448858+340735951
2418+340956856+341134034+341234225+341306289+341491789+341794064+342008944
2408+342022694+342024752+342246105+342618177+342907895+343098913+343387586
2398+343833065+344253876+344495899+344614703+344764797+345040615+345420025
2388+345770055+345919045+345741510+345132694+343958282+342160797+339881354
2378+337351983+334709506+332014859+329384372+326974253+324855284+323004347
2368+321437789+320282617+319601647+319221850+319072442+319645286+321536818
2358+324530459+327854383+331377379+335719774+340922614+345700496+348420228
2348+348326897+345971930+343064163+341326721+341012873+341279713+341540498
2338+341687787+341738942+341749531+341833526+342160797+342867866+343858299
2328+344845332+345670877+346348566+346874788+347366799+348248658+349791384
2318+351536581+352657660+352915343+352893509+353221525+353927580+354725147
2308+355542578+356442633+357303763+357936799+358367095+358753545+359172477
2298+359669856+360353808+361229911+362060408+362585050+362825730+363031006
2288+363378052+363842979+364286340+364557833+364577460+364397806+364153427
2278+363924051+363683668+363379067+363032616+362742541+362532403+362241284
2268+361693227+360964235+360336568+360013860+359995516+360156616+360341102
2258+360449227+360515236+360655368+360938225+361352325+361861247+362423323
2248+362995391+363559286+364091862+364497431+364614088+364305042+363601493
2238+362790653+362251545+362119318+362185357+362178884+362041288+361866616
2228+361719565+361612632+361574363+361655584+361884841+362226400+362593014
2218+362967472+363515738+364463607+365813436+367300622+368699607+370054357
2208+371501872+373010296+374477408+375965966+377611448+379402580+381255485
2198+383153221+385055939+386893990+388736038+390677710+392576192+394195993
2188+395519275+396674805+397762179+398916129+400289850+401809429+403119825
2178+403907131+404224171+404392847+404582016+404647607+404424823+403962998
2168+403428126+402941007+402515215+402091749+401626823+401029550+400079146
2158+398688035+397158016+395887470+394954992+394137381+393195180+392118604
2148+391099088+390256482+389785709+390479117+393319741+398260543+404175373
2138+410191200+416267488+422444266+428425701+433997660+439294785+444593283
2128+450016490+455458728+460782519+465940766+470792383+475026951+478426072
2118+481036127+483057320+484785247+486678957+489193712+492439129+496316778
2108+501089142+507333003+515236305+524422443+534292832+543962957+552175335
2098+557857120+560629737+560806198+559115020+556107360+551901098+546692681
2088+540840221+534269387+526481817+517143915+506447116+495179412+484284348
2078+474128000+464633442+455964847+448409456+441956174+436501856+432012468
2068+428342243+425343561+422975440+421039524+419230078+417519720+416118378
2058+415156401+414571835+414144700+413730690+413529441+413877771+414882343
2048+416484396+418641485+421424661+425237642+430685100+437990533+447000359
2038+457797976+470674563+485427977+501025489+515880348+528588259+538756508
2028+546852379+553227542+557898820+561043389+563028372+564099132+564238189
2018+563214796+560992622+558023679+554756517+551144068+546971690+542277982
2008+537244177+532010406+526637936+521002264+514874076+508309924+501735451
1998+495576123+490141938+485751221+482424195+479581393+476651196+473793690
1988+471431832+469573826+468133112+467288656+467132687+467478361+468144656
1978+469024607+469999052+471098775+472480310+474103899+475779836+477478441
1968+479237210+480911029+482326121+483526005+484722579+486177670+488099716
1958+490468971+493011824+495423971+497546728+499427582+501394937+503860267
1948+506838696+509995316+513258362+516718152+519832775+521778146+522784716
1938+524029790+526274871+529297684+532386893+535013473+537174380+539192472
1928+541308518+543717712+546589536+549553170+551862083+553632843+555788202
1918+558316051+559979669+560341958+560601460+561929873+564115477+565991589
1908+566843949+567110431+567606706+568547953+569591450+570430806+571127703
1898+572013888+573237486+574459771+575407998+576431391+577698000+578428603
1888+578055934+577395725+577470592+578176975+578759871+578752772+578166118
1878+577353608+576773277+576649969+577087245+578394182+580681320+582949071
1868+583332180+581204560+578023481+575383956+573572035+571983881+570159253
1858+568223606+566592023+565454270+564603819+563799839+563077588+562635480
1848+562786230+563852575+565295049+565262358+562730034+559163102+556308936
1838+554386234+552750655+551243872+550592969+551465194+553190138+553851958
1828+552497714+550150323+547809017+545342971+542559259+539982611+538259696
1818+537449929+537109176+536991237+537333183+538176536+538833702+538615124
1808+537794739+537227891+537488348+538757403+540858416+542954060+543874547
1798+543451708+543011866+544155764+547208106+550286995+550701781+548597009
1788+546751561+547092553+549370564+552273290+554970561+557088457+558131298
1778+558285209+559131067+562481210+568451848+574306515+576561619+575211850
1768+572675112+570661971+570293478+572381009+576169681+579264975+580509989
1758+580989203+581477962+582003350+583495875+587357923+593193620+598070352
1748+599577672+598538887+597281883+597284329+598708190+600830381+602619335
1738+604025718+606682841+611921683+617445738+618621015+615620036+611937014
1728+609570354+609131945+610437390+612636417+615371689+619677397+626559335
1718+634386517+638620936+637227618+633204559+629717447+627972578+628341190
1708+630962938+635007592+638560565+641160478+644847258+650715109+656046417
1698+658260358+658454717+657015703+653716565+650786278+650643164+653613182
1688+658969485+666672822+675802824+681146541+678934031+673696979+670365985
1678+670341169+673197840+677302270+680855660+683986449+687535245+689964484
1668+688855187+685810242+684749982+687191390+690984059+692678519+691868514
1658+691250064+693714141+700730483+709955219+713543627+710660945+709196816
1648+711709752+714398731+712325816+706656260+701887624+700431728+702825889
1638+708533147+715112988+717497962+713581269+708140195+705676416+706845309
1628+709908270+713284781+717016481+720983942+723935644+726170585+730257177
1618+737627635+745527358+748862647+747235181+744097591+741641627+740312558
1608+739632781+738951514+738340282+738506661+739773151+741803532+744373498
1598+747752634+752082980+756692394+760287305+762139375+762903206+763623309
1588+764360176+764621349+764748594+765696284+767522583+769423630+771506866
1578+774942436+779297181+781368187+780445016+780037329+782226573+785382298
1568+786999444+787622189+789262124+793010170+800110388+812480588+828213220
1558+836061341+832004398+826048972+823093809+822470706+822893545+823690903
1548+824820364+826947804+830871775+836620255+843131075+847285854+844501843
1538+836716301+830943004+829654024+830818025+831250887+830486519+830763739
1528+833563379+838428777+843948298+849114121+853403424+856595897+859173797
1518+861284952+862211703+862285258+863133144+865612792+870164221+878450692
1508+890760819+899288001+894986409+885766745+881562690+883163013+887569658
1498+891698487+893530811+893136725+893159156+896062001+901260993+905594798
1488+907053976+906728137+905736122+904451915+904143734+905897610+909349168
1478+914066440+920713931+929523284+937634368+939404590+933551533+926263639
1468+923227046+925114134+928783614+930494121+929645041+928142613+927339588
1458+926760034+924417415+920334104+916787813+914238129+912011780+910720473
1448+911307306+912377409+911754902+909888694+908790672+909405722+911833350
1438+915864224+919306952+918751856+914979709+912047454+912270268+915326428
1428+919501012+923051241+924795871+924961773+925111270+926487109+928593968
1418+929312700+927803650+925742069+924659796+924367603+924017424+923709302
1408+923960512+924157197+923341227+922483855+923667364+927159786+931169781
1398+934038264+935486525+935475727+933809365+931365272+929724145+929397888
1388+929588965+929273745+928695681+929773480+934122379+940723875+946510594
1378+949712195+951007379+951431412+951499598+952010251+953423434+954590776
1368+954182433+953187019+954185893+958481221+964691316+970112704+973567961
1358+975884271+978087534+980413986+982805045+985294357+987475249+988354931
1348+987699435+987291688+989662942+995089878+1001022276+1004993554+1006464424
1338+1005915354+1004584436+1004587299+1007124097+1011591949+1017291213
1330+1024086113+1030823147+1035636167+1038545932+1041124130+1043753156
1321+1045472552+1046422389+1048153477+1051693206+1056062865+1058749876
1312+1058586538+1057673687+1059396901+1064866133+1071273868+1073741823
1304+1070700816+1065308778+1060861328+1058154751+1057130463+1058337894
1295+1061008797+1061547965+1057295470+1051042005+1047513134+1046616986
1287+1044355440+1039161936+1032715783+1026085413+1019310796+1013214702
1278+1008953140+1006462396+1004676305+1003102589+1002281965+1002328377
1270+1001691493+998751483+993960118+988118814+980317881+970491041+961355789
1260+955241202+951476929+948310943+945080648+941706523+938247747+935095184
1250+931806128+926597830+918460080+908583905+898676411+889189429+879641181
1240+869773298+860213655+852116472+846001169+841054342+835927355+830331951
1230+825340919+821727098+818747118+815458838+812505763+811262121+811917737
1220+813490439+814967215+815742918+815766601+815616150+815851432+816504423
1210+817598508+819629366+823024251+827392895+831517190+834329120+836042192
1200+837915141+841064066+845964600+852210310+858102859+861743287+863294155
1190+864799029+867270683+869504788+870343427+870724209+872465737+876015727
1180+880397555+884813328+889376032+894711158+901577585+910164601+919457643
1170+928556206+938251207+948937745+957503166+959731365+956101437+951455632
1160+949097145+948710457+949395125+951920230+956740647+962055252+966005292
1150+968987598+972127217+975234024+977112522+977017311+976105117+976431552
1140+977633495+977128808+974922681+974969750+979994249+987261860+991447541
1130+990834519+988049852+985744041+984718501+984614282+984738545+985283320
1120+987372462+991706327+998036152+1005354352+1011379694+1012556104+1007687008
1110+1001204226+999395764+1004194645+1011354161+1014389442+1012461012
1101+1011305959+1014732223+1020599955+1024259472+1023379313+1018531812
1093+1011232583+1003091254+995337210+988823467+985283559+986833533+992594302
1083+996939621+994331475+986690061+981569815+982249889+984260047+982138214
1073+975648214+968760310+965169158+964530365+963522483+960671001+957716614
1063+956708851+958362088+962349533+967349454+971850593+974970645+975656088
1053+973128358+968818296+965226010+962906836+959997847+954490555+947381448
1043+943298554+946114302+953693674+958936393+958089581+955385390+956464919
1033+960985864+963540916+960855218+956440281+955312490+957276295+958294856
1023+955564476+949719473+943874888+941017679+941455433+943252560+945279421
1013+948233092+952466736+956031878+955359439+948686416+938469547+928937346
1003+922002017+916835955+912013271+906526262+899579598+891048837+882219081
993+875260665+871670587+870974047+870918448+869323375+865810789+861539026
983+857335448+852981420+848562545+845166586+843236129+841387459+838340725
973+834930449+832623087+831389944+829924801+826773371+821420348+815244316
963+810712991+809289368+810449849+812698391+815102395+817558717+820138706
953+822741184+825403617+828122484+830236323+831441904+833210456+837302656
943+843323166+849419797+854935859+860711542+867313754+874466708+881789680
933+889049059+895809478+901774807+907264262+912333503+915880390+917460013
923+918249794+918430074+916398201+912225705+908690510+907708339+908401597
913+908569767+906765899+903393146+900525080+900188980+902505768+905375981
903+905925947+903225633+899518331+897338394+896881372+897441121+898859554
893+900845014+902953484+905601957+909478263+914347657+919724244+925202066
883+929009530+929322782+927455320+926648537+928343295+930984431+932628123
873+933865919+936696580+940921514+943661499+942989120+940241499+938022905
863+937763701+940345062+946423497+953208375+955144619+950727773+945007570
853+943790356+947968460+953974235+958891413+962478568+964471843+964421852
843+963657782+964631780+967505752+969866028+969843956+967879972+966035717
833+966144469+968925795+973705765+978090338+979938113+980800555+984301507
823+990451649+994813791+994172672+990061262+986565202+986474585+988956022
813+990819367+990574421+989766027+989606269+989790903+989660138+989178895
803+990600729+996031721+1002512594+1004181521+999511138+992186496+986515091
793+983490071+982215110+981781354+980609895+976931765+970998531+965326828
783+961375714+958128715+954142404+948692620+941493314+934198499+930062572
773+930067583+932606946+936110941+939158689+940636360+941886146+945823242
763+951959484+955914834+956375853+956693937+957871182+956031878+949393753
753+943476865+945333827+954849801+963637559+964956366+962534824+962829582
743+965186339+964850776+961205576+959682567+964727885+973033625+978034262
733+978352942+976113707+972000627+967426290+966102471+969397075+974093229
723+976592265+976555755+975037399+972825009+971214246+970986481+971826671
713+973669376+975391814+973839096+968538451+964402225+964897904+966303749
703+962897828+955951224+952596845+955549264+957567236+951075088+941587570
693+939814126+947993157+960325177+970214119+973040187+966762084+954862925
683+945055951+943987160+950930244+956449587+951229298+938664263+928888190
673+924815497+922851155+921732134+925569724+935032903+942526669+943670269
663+940280037+935774363+930952873+924530761+916022072+908259140+906459507
653+910817652+916631932+918827201+916717598+913643303+909495503+905198327
643+905889318+914573335+927456454+937147279+940239710+940516751+944713408
633+954751966+962481969+956805553+940366717+924473312+916875328+919051268
623+925967210+931119610+931047666+928155976+928326591+930338837+929366927
613+927899039+923816444+909785430+892822280+887788356+899034404+911620916
603+906028376+885020213+864239339
##END=
