##TITLE=<SNM>
##JCAMP-DX=4.24
##DATA TYPE=INFRARED SPECTRUM
##DATE=29/4/2025
##SAMPLING PROCEDURE=Instrument type and / or accessory
##ORIGIN=Admin
##XUNITS=1/CM
##YUNITS=ABSORBANCE
##RESOLUTION=4
##FIRSTX=4497.3318
##LASTX=599.83466
##DELTAX=-1.4281778
##MAXY=2.1881721
##MINY=0.59669429
##XFACTOR=1
##YFACTOR=2.0378941e-09
##NPOINTS=2730
##FIRSTY=0.60987306
##XYDATA=(X++(Y..Y))
4497+299266318+297860183+296965862+297230968+298879365+301043787+302343311
4487+302076217+300603163+299022096+298503906+299360789+300782162+301656038
4477+301440450+300394770+299411564+299400420+300381316+301340363+301240773
4467+299987987+298345410+297266680+297325176+298361965+299598226+300271782
4457+300118199+299313875+298235349+297280075+296770602+296964517+297909232
4447+299182756+300180176+300766163+301273853+301935826+302713271+303554361
4437+304364184+304784889+304391999+303065712+301276339+299943471+299730925
4427+300489359+301324452+301340538+300509335+299614517+299171407+298877551
4417+298442836+298220374+298635669+299715540+301173941+302180107+301701724
4407+300075702+298967899+299060118+299367955+299322445+299753709+301013164
4397+301929567+301481310+300018873+298318677+296816521+296040480+296491106
4387+297822248+298904927+298924582+298280626+298079369+298459273+298003412
4377+295780054+293281999+292799463+294607086+296975046+298358075+298719319
4367+298876235+299142218+298929671+297759833+296252968+295558704+296025154
4357+296857966+297185458+297266650+297996070+299205511+299773715+299737476
4347+300460374+302289700+303872200+304127127+303406511+302469283+301555132
4337+300660636+299815510+298926132+297915228+297082767+296933251+297555827
4327+298454740+299134116+299552862+299834492+299913287+299645403+299140755
4317+299022856+299943763+301519215+302387593+301959517+301287248+301275140
4307+301247968+300506498+299996469+300808427+302274783+303093761+303118709
4297+302811955+302316754+301993533+302349951+302822513+302235474+300754581
4287+299807204+300026243+300443731+299868976+298443567+297365714+297227078
4277+297419677+297505579+298189605+300047975+302057674+302531962+301270138
4267+299691644+299009782+299148126+299176438+298276209+296556037+295163006
4257+295266662+296933455+299249675+301191519+302054661+301782741+301177655
4247+300957739+300763326+300021534+299298959+299570411+300501906+300715476
4237+299703665+298343772+297475307+297083732+296998620+297398296+298363222
4227+299532944+300353121+300449903+299888426+299214841+299002207+299283369
4217+299578015+299408288+298731720+297975597+297562671+297365334+296967120
4207+296536412+296831877+298109027+299558127+300237561+300249407+300412085
4197+301037118+301619829+301588621+300893100+300027618+299787900+300571341
4187+301680490+301869287+300775815+299333091+298557723+298429469+298291711
4177+298034736+298277028+299226833+300184096+300753031+301656565+303459158
4167+305391379+306360546+306248204+305384564+303833768+302095726+301331442
4157+301956768+302852317+302656822+301379789+300193250+299920950+300199509
4147+300102756+299358596+298711480+298946694+299776932+300155754+299744262
4137+299380678+299778365+300499888+300675289+300170115+299592903+299469680
4127+299727649+299850667+299533763+299209079+299622736+300841097+302093620
4117+302655770+302486247+302054135+301933984+302374607+302942957+302817336
4107+301712575+300276052+299408230+299459677+300161925+301063383+301854721
4097+302359603+302443194+302149893+301754722+301351594+300716237+299929754
4087+299622209+300187488+301159171+301681806+301382831+300639138+300175467
4077+300460725+301229746+301512810+300504421+298443947+296463701+295681371
4067+296534745+298614025+300782776+301949514+302083910+301948900+301902103
4057+301781571+301710528+301963202+302145184+301597337+300565960+300066927
4047+300539402+301279527+301396344+300713458+299540519+298344416+297818095
4037+298387177+299482491+300195239+300609452+301374525+302214152+302219475
4027+301495466+301230244+302025179+303068929+303142781+301920003+300213929
4017+299252834+299595798+300709802+301818629+302783233+303575449+303570740
4007+302358053+300625772+299472576+299403550+300155754+300983623+301200381
3997+300748468+300059615+299480473+299296648+299912088+301311963+302647346
3987+302970216+302188296+300854580+299416068+298201860+297756060+298435378
3977+299765584+300844080+301386253+301745918+301978704+301634424+300613751
3967+299649352+299578863+300436390+301529218+302209852+302330091+302078118
3957+301652879+301152151+300782747+301016732+302101751+303450062+304098435
3947+303809317+303177527+302785222+302808006+303166208+303616484+303860735
3937+303705837+303225290+302834651+302947374+303368196+303403733+302845970
3927+302362849+302679022+303578929+304047894+303701742+303504961+304550143
3917+306448290+307531876+306859402+305153153+303598408+302636758+302087449
3907+301993211+302880015+305051486+307774431+309584804+309578750+307959630
3897+305535134+303208004+301789293+301824420+303176123+304883455+306093393
3887+306761509+306860543+306020770+304686528+304131076+304665995+305046251
3878+304345611+303309524+303094550+303999137+305646861+307259254+307608769
3868+306347677+305003344+305272690+306935506+308231638+308199436+307247204
3858+306104478+305542855+306512987+308839912+310205450+309473164+307747259
3848+306154990+305214895+305069737+305518404+306263062+307478557+309516188
3838+311685758+312487157+311632789+310343384+309661639+309418324+308898408
3828+307983672+307149339+306925328+307736701+309540581+311289357+312178765
3818+312770250+313360917+313144714+311722025+309859035+308692560+309140817
3808+311121736+313108505+314050500+314796007+315953415+316278683+315189307
3798+314000778+313472498+313060245+312356038+311891986+312233634+313347199
3788+315176935+317899499+321019868+323306781+324449185+325579305+327615006
3778+330168253+332564437+334989987+338255924+342834108+347755315+351090044
3768+352641863+354271863+356878313+359366599+360882473+362135961+364060227
3758+366452667+368727472+371215876+374785818+379627412+384676082+388790303
3748+392671417+398152989+405599102+412182686+415336369+416579942+418801983
3738+423468409+429771562+435434737+439493182+443026915+446757488+450214795
3728+453017909+455258377+456494082+455679492+452716068+449227261+447075912
3718+446555003+446852076+447679975+449328050+451349010+452655408+453282605
3708+453831388+454126941+453930540+453309660+452300540+451422744+451761350
3698+453678099+456336464+458978625+461971297+466026963+470596022+473362167
3688+472856495+470941326+469883040+469836214+470093393+470607604+471535853
3678+472064455+470890844+468389746+466681712+466794171+467982085+468846193
3668+468868363+468696442+468731452+468441486+467332396+466014825+465448990
3658+465560426+465351009+464445749+463794480+464346188+466084991+467790334
3648+468085068+467230174+466320761+465968847+466359514+467500690+468972516
3638+469879208+469815681+469722731+470965690+473741925+477077765+479801060
3628+480976310+480176987+477985218+475933723+475517814+477196746+480206118
3618+483139621+484958739+485480584+485306002+485343294+486196111+488211953
3608+491052563+493352814+494028387+493517773+493087182+493486302+494744265
3598+496800586+499403380+501863033+503747608+505238679+506457450+507071252
3588+506750751+505482024+503277005+500569913+498682471+498736873+500190799
3578+501337853+501361544+500889946+500764296+501341889+502712282+504727831
3568+506897869+508777823+510277610+511027825+510113060+507335304+504207740
3558+502644309+502919769+503833539+504357374+504422539+504695541+506078628
3548+508798648+511558913+512581195+511688834+509995658+508148169+506296351
3538+504931925+504368722+504144915+503979605+504292209+505096709+505647861
3528+505510453+504797734+503322165+500981786+498677674+497418892+497158525
3518+497427550+498178291+499258367+499877434+499617944+499430639+500495564
3508+502435770+503808503+504059277+503668287+502831147+501615886+500452160
3498+499261468+497551094+495947593+496125773+498579284+501746976+503764865
3488+504284721+504358895+504964683+505806211+505538122+503299234+499859183
3478+497043346+496218957+497277156+498756703+499044095+497505993+494592175
3468+491477422+489571495+489605335+490959905+492146210+492047410+490737502
3458+489246285+488473285+488345529+488296012+488252812+488517508+488774541
3448+488209291+486817284+485617846+485272250+485242417+484714897+483669948
3438+482640121+482013888+481864225+481927635+481572183+480286697+478346959
3428+476713947+476148141+476471041+476887944+477091774+477462495+477938772
3418+477790279+476981480+476431527+476386718+475909155+474526302+473105485
3408+472608939+473089866+474110539+475255721+476041912+476046943+475520944
3398+475201759+475278096+475183332+474669852+474368128+474853208+475913951
3388+477028803+477768401+477720347+476751823+475278915+474009809+473633882
3378+474627705+476770454+479049880+480584297+481358379+481746238+482033046
3368+482691012+484170472+486277100+488410723+490253357+491657064+492306256
3358+492220617+492139892+492539013+492508185+490678684+487508008+485355870
3348+485586346+486771774+486827725+486062067+486354402+487917950+488822245
3338+487865391+486372273+486354607+488003677+489743299+490276814+489965146
3328+489897378+490100799+489640345+488322628+487107542+486676776+486716670
3318+486811025+487082945+487662526+488240207+488224997+487227928+485479122
3308+483695306+482692709+483146114+485099423+487386102+488402329+487781186
3298+486404738+485112087+484573102+485479151+487471185+488950410+489164916
3288+489252690+490219810+491345688+491502926+490950545+490813547+491428870
3278+492113920+492336499+492274843+492253609+492499177+493236581+494215108
3268+494458043+493443541+492203887+491969844+492220968+491496316+489761023
3258+488445353+488220201+488100342+487128981+485765959+484909514+484700419
3248+485047858+486343932+488716951+491109655+491930359+490611062+488242868
3238+486722432+487058113+488293380+488610576+487528248+486006759+484761080
3228+483861904+483477905+483566293+483271383+481867560+479903838+478551228
3218+478212476+478300835+478269276+478331194+478760411+479025399+478449737
3208+477365508+476739334+476903036+477250563+477148633+476860714+477062000
3198+477417570+476758112+475032734+473627009+473347572+473567138+473463336
3188+472707651+471071977+468651575+466261504+464762477+464346598+464758470
3178+465491517+465617606+464374208+462181679+460321525+459529836+459455516
3168+459364964+458814455+457712385+456222279+454785054+453940952+453710389
3158+453380236+452437889+451413151+451147314+451713266+452618263+453441657
3148+453899215+453892751+453573361+452916155+451663369+450045098+448757681
3138+447952129+447139556+446224118+445799230+446242662+447067460+447404018
3128+446819084+445417133+443598043+442050231+441342601+441301858+441452457
3118+441783546+442241719+442215893+441566262+441182263+441573106+441954122
3108+441475095+440390983+439412427+438740656+438241361+437910125+437702493
3098+437375352+436842480+436276294+435611600+434504762+433039927+431908784
3088+431696998+432324546+433195937+433715179+433640947+433041126+432132503
3078+431296035+430984103+431361902+432093574+432555753+432339551+431660057
3068+431161230+431077580+430853861+430002974+428933544+428379379+428374583
3058+428276543+427753527+427306703+427503690+428051010+428119539+427431915
3048+426476875+425642103+424809554+424029857+423900638+424706045+425612445
3038+425417009+423948722+422153588+420962837+420545114+420504079+420394106
3028+420040672+419661030+419688524+420219612+420654532+420307327+419351790
3018+418584289+418328806+418210380+417875577+417393596+417064321+417047620
3008+417051510+416588570+415728411+415069626+414850703+414768545+414623503
2998+414452256+414132017+413428307+412384879+411337327+410594248+410273922
2988+410410014+411015392+411857827+412387277+412211905+411494711+410660144
2978+409983898+409604315+409577319+409714083+409562841+408826226+407813363
2968+407177537+407090202+407059111+406742500+406396787+406258589+406148382
2958+405967482+405917585+406028465+406028845+405686963+404883458+403600985
2948+402194733+401321764+401276926+401666336+401917841+401835332+401531765
2938+401090498+400474942+399708640+399023999+398754975+399088053+399940022
2928+400949610+401542032+401281138+400272779+398967316+397657438+396514654
2918+395930012+396278182+397252468+397882414+397515555+396467593+395480995
2908+394893165+394550260+394202294+393727421+393172993+392720173+392505784
2898+392492506+392601865+392839740+393184429+393458368+393398497+392886742
2888+392128395+391537319+391353846+391412488+391392951+391259988+391241416
2878+391319274+391118135+390563502+390244668+390665871+391426206+391625444
2868+391002224+390200415+389869326+389986845+390174151+390226125+390084125
2858+389685648+389161345+388862166+388897790+388940610+388722272+388420753
2848+388308381+388287206+388066616+387625788+387208768+386955917+386808770
2838+386693210+386545858+386272593+385891226+385557739+385292750+384921708
2828+384416768+383986469+383688840+383278956+382640557+382112452+382104613
2818+382492356+382697123+382427513+382019648+381898209+382017746+382033219
2808+381769371+381304501+380750161+380169614+379639140+379243676+379045549
2798+379106356+379403575+379653998+379438030+378648096+377681415+377056557
2788+376906719+376938716+376863344+376773406+376956470+377349653+377460562
2778+376956909+376077475+375287658+374776166+374485205+374379473+374401205
2768+374318871+373928233+373347306+372868133+372598231+372479367+372527071
2758+372763922+373001622+372939733+372435085+371585719+370678441+370052326
2748+369863061+369996725+370194618+370128166+369575171+368813169+368476318
2738+368689303+368821446+368428205+367832625+367447953+367199460+366889839
2728+366574310+366351176+366170423+366000871+365931904+365993676+366023012
2718+365815321+365382623+364937291+364574029+364154172+363634169+363280880
2708+363349175+363724253+364053675+364062800+363673244+363035430+362474626
2698+362172609+361976705+361744358+361639269+361747575+361702240+361157142
2688+360379931+359913481+359884614+360031849+360161886+360246881+360265220
2678+360186250+360022957+359843315+359739104+359683708+359510968+359215416
2668+359043905+359063355+358976341+358613430+358223581+358076668+358140429
2658+358243236+358230338+357993223+357603608+357283984+357123003+357018323
2648+356901009+356780653+356625053+356375449+356031959+355686567+355497419
2638+355497800+355429681+355049484+354596547+354580665+355067559+355527369
2628+355483907+355059048+354726292+354673499+354609972+354248845+353773270
2618+353592282+353779587+354041475+354150074+354136269+354091811+354016088
2608+353885349+353725215+353587632+353521765+353562742+353686988+353784589
2598+353729631+353493628+353161515+352845606+352633586+352588047+352697640
2588+352838031+352874415+352796996+352718961+352784097+353042300+353353091
2578+353484912+353385176+353223902+353103370+352918024+352580793+352217151
2568+352062165+352246311+352656838+352948881+352812322+352331657+351955087
2558+351982756+352222006+352318613+352278864+352385415+352701734+352958387
2548+352901294+352550434+352139117+351884190+351759095+351538126+351179222
2538+351004084+351300543+351910279+352408639+352580764+352553592+352514049
2528+352462367+352304661+352105979+352081147+352285504+352487492+352458448
2518+352252892+352100568+352138737+352315249+352451019+352403345+352255203
2508+352228060+352340666+352401473+352427913+352697786+353207259+353478741
2498+353190237+352652451+352351137+352306738+352194630+351886968+351562987
2488+351419612+351549679+351986207+352621887+353159819+353350312+353259350
2478+353174852+353244580+353288686+353043704+352585034+352333003+352527240
2468+352899364+353045927+352932034+352811941+352843266+352989741+353139140
2458+353177543+353072689+352913813+352758651+352533557+352223205+351983721
2448+351915017+351918644+351901008+351900276+351930811+351942218+351981996
2438+352138444+352314225+352323760+352192846+352116508+352180678+352338852
2428+352561548+352831625+353089857+353282720+353364117+353266311+353032004
2418+352916065+353150869+353641946+354087249+354394179+354757967+355270805
2408+355685573+355725964+355484901+355336642+355521023+355936727+356334736
2398+356656144+357078545+357707381+358448149+359355017+360908972+363761778
2388+368372633+375003629+383883984+395280557+409523590+426953561+447658506
2378+471180547+496573504+522743525+548549466+572697973+594285745+613957411
2368+633329752+651563696+663933151+667195198+664071144+658532713+650729539
2358+638291643+619929066+596094451+568493667+541355590+520412974+509379107
2348+509137868+518773849+535201193+552712239+565989967+573794954+578406218
2338+582285284+585345929+585992371+584551373+583292415+583193381+582886627
2328+580804216+576845010+571717048+565843901+559253531+551980275+544150427
2318+535702565+526536894+517064177+507961332+499311248+490616648+481687391
2308+472865767+464392137+456208942+448337473+440949828+434141091+427870374
2298+422073769+416827177+412351214+408648983+405258068+401678123+397903444
2288+394313818+391305323+389157865+387921048+387290429+386793912+386154489
2278+385406116+384699715+384021070+383142806+381970628+380835302+380194680
2268+380091785+380109509+379843672+379316796+378894482+378788019+378733939
2258+378322885+377580772+376966999+376795664+376917658+376998646+376868813
2248+376554747+376209414+376090257+376367968+376857816+377131842+376968111
2238+376545621+376199937+376112690+376209180+376271975+376145097+375809884
2228+375300907+374688743+374107436+373602759+373030168+372324235+371726139
2218+371480572+371469896+371422543+371316782+371296893+371348633+371344363
2208+371307101+371371915+371556441+371781301+372031490+372311336+372545848
2198+372681559+372781588+372936720+373197146+373604339+374164061+374796230
2188+375393975+375905203+376311080+376557905+376590108+376517338+376643778
2178+377143921+377799519+378260938+378429056+378390917+378213907+377999225
2168+377944122+378213673+378809779+379512700+379946129+379894535+379579357
2158+379432590+379616502+379926737+380135774+380253878+380408162+380643493
2148+380970399+381464898+382148544+382877174+383510163+384107995+384846043
2138+385801229+386901779+388057140+389300333+390792486+392680045+394932855
2128+397326729+399638679+401852062+404074659+406271400+408212132+409704578
2118+410818201+411884063+413202219+414637806+415654062+415907088+415586031
2108+415024642+414310753+413426581+412424978+411289477+409918294+408415553
2098+407115706+406135864+405152395+403815228+402202543+400711267+399642598
2088+398995892+398579515+398249333+398005900+397872529+397820496+397860010
2078+398036552+398299230+398523329+398659830+398745820+398808440+398842251
2068+398863105+398941227+399126485+399321921+399365735+399302354+399403582
2058+399846048+400517235+401184414+401724862+402157179+402560014+403023655
2048+403642780+404484689+405529316+406653147+407685899+408513564+409170038
2038+409792001+410446165+411087986+411725772+412477654+413406429+414439445
2028+415484715+416510390+417525506+418596632+419856642+421400682+423164404
2018+424915783+426407352+427638962+428940096+430618852+432535455+434231468
2008+435516895+436682112+438102900+439888529+441866026+443684179+445051238
1998+446043628+447039762+448308371+449819741+451343979+452585563+453430923
1988+454154815+455169667+456603090+458302613+460105206+461901276+463596968
1978+465194385+466821343+468624228+470648727+472778490+474829254+476757673
1968+478676323+480621033+482478349+484219462+486022231+488083846+490437708
1958+492963111+495453475+497706811+499720137+501791433+504258925+507109157
1948+509957109+512467946+514726781+517047096+519460829+521689188+523688592
1938+525805690+528259318+530870828+533430217+535960475+538492605+540955592
1928+543421855+546123741+549056454+551810753+554013958+555788385+557557782
1918+559606030+561920729+564154996+565756742+566543868+567144801+568435522
1908+570511147+572607830+574002733+574674271+575177748+576083681+577438455
1898+578761642+579636805+580132269+580670552+581632407+582939741+583974716
1888+584269947+584183197+584392673+585119957+586180554+587311814+588190136
1878+588532398+588383701+588079286+587939246+588118888+588576680+589008909
1868+588968956+588310405+587377038+586597457+586086258+585678890+585210042
1858+584594485+583726751+582574841+581288800+580021770+578826105+577845648
1848+577297830+577071801+576629276+575623549+574433441+573538916+572825202
1838+571879609+570542969+569062661+567833244+567041496+566468700+565692571
1828+564660170+563754705+563135463+562377702+560934306+558826742+556661911
1818+555067594+554216531+553887547+553807349+553692930+553171026+552156700
1808+551239127+551146878+551926049+552996590+553877545+554517787+554940715
1798+555062504+555058176+555423778+556428744+557625403+558247102+558290565
1788+558489394+559384504+560866509+562353017+563403962+564091352+564714220
1778+565412959+566320120+567908529+570653351+573999106+576325563+576931000
1768+576713218+576780723+577709293+579581058+581909212+583801158+584966229
1758+585975056+587148258+588265889+589457868+591336945+593957522+596327149
1748+597667358+598397450+599248396+600520574+602328403+604667202+607016590
1738+608838808+610578898+612939166+615201803+615894399+615567756+615776237
1728+616920074+618526734+620188438+621703668+622956367+624185491+625988172
1718+628647883+631275829+632437625+632011772+631045880+630504907+630794463
1708+631885478+633473536+635123015+636835085+639305794+642901445+646373435
1698+648226716+648849526+648977691+648732826+648493693+648796060+649704449
1688+651135679+653640315+657893465+662589549+664952566+664921797+664321801
1678+664426684+665951566+668877376+671988737+674242600+675938876+677411871
1668+678100256+677960450+678086451+679289428+681146393+682646531+683608854
1658+684657108+686494594+689885040+695023883+699323713+700273868+699868606
1648+700326632+701660933+702443789+702274793+702227879+703070168+704883612
1638+707578420+710780391+713288011+714366859+715230206+717325953+721003090
1628+725654366+730282360+734265023+737701623+741304001+745977213+752226023
1618+759626743+766147853+769490801+770341220+770988365+772425151+774242807
1608+775634434+776257537+776198222+775656955+775253038+775898662+777677126
1598+779707182+781603515+783905169+786711764+789173406+790570590+791129347
1588+791830542+793587011+796260351+798661625+799996920+800824234+802237270
1578+804716695+807539961+809038988+808889705+808812841+810362876+813764729
1568+817947918+821867522+825194909+827468719+828325047+828480354+829518781
1558+831782120+833907408+835802104+837965824+840353702+842635468+844528818
1548+845858205+846371920+845631883+844119578+844480324+848692176+852339947
1538+849723583+844138413+840689939+840271807+840747967+840285144+839389683
1528+839387869+840715034+842571005+843970821+844976022+846489029+848938679
1518+851769257+854368600+856600175+858469133+859772138+860442623+861110417
1508+863130411+867751561+873731640+878046679+880169042+881632152+883973934
1498+887098047+889028835+889055977+889384258+892233731+897535661+902884564
1488+905708883+905905080+905173057+905079521+906535319+909013457+910596893
1478+910519561+910518801+912453976+915549776+917281384+917122216+916915548
1468+917777725+919471661+921044101+920809882+918094951+914464962+911929849
1458+911559626+912776700+913693337+913319604+911753950+909703538+908235280
1448+908308342+909956944+911599111+911439942+909592278+907559648+906017685
1438+904563233+903435833+903689590+904915205+905251442+903959317+902511416
1428+902911238+905231436+907967133+910118218+912187116+915005351+917922738
1418+919219484+918853472+918687518+919444344+920054343+919666279+918860609
1408+918862188+920287919+922173489+921987471+918268275+912993546+909736530
1398+909930269+911945584+914129486+916471503+918573802+919003106+917429321
1388+915352819+914181898+913857185+913912698+914617228+916708237+920526876
1378+925393536+929905824+933509022+937461150+942631639+947164225+948314087
1368+946129133+943861465+944595886+948815401+954363893+958164340+959226809
1358+959633416+962376016+968284963+974445560+977197168+977267598+978469288
1348+981791352+984384727+984371507+983401638+984188882+988135628+994460366
1338+999898184+1001228156+999506141+999223136+1003267220+1010320121+1016804320
1328+1020511348+1021912218+1022782409+1024378422+1026373498+1027677264
1320+1028484747+1030061807+1032105434+1032980656+1033391183+1036429716
1311+1042860567+1049617827+1054653189+1059422979+1064982351+1070459010
1302+1073741823+1072773475+1069303357+1067102258+1067101790+1066202818
1294+1061785294+1056245693+1053040914+1051167979+1047803505+1043660562
1285+1040710710+1037425908+1031726846+1025442821+1020655249+1016205318
1277+1011597914+1009401845+1011087007+1014796960+1018237012+1020095790
1268+1018884917+1014124721+1007671174+1001389138+995577880+990774748+988565342
1258+989106784+989139776+984637314+976039409+968060805+963930790+962296520
1248+959551639+954110721+947479111+941161626+934233381+925055953+914336270
1238+904491224+896307999+888291196+879465390+871038528+864559476+859860116
1228+855642064+851052093+845913601+840457533+835537583+832143159+830302807
1218+829217174+828561723+828837708+830344807+832699635+835373852+837962841
1208+840008223+841256417+842220378+843957250+847052817+851121177+855364558
1198+859375825+863106077+866228317+868478846+870484743+872868468+875102676
1188+876044584+875663188+875745785+877992745+882211090+887028904+891475970
1178+895682088+900652286+906946372+913488249+918687460+923068775+928856517
1168+936737082+945169677+952314007+956800148+957576803+955369386+953059367
1158+952587828+953394434+954820398+957409036+961422058+966162716+970445173
1148+973223397+974169575+973846266+973172388+972571104+972412579+973520558
1138+976544642+981478631+987111357+990915256+991207620+989551941+989466302
1128+993263766+1000451091+1007660410+1010913975+1009508075+1005929621
1120+1002354678+999088010+996367229+996620050+1001825871+1009892630+1015661887
1110+1015702132+1012242660+1009749197+1008638703+1006653806+1003926240
1101+1002879156+1005121670+1010552468+1016633862+1018689539+1014324544
1093+1006528624+1001577379+1003528231+1010743283+1017316046+1019278597
1084+1018691411+1018950316+1019477133+1017161615+1011770946+1006264454
1075+1001594460+995872116+989394703+986221746+988702691+994047616+998573710
1065+1000436233+997236367+988098190+976813316+968597742+965252631+964743362
1055+964527277+963660186+961858909+959163984+956562828+955302817+955635193
1045+957082802+959456699+962217023+964354537+966482808+970763042+977234021
1035+982480906+983547996+981202879+978336735+976635077+975547748+973779170
1025+970853828+967510881+965256316+965927678+969459276+972177073+970984860
1015+968569196+969981122+975128680+978771187+977542180+974469368+973723774
1005+973372153+967604592+956136975+945044904+938151114+933643622+928154503
995+920815439+912944350+906144856+901897263+900681183+900532369+898492602
985+893775518+887590820+880655556+873579140+868330733+866343204+866156192
975+864774450+861039636+856314947+851943869+847876386+844158302+842169895
965+843053716+845561453+846904762+845648554+842598147+839604481+838286793
955+838927620+840330128+841388502+842553690+845042064+849142480+853850381
945+857746294+860284566+862672970+866941446+873877646+882261806+889462877
935+892784181+892069181+890920489+893365166+899837257+907469563+913765112
925+918634462+922799341+925707251+926054369+923760728+920540974+918392287
915+917626688+917062140+916280805+916273434+916925843+915751413+911551085
905+907884946+909346359+915474842+921008301+922244445+920448901+918553445
895+917981292+918890735+921415845+925748082+930928808+934988978+937241437
885+939316419+942933597+947598853+951368180+952769810+951771629+949707528
875+948336316+948379135+948769072+947904730+945846888+944792375+946980372
865+952034804+957293096+961861307+967674203+974653983+978308481+976168686
855+971571052+967803538+965408055+963969163+963485457+964502123+967320651
845+971706236+976312178+978895550+978332640+975589222+971732326+967113106
835+963324534+963366066+968020618+972978648+973726699+972660838+975998403
825+984672997+992240197+992814046+988996811+986838999+986768803+984643515
815+979914381+976834784+977811555+982013989+989252440+999985694+1011240619
805+1017140674+1016143663+1013432358+1013204223+1012793111+1007866785
797+1000301925+996286387+997540197+999768439+999069291+995440998+991260267
787+986003437+976356869+964735991+959433652+963372676+968763404+966946567
777+959571176+953423916+950787019+950257861+950893658+951899677+952630881
767+954540552+959303263+964433799+964992147+960659266+956743582+957684436
757+962878499+968474432+971633701+972449608+972324133+971516474+968910698
747+964432103+960539232+960704308+965542305+970920690+972624570+972537528
737+975777989+982600356+987642036+986705393+981915013+979200258+980998376
727+983805263+984434449+984109678+983490436+979961704+972524483+964395309
717+959331400+959348773+964630055+972584734+979203416+983702660+989785809
707+998917083+1005345126+1002905830+993752678+984616841+980341345+983754137
697+994399179+1004663878+1003439199+989580955+972982509+963324592+965062693
687+975726396+986016774+986729026+977838112+966654378+960775264+962118691
677+965084044+965419989+964221165+961997545+955138677+943989514+934986755
667+930674700+927131461+923789099+926686363+938868278+952483646+956740130
657+952547232+946739308+940389124+933869125+932640000+940356659+951203805
647+955484799+951972681+947734564+946620970+947389553+950999361+958737487
637+966184594+968415994+964897383+959078462+952961736+944999745+936229919
627+927541403+920429773+919519453+923281526+923203141+918205626+912579918
617+907639495+905775101+909626849+916496890+922750672+927110519+930211000
607+930132497+925529774+921478553+920787887+919270961+911765825
##END=
