##TITLE=<SNM>
##JCAMP-DX=4.24
##DATA TYPE=INFRARED SPECTRUM
##DATE=29/4/2025
##SAMPLING PROCEDURE=Instrument type and / or accessory
##ORIGIN=Admin
##XUNITS=1/CM
##YUNITS=ABSORBANCE
##RESOLUTION=4
##FIRSTX=4497.3318
##LASTX=599.83466
##DELTAX=-1.4281778
##MAXY=2.070586
##MINY=0.42500386
##XFACTOR=1
##YFACTOR=1.9283835e-09
##NPOINTS=2730
##FIRSTY=0.43769935
##XYDATA=(X++(Y..Y))
4497+226977340+227050410+227806910+229046552+229607738+228673556+226935072
4487+225906834+226434066+228107672+229701702+230211965+229685119+228768540
4477+227627297+226142856+225007316+225322899+226938132+228231215+227813386
4467+225955948+224312186+224422068+226419245+229087104+231229060+232663723
4457+233598322+233874542+233247287+231831263+230066027+228633559+228185300
4447+228568650+228777843+228231215+227618148+228011606+229475060+230879401
4437+231075566+230029771+228648921+227772555+227558154+227621255+227563207
4427+227381307+227281193+227231599+227091009+227003938+227055200+226875356
4417+226307184+225805205+225550822+225080370+224250800+223565081+223368190
4407+223635616+224501890+226114497+227871016+228604319+227878867+226483227
4397+225338925+224533773+223740753+223026536+222739916+222919281+223172041
4387+223012117+222302026+221485701+221202913+221486520+221613912+221114961
4377+220600278+220920466+221813137+222273868+222158747+222383456+223447348
4367+224732086+225485202+225717871+225669127+225055921+223657839+222188883
4357+221595984+221764408+221863596+221675885+221685714+222228648+223230830
4347+224283873+224682291+224105342+223284241+223182627+223624040+223476032
4337+222263606+220892864+220393851+220665125+221016469+221369961+222133000
4327+223199055+223912994+223949019+223699536+223831379+224463362+224720140
4317+223680867+221846472+220718644+220929615+221781254+222531805+223163046
4307+223910058+224860853+225942982+226791623+226892727+226199481+225270801
4297+224568948+224004609+223316139+222560210+222155424+222587503+223927769
4287+225508322+226335002+225998186+224979560+224029908+223482739+223188917
4277+222877137+222502194+222343583+222829738+224138554+225789982+226865094
4267+226928736+226437744+225993642+225672713+225357007+225230341+225569461
4257+226278408+226968655+227415709+227695004+227900101+227991871+227873164
4247+227459461+226877519+226564394+226755366+226992733+226717626+226143227
4237+225899168+226173549+226758998+227436202+227843816+227503599+226431222
4227+225370081+225062396+225397080+225551966+225102146+224647581+224911282
4217+225628312+226042324+226149300+226636954+227719067+228615941+228272046
4207+226513935+224476390+223646496+224455480+226029697+227258582+227765600
4197+227766373+227365281+226431176+225154119+224266425+224351487+225102424
4187+225668463+225723496+225771993+226296057+227026841+227345190+227157324
4177+226989719+227252725+227865205+228664453+229639188+230587016+231073958
4167+230970367+230624602+230423754+230520793+230918346+231453507+231743064
4157+231450803+230685230+229977457+229756581+229910230+230058362+230123132
4147+230249365+230299129+229998599+229517854+229284552+229358425+229502956
4137+229591495+229557526+229281647+228763022+228174064+227750146+227719855
4127+228114147+228636372+228912406+228765634+228262449+227771118+227790853
4117+228315582+228729872+228721681+228727276+229079995+229410352+229302325
4107+228975801+228905297+229099746+229163867+229000420+229012753+229469018
4097+230064745+230331181+230165833+229821598+229680946+230017979+230707747
4087+231358292+231806907+232054071+231858247+231058179+230123302+229822154
4077+230511845+231949336+233494684+234490421+234668705+234128027+233083747
4067+231934067+231200670+231039665+231165527+231373854+231670180+231918968
4057+231884210+231610124+231433895+231573836+231797819+231662669+231181352
4047+230941807+231347025+232067610+232416574+232092507+231471326+231161369
4037+231266445+231327336+231139084+231163054+231784204+232595553+232810279
4027+232201091+231361058+231086214+231652299+232638455+233364263+233497404
4017+233234151+232882451+232454654+231813166+231005356+230354162+230382305
4007+231425751+232998577+233998858+233953437+233489491+233331808+233539131
3997+233795445+233742560+233088677+231957326+230942857+230491337+230592101
3987+231173996+232228352+233400195+234081756+234130979+234017450+234188841
3977+234721699+235491908+236228951+236517643+236110508+235168398+234123035
3967+233484252+233631086+234514608+235666544+236592242+237073512+237128129
3957+236813907+236147274+235322835+234978399+235808618+237631113+239175225
3947+239326324+238430377+237789769+238017740+238398942+238046022+237098935
3937+236320489+236239955+237039064+238598089+240200542+240798031+240156589
3927+239187635+238815504+238995797+239193786+239527048+240605699+242275472
3917+243309938+242748536+241089349+239592189+238856289+238527740+238299492
3907+238865855+241304647+245374869+249060225+250675119+250439792+249027925
3897+246643688+244007511+242425103+242577624+243649676+244032609+243524231
3887+243676366+245357374+247171956+247559881+247147522+246875167+246287151
3878+245271756+244913535+245766425+247314246+249287469+251638294+253141574
3868+252782256+251544593+250551560+249479353+247877689+246359525+245502709
3858+245433874+247035446+252066308+259331699+262070340+257886465+251323871
3848+246435330+244846925+246215056+248975334+251735596+254330803+257012602
3838+259008822+259218370+257977415+256423892+255041280+253827154+253040038
3828+252809085+252570977+252152235+252808513+255519073+258552758+259578632
3818+259233361+258647927+257227081+254725173+252335743+251282205+252174830
3808+254538713+256455141+256978015+257841817+260374541+262789070+263086168
3798+262158523+261127766+259802414+258304913+257586569+258093525+259369191
3788+260942589+262654306+264199298+265405651+266868672+269255908+272058005
3778+274075196+275276541+276983714+280550720+286429357+293583861+299936398
3768+304548163+308271198+311805811+315303487+319582794+325624167+332889326
3758+339696505+345714635+352475171+361799527+374091221+386116199+393134023
3748+396168774+400235426+407263728+413067936+414080643+413708311+416537609
3738+423888973+433353533+440718312+443819331+443308867+440735714+437897019
3728+436556027+437600385+440239437+442462266+442891038+441975571+441277550
3718+441650438+442677641+443997924+446073441+449002575+451529613+452642897
3708+452972883+453637924+455262260+457674007+459667676+459992686+459197208
3698+459167566+461044708+464552492+468905888+473771015+478887341+482666754
3688+482777440+479417061+475636072+474050743+474794076+476357243+478327855
3678+481955133+486357798+487290326+484719460+483882410+486724658+489172816
3668+487380055+483251307+480219400+479125959+478774801+478309866+478421509
3658+479961309+482046841+483110114+483931895+486927917+492380781+496414020
3648+495297335+491212571+488337064+488157204+489827378+491777682+492981531
3638+493344095+493175145+492794345+492935414+495011827+500264710+507450772
3628+511637413+510247182+506985621+506307474+509612989+515221573+519975798
3618+522159095+523174275+525111164+527827520+529612274+530087780+530396377
3608+530744538+530600686+530713381+532421419+535637823+538523746+539383143
3598+538599535+538062273+539154663+541684513+544896898+548671521+552717154
3588+555322175+554648542+551310109+547760629+545975936+546635166+549107772
3578+551807313+553380526+553895596+554534796+556236529+559143285+563044573
3568+567203705+569699802+568861176+565639703+562742158+561525513+560631250
3558+558209953+554950215+553379537+554715924+557766531+560728923+563171671
3548+565463830+567287963+567910040+567343599+566252136+564961990+563534544
3538+562607085+563304024+566137031+570218581+573710385+575068470+574064047
3528+571902633+570235210+569917464+570692541+571637804+571809041+570828418
3518+568802448+565484601+560441654+554814338+551666739+553128493+557863956
3508+562775849+566669162+570039246+572214816+571775535+569381623+567638905
3498+568186924+570168570+571647324+572000306+571839084+571329640+570400697
3488+569584696+568983205+567604040+565185710+563338457+563581464+565574237
3478+568026815+569894282+570455036+569732566+569090336+569919133+571414269
3468+571407655+569710002+568500219+569040078+570310195+570961451+570577250
3458+569095900+566853566+564998153+564505956+565135761+565905151+566011354
3448+565356143+564601527+564344734+564232472+563460177+561719684+559389507
3438+557288985+556587409+557793174+559649824+560440417+559917373+558660670
3428+556675933+553990919+551862455+551971935+554347672+557015254+557833851
3418+556237271+553257384+550382341+548606241+548296160+549355354+551117113
3408+552620471+553477704+553963843+554177981+553948759+553501752+553287551
3398+553329279+553394744+553607708+554349836+555422939+555818205+555006346
3388+554088407+554665851+557077505+560253232+562516274+562573332+560599476
3378+558243026+557033984+557338625+558563615+559473024+559165972+558375626
3368+558686448+560528632+562991409+564953768+565641187+565215692+565189604
3358+566845159+569475958+571249153+571355789+570707378+571106167+573689737
3348+577459352+579938511+580015351+579082700+578791845+579115463+579015256
3338+577883982+575862711+573450624+571532466+571186840+572687107+574968571
3328+576530842+576682235+575657598+573960254+571785426+568979990+565955347
3318+564409767+565926354+569733369+573107348+574457273+574662509+575003437
3308+575324583+574766858+573425650+572396809+572576638+573530061+573717555
3298+572360027+570535214+570024162+571611408+574383153+576339453+576077096
3288+574137796+572340678+571812564+572309088+573194140+574297287+575764049
3278+577567967+579685551+582324449+585057062+586407297+585576212+583745094
3268+582381198+581274218+579684686+578559223+579531995+582141467+583885916
3258+583115599+580661290+578541048+577898200+578342611+578868314+579115463
3248+579467085+580021286+580177872+579499293+578339397+577233098+576190533
3238+574921095+573424228+572276201+572196456+573311039+575275314+577581876
3228+579391358+579899133+579385114+578948245+578899779+578451968+577076017
3218+575399136+574478105+574621029+575204099+575386401+574795851+573693075
3208+572784533+572588940+572812784+572592154+571476149+570018970+569268125
3198+569620242+570371334+570674552+570576323+570665032+571035942+570989083
3188+569636747+566920639+564160392+562975893+563564959+564645356+565089582
3178+565028444+565048288+564870128+563592159+561052418+558257677+556266573
3168+555238906+554981186+555575939+556739730+557385483+556629446+554684767
3158+552329554+550176672+548588746+547594214+546817839+545884321+544900175
3148+544289163+544183516+544212694+543998061+543646748+543588639+543881534
3138+543841537+542800580+541046302+539653536+539335234+539533609+539073372
3128+537855923+536984843+536909053+536721435+535721401+534330058+533114649
3118+532117521+531337931+531045098+531353880+531937939+532144968+531428618
3108+530115846+529337863+529620064+530035173+529512191+528445640+527898425
3098+527880498+527586243+526843559+526136729+525639339+525424768+525967100
3088+527322526+528361939+527738192+525402143+522638372+520870803+520669337
3078+521550062+522526049+522788962+522072921+520742283+519523474+519090190
3068+519503507+519831947+519032143+517355694+515988089+515317422+514642460
3058+513654264+513036793+513245862+513722233+513803710+513712837+514051848
3048+514740473+514994020+514194308+512504105+510674748+509395327+508885295
3038+509054616+509614102+509928447+509471487+508465704+507297339+505668274
3028+503336582+501144414+500180235+500356633+500719166+500779903+500744450
3018+500664674+500241528+499527094+499075636+499248294+499874327+500522708
3008+500654134+499734834+497718941+495358473+493769682+493630221+494640918
2998+495671737+495698566+494638507+493186922+492138670+491852699+492016950
2988+491976799+491360223+490112051+488242544+486195216+484974491+485160966
2978+486182018+486992517+487192128+487146506+487260530+487456617+487278704
2968+486376405+484921142+483535022+482731169+482484576+482428506+482302675
2958+482050951+481677229+481176718+480521444+479690545+478783146+477970360
2948+477248786+476453093+475651248+475296659+475693594+476411983+476545202
2938+475563590+473667439+471431071+469560543+468791617+469404236+470828034
2928+472071910+472562437+472371605+471824606+471192792+470616492+470025447
2918+469152605+467907091+466676660+465958703+465832037+465948256+465775937
2908+464939845+463728826+462993745+463148971+463680237+463936535+463858737
2898+463654366+463263242+462423534+461157898+460039049+459714349+460175513
2888+460834094+461225372+461219747+460745725+459759723+458424666+457096624
2878+456050659+455232124+454451514+453826655+453671522+453951466+454267450
2868+454309950+454010781+453436860+452746690+452059457+451341036+450587626
2858+450038495+449972998+450317697+450679148+450801363+450726470+450437006
2848+449769462+448863546+448187656+447862090+447410014+446449389+445295644
2838+444587640+444471607+444443788+444050624+443388087+442737110+442145417
2828+441588651+441118183+440734261+440505317+440663293+441099638+441108416
2818+440216966+438908768+437940540+437368690+436787567+436084045+435471704
2808+435117764+435049702+435174049+435215807+434852594+434051461+433166780
2798+432603368+432434295+432439148+432380081+432067280+431420321+430695503
2788+430244446+429888898+429124268+428024861+427249691+427114093+427218844
2778+426948204+426032861+424769543+423742835+423224458+423002623+422803321
2768+422571657+422360702+422213606+422109937+421935115+421597093+421157750
2758+420767213+420450982+420024004+419379919+418754442+418369284+418021309
2748+417453693+416833038+416442161+416270183+416159436+415942670+415353480
2738+414192904+412660306+411366141+410926861+411395845+412102180+412255242
2728+411652483+410704593+409994889+409840003+410052596+410132404+409741187
2718+408902282+407828097+406725785+405733201+404943132+404468492+404366368
2708+404471181+404494147+404312432+404023524+403746362+403497327+403298273
2698+403268043+403394153+403311409+402675917+401711089+400971032+400652730
2688+400512340+400294060+399911189+399355937+398714480+398196011+397957454
2678+397908092+397773761+397370026+396790325+396307216+396072245+395949195
2668+395734253+395461171+395250835+394980658+394467876+393850188+393420860
2658+393248696+393192874+393083147+392766545+392205668+391571845+391054952
2648+390662406+390348771+390156207+390076894+389960800+389685430+389301199
2638+388964970+388820006+388881577+388978600+388933937+388774569+388590938
2628+388331889+387940641+387469617+386921196+386271579+385702295+385484633
2618+385651326+385986814+386234117+386250623+386107730+385992223+385891552
2608+385532851+384764883+383851086+383219612+382993018+382943532+382896334
2598+382899641+382963963+382949992+382754925+382413781+382072544+381901431
2588+381888418+381832133+381664883+381481098+381218123+380778317+380389202
2578+380341293+380508758+380525357+380258055+379859110+379547856+379460259
2568+379549030+379585101+379341877+378795960+378139172+377644503+377553692
2558+377940025+378547235+378915517+378823748+378473918+378142078+377831812
2548+377392624+376852518+376496074+376617825+377248649+378106749+378746567
2538+378811229+378318136+377679183+377293406+377197402+377219409+377291366
2528+377452001+377690434+377933905+378152061+378373463+378556693+378567202
2518+378397047+378236196+378156141+377960579+377542502+377136758+377045329
2508+377306388+377731079+378114878+378331829+378300920+378010961+377628863
2498+377427057+377518764+377782605+378067494+378319496+378470147+378336960
2488+377770705+376940269+376325796+376263297+376605585+376967995+377134966
2478+377114071+377032904+377071231+377288646+377519166+377572763+377448971
2468+377295909+377299835+377578944+378020048+378305927+378246798+377977054
2458+377725083+377537001+377314826+377014111+376717754+376528220+376437316
2448+376371603+376358807+376529487+376896162+377249144+377381064+377309757
2438+377154253+376937178+376687680+376561756+376635567+376741833+376723689
2428+376687494+376813974+377066440+377266669+377381373+377575730+377959374
2418+378389042+378622405+378618047+378554622+378576629+378643300+378651862
2408+378642620+378779424+379087650+379363235+379442579+379398719+379414637
2398+379675572+380323829+381234350+381960282+382205762+382211944+382440702
2388+383032118+383690142+383951942+383539831+382588293+381552498+380835530
2378+380498589+380330166+380186314+380265905+380998946+382526073+384296579
2368+385542619+386330832+387524543+389383850+391010381+391632242+391547551
2358+391288996+390860410+390385058+390679035+392306370+394457274+395644926
2348+395251947+394108681+393805709+395044980+396802473+397797128+397908525
2338+397797499+398014605+398636373+399366354+399846681+399930105+399674487
2328+399160684+398452989+397654452+396850413+396107017+395580388+395391007
2318+395353824+395136934+394690607+394210526+393740213+393160945+392539981
2308+392140728+392082557+392259326+392561123+392956821+393421787+393941771
2298+394519463+395095362+395577297+395952719+396232138+396376947+396413450
2288+396454745+396527691+396558136+396511803+396365819+396068412+395707331
2278+395519280+395574824+395664955+395608577+395439844+395233278+395011258
2268+394897667+395083647+395519651+395900977+396100526+396366561+396944376
2258+397734136+398466125+399049442+399615079+400281820+400987568+401608749
2248+402155006+402651190+402916668+402787314+402463201+402252648+402095877
2238+401689700+400900621+399820687+398677884+397848376+397655750+398047338
2228+398660358+399171039+399431170+399424246+399299775+399331117+399663421
2218+400181489+400729662+401366916+402264610+403421631+404676479+405987985
2208+407478113+409165813+410897497+412596232+414359906+416297198+418463680
2198+420888903+423447591+425827130+427842405+429660170+431527329+433411271
2188+435062436+436365534+437492079+438653582+439828191+440878545+441802511
2178+442613999+443118900+443152591+442971463+443039772+443377207+443459395
2168+442945469+442147673+441507236+440984408+440238757+439065292+437458852
2158+435546195+433525017+431516665+429560581+427696885+425874668+423932895
2148+421727189+419154035+416420525+414474394+414445617+416417743+419425541
2138+422662932+425960132+429266821+432467924+435557879+438554920+441440442
2128+444266834+447135355+450168684+453525817+457211050+460956247+464512620
2118+467947551+471510662+475267542+478978306+482445197+485900436+489811553
2108+494373523+499478752+505159757+511810782+519859209+529265907+539430867
2098+549548042+558880063+566790388+572903533+577263079+580082548+581448669
2088+581389509+579994271+577326567+573339351+568018964+561600931+554540113
2078+547389039+540790498+535225248+530575836+526277489+521967953+517740018
2068+513914148+510721050+507972085+505164455+502134526+499141627+496224083
2058+493160989+490015986+487087253+484509216+482255477+480255070+478441631
2048+476867182+475593108+474534409+473747030+473618231+474448914+476180381
2038+478693324+482070826+486629304+492883982+501223140+511441542+522757620
2028+534306072+545554212+556283511+566154958+574542829+581182913+586590402
2018+591307011+595167870+597649934+598482441+597831742+596240911+594232065
2008+591803041+588535884+584146789+578707525+572498129+565861631+559118310
1998+552581031+546616064+541437487+536801984+532192939+527386137+522629841
1988+518320213+514787115+512279643+510830839+510174144+509967238+510029458
1978+510298121+510721947+511265391+511899121+512612256+513529577+514904569
1968+516796795+518780295+520217941+520967920+521662942+523113446+525485103
1958+528189157+530547585+532399907+534061890+535924289+538235302+541092912
1948+544418858+548032135+551824313+555602397+558823376+561083265+562798104
1938+564710142+567007803+569446162+571922848+574476993+577014755+579338565
1928+581379618+583440762+586046464+589179474+592003085+593963898+595551947
1918+597252134+598627590+599267594+599725853+600719458+602183994+603602661
1908+604835997+606124722+607438236+608351848+608684801+608894736+609527631
1898+610505225+611274244+611541793+611710372+612574405+614448735+616531021
1888+617505462+617034777+616050198+615596143+615930765+616564773+616952003
1878+617044607+616998614+616669493+616043460+615816834+616671286+618069800
1868+618476317+617172694+615044168+613242042+612047899+610958414+609391878
1858+607237883+604798040+602434543+600451043+599080965+598266262+597649193
1848+597174799+597348014+598167044+598172237+596067882+592701013+589661038
1838+587513101+585904776+584479495+583562977+583823541+585029244+585638092
1828+584590273+582554598+580353868+577906360+575125281+572411954+570086042
1818+568248680+567118952+566974854+567740843+568760597+569108820+568465353
1808+567539192+567263978+567965862+569397263+571041258+572354896+573123235
1798+573594166+574253582+575617972+577734876+579410089+579119976+577449894
1788+576497028+577369283+579620827+582259539+584739069+586875261+588469306
1778+589661842+591222506+593899298+597406494+600145661+600813545+600072901
1768+599226423+598966354+599887261+602352263+605374434+606971632+606746057
1758+606219366+606394929+607371101+609758955+614391738+620333152+624662037
1748+625893704+625591598+625576514+626238588+627331040+628772641+630508559
1738+632663729+636020522+641012964+645531198+646342933+644260215+642236780
1728+641604688+642336431+643924294+645760729+647888946+651426928+657329891
1718+664241727+668206997+667443542+664705982+662867755+662894213+664727062
1708+667904459+671474092+674391048+677037425+681262146+687875710+694468997
1698+698185695+699242107+698300554+696076766+694651670+695498147+698259630
1688+702229660+708107339+716343941+722982541+723283101+720105458+718369848
1678+719794574+723517578+727314702+729952425+732875377+737529117+742207584
1668+743823018+743116436+743391712+745545275+747163182+746165002+744235408
1658+744406830+748205808+756030330+766364548+772670813+771737852+769259744
1648+768721184+768676922+766164195+761486223+757351200+755676358+757020349
1638+760504673+763569622+762815006+757958688+752610235+749577555+749272606
1628+750589829+752476646+754669710+755981184+754371313+750782269+748866089
1618+750308123+752680770+752376377+750031549+748503649+748654671+749304813
1608+748930009+747334913+745790013+745551271+746525650+747624717+748367587
1598+749478646+751715292+754798168+757645950+759415806+760296654+761121372
1588+762227547+763316105+764493619+766341490+768690707+770669077+772358569
1578+774799216+777459193+777453135+774427935+771658663+770661967+769566981
1568+766529850+762943032+760913848+761192030+764576579+772213606+781569427
1558+783549527+776877854+769761894+765163976+762370533+760748546+759733985
1548+758932696+759240057+762231813+768141699+775282140+780760782+781157223
1538+776914698+773041785+772650722+775127718+777628637+778919093+780799542
1528+784598088+789506766+794493212+800063036+806327945+811189579+813652789
1518+815785704+818768064+821733053+824513885+828357682+834085513+841558845
1508+849773501+855305431+855060198+852580668+852341988+855084431+859849567
1498+865311704+869822334+872787941+876145599+881899766+889042741+894012804
1488+894966475+894040932+894096568+896512240+901342780+907544881+913775171
1478+919374359+924200201+928317976+932065584+934888515+935391035+934440332
1468+934243565+935350915+936609967+936999608+936904222+937416696+939536134
1458+943384815+946277476+944607085+939538174+935007144+933235000+933638673
1448+933961303+932666643+930066444+927231830+925111464+924674780+926583295
1438+930127768+932724629+932558461+931634649+932566436+935056289+937032248
1428+937760776+938325857+939351730+940476266+941643827+943440946+946095483
1418+948659395+949889702+949724956+948733701+947363808+946080090+945673574
1408+946687269+948114405+947739354+944832907+941230634+938738988+937627867
1398+937907100+939809000+943059280+947093663+951023449+953292982+952947542
1388+950908652+948915261+947919431+948603141+951697082+956842895+962876665
1378+969238319+975612646+980570841+982548160+982162166+981482722+981713551
1368+983014207+985474574+989350702+994217405+998117642+999014872+997192903
1358+994513267+992242745+990876932+991188929+993822819+998221249+1003027124
1348+1007142859+1009986931+1011504940+1012771164+1015604479+1020200543
1340+1023827296+1023973805+1022181076+1021962981+1024460747+1028013380
1331+1030818940+1032697473+1034296216+1036394142+1039464469+1042559091
1322+1043955565+1043319084+1042424080+1043286197+1045858207+1048631374
1314+1050848052+1052776782+1054898013+1057861704+1061846385+1064960788
1305+1064658126+1061846261+1060361263+1062337345+1066862317+1071652119
1297+1073741823+1070660431+1063451310+1056231433+1051338271+1047465358
1288+1042908487+1038182235+1034582373+1031685817+1027502205+1021279086
1280+1015330934+1012538109+1012714723+1012917796+1010961558+1007427965
1271+1003891281+1000648852+997100485+993243644+989159559+983878983+976844808
1261+969301127+962663825+957054932+952088639+947984093+945227988+943507339
1251+941656500+938194925+932223653+924175474+915198969+906131098+897365764
1241+889099428+881256980+873601469+866200341+859546967+854269172+850669124
1231+848141871+845349602+841702449+838197354+835855308+834043291+831579525
1221+828947490+827770408+828227616+828657995+828260132+828613362+831551769
1211+836702094+841931918+845705861+848418384+851484445+855275882+858300278
1201+859371156+860099375+863266942+869109137+875012038+878921548+881474085
1191+884108903+886841084+888862355+890200226+891749638+894264343+898105791
1181+903274662+909088977+914515630+919566738+925553712+933297560+942081253
1171+950600055+958258162+965354773+972050123+977415390+980244626+980564536
1161+979195323+977118044+976433036+979447912+985499919+990998714+993782885
1151+995041257+996348589+997634223+998244617+998186446+998157824+998805432
1141+1000001924+1001076634+1001425104+1000719758+999647273+1000751841
1133+1006260342+1014049379+1019057647+1019876244+1019329214+1019293236
1124+1019622727+1020186510+1021025322+1022218290+1024260023+1026410124
1115+1025558701+1020344703+1015200435+1015583956+1021417126+1027659285
1107+1030130964+1030246564+1032195941+1036718008+1041527344+1045026875
1098+1045802694+1041960566+1034878482+1030388314+1032558876+1038393035
1090+1041262886+1039275429+1036575393+1036164735+1035807734+1031677162
1081+1023139629+1012649505+1003304379+996416342+992088879+991241351+994001288
1071+997122121+996222047+991015714+985356006+982576843+982913691+984215460
1061+984031365+982246796+981722515+984712046+989509080+991896068+989099781
1051+982266948+975729050+973209709+974767282+977414154+978798450+979374225
1041+979875015+979137276+976066825+971714882+968592937+968771283+972225501
1031+975903625+975918709+972073366+967958496+966116683+966207556+967646376
1021+970531619+973668030+975087253+975326181+977383616+982569672+987804936
1011+988057093+981521915+971324933+962175584+955881127+951020234+945902981
1001+940085513+933497913+926062847+918536289+911938551+906327803+901049143
991+895488530+889661912+884417190+880549161+877801648+875596468+874397936
981+874773852+875153787+872412210+865684344+857854630+852065598+848736315
971+846612796+845074202+844295972+843905899+842939556+840934048+837836212
961+833477654+828488489+825077234+825593788+830176313+836234439+840653579
951+842740563+844494717+848059034+853672069+859690200+863960481+865868130
941+867535739+871873217+879082708+886596345+893086396+900287789+909293348
931+918020540+924615991+930125789+935348813+938287715+937331634+934117579
921+930933259+928476231+927288888+928159598+930256350+931525602+931417667
911+930898332+930341597+929394974+928153602+926980353+925953799+925540792
901+926722324+929465076+932356686+934549441+936657877+939000479+941024470
891+942773061+944274070+943928506+940985649+938144667+937626816+937688943
881+936456225+935897759+938938908+945249253+951968711+956907310+959283912
871+959283109+958528431+959227781+961541947+963096553+962112283+960189240
861+960100099+962008428+963991928+966033785+971535980+982431941+993962405
851+998061264+993868936+988142402+984681569+981530013+977623903+975594039
841+977301397+981582249+986401538+990299673+992015377+991773668+992831316
831+998091678+1004942253+1007272801+1004197467+1001206576+1001489766+1002955971
821+1003924292+1006752971+1014190634+1024490173+1031657628+1030852321
813+1024346198+1020414866+1024613562+1033588397+1038999720+1037359929
804+1032275687+1026400357+1018674003+1009990640+1003522288+1000692805
795+1002676738+1009315647+1015287104+1015599967+1011772057+1007795969
787+1004263674+999876618+994623798+989304832+984009481+978347115+972074479
777+965340370+958830723+953991652+952787061+955940719+961102049+964803231
767+966507436+968250711+971656711+977178255+983341473+986938492+987190525
757+987279914+990162251+995398752+999850840+999994444+995444435+990284652
747+988875072+991897675+997405434+1003591524+1009397865+1013900521+1015467243
737+1012481236+1006717117+1003528655+1006636939+1013633219+1017160259
728+1011802101+1000433354+991909668+992312167+999238716+1005564268+1008725963
718+1012442538+1018443730+1022540796+1020911638+1015698134+1010655496
710+1005620276+999184501+993662957+993549150+1001276802+1014420042+1026251869
700+1031569660+1030795696+1024799017+1010635776+989523545+970924227+963163316
690+966259545+973135404+976859768+977732889+980882900+987874914+993792590
680+993458648+987905885+981366998+975435166+968549479+960053982+951791726
670+945467533+941858399+941823039+944434612+949107763+957824507+968992097
660+974888198+971317082+963838372+958298344+955969774+956871393+960147637
650+961555609+959321436+958191151+959419480+959742789+958565090+957751438
640+958092489+956858350+950669972+942868694+939912916+941810799+942041133
630+936068254+929366970+930707005+939144701+944903566+945120177+946654135
620+950830823+950427953+939524945+923117269+910774019+906075090+906587625
610+909203712+914305201+920746477+920861027+911165514+901535282+905418890
600+929079516
##END=
