##TITLE=<SNM>
##JCAMP-DX=4.24
##DATA TYPE=INFRARED SPECTRUM
##DATE=29/4/2025
##SAMPLING PROCEDURE=Instrument type and / or accessory
##ORIGIN=Admin
##XUNITS=1/CM
##YUNITS=ABSORBANCE
##RESOLUTION=4
##FIRSTX=4497.3318
##LASTX=599.83466
##DELTAX=-1.4281778
##MAXY=2.1422338
##MINY=0.40086144
##XFACTOR=1
##YFACTOR=1.9951107e-09
##NPOINTS=2730
##FIRSTY=0.40780538
##XYDATA=(X++(Y..Y))
4497+204402379+204869451+205045372+204895427+204691916+204275424+203442663
4487+202631816+202619478+203758207+205720510+207701664+208805633+208670567
4477+207878631+207421687+207711254+208356263+208752261+208525343+207657269
4467+206643464+206185176+206368865+206627959+206685663+206912074+207564253
4457+208292629+208684967+208738608+208449997+207601283+206373286+205462671
4447+205236096+205392195+205468033+205180617+204593701+204301774+204917849
4437+206168834+207073266+207111312+206710699+206600593+206961502+207143100
4427+206403356+204977241+203854630+203505342+203506014+203414760+203368094
4417+203737354+204644220+205858878+206936034+207441554+207152645+206175855
4407+204977898+204156221+203985932+204321118+204935311+205518119+205426820
4397+204277276+202733676+201810259+201552913+201288112+200921900+201076087
4387+202062750+203402122+204316906+204440709+204031447+203464263+202730211
4377+201816712+201236876+201482601+202239314+202821062+203080335+203306252
4367+203559581+203637271+203494960+203341520+203290672+203114796+202558607
4357+201872624+201672997+202120111+202651400+202696706+202257553+201675163
4347+201271561+201263600+201602043+201952495+202140964+202371363+202735618
4337+202938098+202895108+203155651+204161778+205376181+205817351+205408626
4327+205024758+205133235+205204966+204664580+203719399+202940145+202530434
4317+202311777+202152810+202106951+202222076+202512061+203075226+204001019
4307+205104316+205939810+206228376+206133268+205997096+205926441+205682568
4297+204950129+203832596+203026813+203133035+203812520+204194342+204052882
4287+203892287+204002557+204111841+203895409+203301861+202497825+201877628
4277+201942995+202817357+203946332+204542674+204293588+203584765+203138921
4267+203391905+204144122+204816526+204989042+204686703+204292423+204238916
4257+204623054+205066777+205118058+204838530+204818528+205536448+206802102
4247+207885413+208164897+207601089+206643434+205842760+205556957+205844388
4237+206462629+207026541+207298930+207322486+207225914+207013963+206697837
4227+206538258+206875835+207670609+208458810+208826845+208674944+208024990
4217+207035877+206239116+206180247+206736212+207289728+207573663+207783239
4207+208033430+208299381+208663830+209074810+209125076+208566078+207820942
4197+207558785+207869116+208204392+208097005+207655268+207332375+207407362
4187+207751795+208048741+208209471+208443096+208849610+209184841+209209025
4177+209064698+209096276+209431612+209880922+210243430+210611643+211131803
4167+211577469+211615545+211393706+211334179+211492055+211580083+211415694
4157+211030362+210585458+210318372+210324586+210415691+210402217+210354402
4147+210414825+210606893+210957794+211512520+212068187+212121380+211404386
4137+210419306+210022561+210466165+211267617+211959037+212429977+212591618
4127+212296957+211637474+210918374+210422682+210374612+210788356+211280344
4117+211484437+211580427+211924919+212422449+212697392+212566104+212057013
4107+211337450+210747606+210624953+211109486+212143487+213436777+214542314
4097+215207474+215510500+215609462+215583381+215409432+214971519+214359791
4087+214049401+214347691+214903477+215158673+214968068+214528512+214041424
4077+213610606+213249787+212885621+212447156+211967253+211515388+211070081
4067+210642311+210504406+210947144+211769597+212437088+212770153+213021435
4057+213315498+213489118+213429024+213141563+212556245+211663839+210876623
4047+210879625+211879733+213170961+213784541+213510688+212906534+212493955
4037+212386912+212507982+212768779+213121084+213658960+214519250+215480834
4027+215921331+215505824+214685686+214143239+214058752+214267312+214693588
4017+215190415+215303912+214667343+213473553+212326982+211810825+212196561
4007+213233594+214258424+214872825+215339389+215984607+216618383+216930505
3997+216952912+216717868+216007312+214849284+213768796+213201927+213074822
3987+213210874+213751409+214779779+215749413+215844581+215050091+214395522
3977+214875753+216411989+217986689+218625499+218180699+217196799+216237980
3967+215629628+215658204+216501869+217827184+218755457+218541788+217367896
3957+216217455+215822727+216074263+216693340+217900484+219740537+221240295
3947+221296341+220259830+219555369+219884820+220599886+220739359+220067119
3937+219048325+218498006+219182211+221033139+222741367+222883798+221574465
3927+220215107+219874199+220438201+221169654+221794452+222568867+223498827
3917+224163031+224129331+223287339+222084109+221292920+221247450+221710129
3907+222805210+225227923+228841078+231898866+232902663+232116448+230247386
3897+227557782+224697829+222991618+223431921+225346453+226674697+226736957
3887+226924514+228091879+229280037+229855615+230689571+231630958+230964126
3878+228808977+227578292+228618805+231195958+234347525+237281195+238234114
3868+236616588+234597671+233875748+233512135+232024999+229926973+228635416
3858+229095108+232381965+239385854+246664611+246824997+240411863+233521426
3848+229503579+228731077+230149454+232429661+234760686+237162470+239851282
3838+241991015+242118075+240362151+238174244+236458084+235227862+234411936
3828+234151244+234439421+235477844+238079733+242086093+244677019+243922711
3818+242175107+241524317+240471764+237390285+233773709+232118106+233704861
3808+237690248+241286211+243037997+244633983+247226029+248784582+247809106
3798+246060337+245023722+244404824+243973066+244274598+245555459+247480253
3788+249839645+252528501+255016282+257135610+260087325+265014608+270764479
3778+274893880+277077500+279195962+282894113+288531084+294924082+299856085
3768+302466773+304031226+305750374+308017764+311394306+316333121+322194367
3758+327923893+333832761+341398187+351659684+364069669+375851135+383964505
3748+388768642+392475247+396190069+399394111+401320265+402954178+406223707
3738+412398704+420917752+428823847+432770381+432259094+429856548+428594045
3728+429908919+432887702+434920092+434501807+432679530+430702857+428387875
3718+425401296+422598599+421852372+424796798+430468993+434454754+434003277
3708+431419447+429801936+430147624+432313766+435740290+438981796+440575169
3698+440811274+441504292+444019678+448240827+453540565+459241979+463255404
3688+463002898+459408534+455944396+454786846+456050245+458694303+461928639
3678+465958825+470043981+471144291+468994938+467430993+467954827+467787107
3668+464943720+461246436+458485385+456498943+454823891+453984334+454740330
3658+456660837+458051296+458250386+459177776+463190694+470132980+475561631
3648+474483429+468499395+462783224+459937268+459357268+459400109+459496905
3638+460264612+462120648+464578195+467031081+470139015+475469436+482048378
3628+484841574+481872292+477060866+474166840+474493886+477842644+482615352
3618+486248972+488080810+489959940+493181818+497045568+500444158+502870127
3608+503600639+502370611+500446070+499152647+498578860+498484574+499218850
3598+501191162+504166179+507142602+508860793+509179922+509820628+512558406
3588+516483371+518543934+517600351+515478603+514286755+514772170+516496157
3578+518525292+519838553+519934154+519627632+520662814+524050082+528948146
3568+533084927+534286275+532054108+527415899+521803275+516734563+513726772
3558+513441641+515207275+517981441+520796834+522022142+520407857+517422712
3548+516158566+517849929+520992279+523486812+524327026+523497387+521594327
3538+519490206+517661535+515799882+513574467+511804950+512065881+514341786
3528+516113036+515282919+512773927+510748199+510013683+510267086+511235764
3518+512773748+514512553+515790501+516032552+515150034+513596814+512176420
3508+511820604+513066466+515262126+516642308+515859454+513318375+510413774
3498+508166669+507258817+508342396+511134965+513956991+515582868+516780451
3488+518454128+519505024+518273920+515016132+511491975+508845557+507161662
3478+506698056+507897193+509999343+511129109+510468386+508965835+507564561
3468+506288644+505195804+504810830+505353247+506239708+506455648+505600376
3458+504390603+503528639+502639250+501186352+499785914+499476615+500194430
3448+500894230+500797165+499838465+498214829+496446537+495437736+495366035
3438+495135009+494053909+493187374+493644019+494650998+494743940+493746014
3428+492277461+490531366+488585016+486919823+485992940+485842010+486381977
3418+487586372+489057823+489897649+489600330+488842631+488676703+489147330
3408+489434133+489165673+488755365+488485770+488129476+487595843+487138152
3398+486747114+486081879+485112304+484274390+484069475+484932813+487083242
3388+489916829+491887408+491553192+489057345+486291007+485302312+486560363
3378+488934647+491189609+492851067+493733854+493576740+492382801+490779928
3368+489853583+490479382+492710474+495827191+498790348+500649193+500950665
3358+500112631+499168152+498710641+498492969+498416129+499088743+500902327
3348+503210288+504719591+504571827+503161352+501869541+501576106+501780573
3338+501876413+502331773+503365639+503703350+502306797+500284654+499498155
3328+500260843+501377554+501627551+500716472+499281170+498154541+497739094
3318+498082422+498901574+499645919+500148422+500796060+501697400+502222369
3308+501737492+500350439+498721127+497522707+496946023+496487376+495602259
3298+494583778+494323982+495253793+496935118+498554363+499570931+500046667
3288+500456467+501273946+502654367+504296257+505697949+506526930+506624503
3278+505958880+504935291+504286398+504156560+503951674+503500437+503439551
3268+504010290+504464873+504112165+503164160+502270409+501752012+501411791
3258+500873497+500133992+499760969+500177790+500919146+501286972+501569652
3248+502624970+504271819+505236136+504866757+503830141+502877954+501884957
3238+500473287+498964043+498151165+498241777+498594844+498681990+498589765
3228+498282228+497342827+495828804+494421585+493529537+492939289+492333178
3218+491574374+490679876+490007292+490113559+491099625+492292757+492737242
3208+491983696+490290600+488370660+487147563+487154195+487808137+487817339
3198+486705378+485266073+484205050+483346850+482566566+482467200+483381087
3188+484355203+484039212+482432754+480831226+480019542+479457915+478340935
3178+476790763+475724302+475621621+475673275+474624322+472398309+470139194
3168+468758893+468368721+468894198+470158135+471306902+471095713+469271554
3158+467166686+466338989+466917764+467716781+467710208+466869008+465734372
3148+464758373+463991025+463132288+461929775+460522944+459293095+458390740
3138+457545955+456474086+455324154+454406144+453690271+452997222+452306893
3128+451514957+450547951+449966905+450507828+451826915+452670087+452322517
3118+451077880+449585188+448417958+447816089+447466876+446978682+446575783
3108+446749150+447330435+447525252+446852788+445648960+444618051+444176673
3098+444272782+444570161+444676398+444383679+443851031+443428474+443245219
3088+443122461+442831654+442265964+441504890+440886171+440750985+440941261
3078+440910699+440496716+440123483+440073800+440023490+439519523+438610834
3068+437720399+437019075+436320948+435607584+435127666+434885048+434486810
3058+433603904+432326732+431030560+430089426+429734896+430019608+430774438
3048+431604794+432066368+431922070+431199834+430136151+429175240+428682506
3038+428496771+428155893+427611624+427222109+427053373+426751423+426097033
3028+425280540+424683690+424556779+424739497+424645718+423755612+422279291
3018+421149913+421053774+421542027+421479319+420466126+419319898+418887064
3008+418987236+418956435+418640533+418283403+417874499+417175714+416204406
2998+415282423+414686977+414460492+414476147+414550088+414476864+414050483
2988+413261504+412511573+412351830+412854781+413475024+413661745+413392179
2978+413010193+412723987+412363660+411584780+410265902+408704975+407455378
2968+406855899+406652956+406343866+405883546+405571886+405340024+404840597
2958+404167864+403781217+403762784+403713012+403324184+402704270+402213568
2948+402163467+402564095+403032302+403064478+402531860+401758954+401080395
2938+400587512+400306146+400281200+400416595+400451609+400142608+399427392
2928+398439205+397362019+396327256+395526537+395170273+395094390+394788556
2918+394107756+393533193+393502541+393902244+394325279+394505248+394451173
2908+394304575+394147192+393997815+393923455+393957244+393939379+393609853
2898+392883673+392004651+391273123+390661873+389997086+389445378+389389123
2888+389777473+390026753+389697915+388985477+388426300+388285557+388319675
2878+388152761+387797005+387552685+387453648+387228657+386836513+386566051
2868+386517205+386438573+386137429+385691779+385281261+385078916+385208126
2858+385558385+385733783+385422303+384790170+384280288+384000594+383596620
2848+382867273+382168100+381927125+382084658+382275263+382277742+382055918
2838+381563662+380754995+379799552+379134974+379078510+379393127+379504234
2828+379161713+378650157+378365146+378368881+378363951+378072816+377575391
2818+377100492+376598945+375852300+374907970+374091148+373660046+373620551
2808+373735243+373660674+373261629+372751746+372396319+372233140+372147636
2798+371991269+371604741+370952562+370251149+369847324+369964764+370531738
2788+371167874+371376255+370885791+369856077+368695718+367686140+366887572
2778+366339389+366036005+365745885+365268865+364824708+364730302+364789007
2768+364484428+363722696+362968821+362655668+362702901+362654921+362250887
2758+361704168+361293262+360960510+360552025+360154891+359951739+359958909
2748+360024605+359923537+359439048+358511687+357369911+356414527+355876979
2738+355637857+355451465+355251240+355113126+355041366+354962943+354873705
2728+354879352+355066969+355320670+355325391+354858469+354031250+353202448
2718+352740575+352773348+353012112+352954273+352387060+351570566+350909694
2708+350592089+350490841+350268688+349678291+348949243+348704892+349202974
2698+349848282+349862771+349265981+348676541+348389199+348189483+347811081
2688+347154720+346291591+345475516+344990370+344932471+345144825+345290079
2678+345113187+344699085+344269298+343829891+343333602+342954364+342856014
2668+342942952+343059764+343183060+343289028+343238509+342931898+342515196
2658+342273863+342251248+342164878+341836757+341463853+341316478+341383906
2648+341385968+341022564+340308692+339684208+339553503+339757611+339791878
2638+339474034+339079351+338869417+338809726+338742267+338565107+338217118
2628+337686383+337087292+336624732+336456594+336639670+337144055+337815295
2618+338364016+338539205+338351139+338040197+337791126+337539874+337107279
2608+336503199+336012048+335898612+336083211+336252724+336254278+336175526
2598+336071560+335876773+335599350+335391179+335383740+335561707+335819024
2588+336064061+336205461+336114282+335765248+335349801+335066882+334932174
2578+334966441+335321629+335969117+336507770+336548042+336147981+335686377
2568+335400380+335214675+334996107+334765708+334567664+334350500+334125151
2558+334026562+334096948+334197090+334185290+334042306+333841693+333681621
2548+333595311+333514887+333386542+333304504+333449609+333853165+334296546
2538+334546811+334614180+334625533+334579854+334460292+334412791+334554101
2528+334789250+334998616+335170459+335243953+335105301+334828656+334649792
2518+334644056+334669629+334648268+334652271+334686060+334629297+334459187
2508+334336340+334419901+334703000+335019619+335165829+335072857+334871676
2498+334750651+334787159+334918939+335016153+334993418+334870093+334686001
2488+334444817+334210415+334075139+333965497+333729601+333457885+333435388
2478+333753053+334212417+334591953+334802783+334829821+334714323+334602828
2468+334666522+334905555+335107422+335050540+334690691+334146482+333609860
2458+333280066+333278065+333573054+334016613+334426444+334621350+334493633
2448+334165064+333988053+334227504+334746857+335149158+335226237+335103897
2438+334956462+334811567+334684746+334674469+334809655+334981378+335139270
2428+335385771+335745919+336014857+336013184+335860909+335819502+335947637
2418+336074936+336096028+336148041+336425344+336906337+337373199+337670071
2408+337839733+338013936+338232803+338404258+338482890+338629608+339012938
2398+339488883+339743600+339747334+339798182+340119581+340636096+341129996
2388+341464749+341652366+341742948+341621744+340987072+339664848+337884038
2378+336066870+334386709+332703621+330894579+329040992+327324026+325928817
2368+324986608+324493007+324403560+324768398+325568639+326549776+327501933
2358+328589994+330190745+332617491+336115447+340529381+344771503+347335675
2348+347456491+345679295+343578729+342563654+342737320+343403540+344110570
2338+344733442+345182737+345325422+345100072+344733113+344740104+345514144
2328+346945592+348511419+349646623+350073811+349977971+349919176+350391535
2318+351374255+352423806+353183208+353632653+353914676+354145703+354393578
2308+354692900+355064041+355512261+355978257+356365830+356659146+356947712
2298+357356736+357979219+358781940+359565540+360131469+360461652+360661846
2288+360824637+360980616+361091663+361120194+361128201+361184456+361191985
2278+360998661+360647566+360324643+360099054+359887089+359619047+359277243
2268+358825558+358273820+357772780+357489382+357429661+357498614+357631619
2258+357742008+357680435+357423925+357231319+357445077+358108041+358883994
2248+359450012+359868715+360403484+361070272+361614273+361856562+361821279
2238+361577855+361192732+360781109+360394223+359919892+359276944+358627394
2228+358238029+358210753+358421225+358629396+358697362+358804615+359282710
2218+360158955+361107587+361887602+362577126+363401118+364532468+365987905
2208+367607329+369185106+370599645+371832242+373017577+374425722+376191146
2198+378109861+379852700+381345093+382834231+384560100+386450822+388253740
2188+389856702+391290391+392537029+393551746+394385716+395162087+395964091
2178+396743539+397347290+397674575+397752131+397676457+397579601+397519313
2168+397324257+396783214+395995550+395270386+394740875+394247155+393512549
2158+392387324+391013207+389710641+388668559+387816484+386993000+386180151
2148+385508702+385065412+385001001+385895558+388474250+392769041+398081896
2138+403846973+409981310+416438061+422970308+429309172+435336166+441165834
2128+446994038+452769841+458221018+463192427+467732734+471906680+475637933
2118+478728120+481128814+483169570+485346049+487965969+491120508+494881247
2108+499506341+505461814+513024282+521845459+531007873+539340767+545727401
2098+549559931+551102157+551242870+550703381+549431348+546937771+543144796
2088+538392105+532724093+525767915+517180602+507067077+496222083+485660517
2078+475749935+466315298+457423466+449407340+442444350+436580475+431782045
2068+427871301+424721333+422259573+420166207+418080101+416058435+414391480
2058+413231032+412596718+412366708+412308749+412367514+412670361+413261594
2048+414205446+415792067+418415242+422471599+428311245+436014128+445396991
2038+456314313+468641035+482024298+495843503+509181834+520967124+530629890
2028+538399335+544698374+549646630+553115457+554979799+555512238+555429841
2018+555247064+554881509+554038546+552503789+550022641+546401568+541772322
2008+536509599+530918844+525092014+518967088+512464837+505666281+498942115
1998+492857431+487895194+484200479+481420726+478838211+475991508+473127835
1988+470742856+468984751+467799147+467209646+467159994+467432576+467876793
1978+468472657+469208099+470071975+471084630+472312059+473898440+475912905
1968+478114122+480099190+481723065+483182476+484730557+486476921+488413681
1958+490498264+492657774+494783376+496850422+499014234+501416750+503961593
1948+506504285+509187749+512259533+515494377+518180649+519956620+521249745
1938+522635961+524382056+526701101+529750001+533238964+536567557+539425075
1928+541992026+544643404+547476842+550037877+551910883+553604935+555969151
1918+558746604+560726204+561510731+562026619+563180286+564858325+566158799
1908+566487786+566374021+566836432+568110198+569511172+570474533+571210304
1898+572277392+573873393+575635322+577123772+578384452+579649912+580639444
1888+580783862+580084001+579165334+578711348+579028983+579740853+580067570
1878+579790864+579512546+579730277+580380006+581477149+583245292+585126543
1868+585544739+583738773+580872472+578402318+576679406+575344874+574109408
1858+572860499+571588884+570487260+569742408+569184635+568442770+567484847
1848+566875569+567217163+568007128+567482516+564835978+561544490+559239666
1838+558100161+557290538+556173917+555172376+555201952+556115600+556380475
1828+555174108+553427237+551758041+549542126+546555964+543714937+541802138
1818+540709536+540004956+539653562+539907502+540621583+541087280+540835192
1808+540238043+539956976+540370451+541668057+543699581+545581131+546275136
1798+545823779+545385149+546199910+548664089+551529853+552576207+551519576
1788+550301557+550379711+551695183+553624533+555878629+558236930+560265287
1778+561867144+563672393+566599221+570942859+575344754+577470386+576836012
1768+574938688+573302475+573054629+574733026+577458197+579364782+580036798
1758+580797604+582296809+584112813+586349043+589706495+593884743+597087322
1748+598086652+597806840+597985196+599490017+601976902+604433492+606053215
1738+607359664+610102580+615046235+619512959+619788828+617095505+614655286
1728+613560354+613574933+614210382+615039184+616379333+619503578+625297844
1718+632347054+636658367+636039110+632814603+629947585+628735780+629506565
1708+632272724+636317011+640121697+643347459+647692172+653970658+659297553
1698+660688729+659203984+656462621+653594228+652249598+653107499+655250817
1688+657993494+662364079+668863224+673834304+673299595+669675834+666913797
1678+666815388+669705052+674209718+677899683+680223806+682340894+684028493
1668+683886585+682601228+682371247+683946037+685883932+686440808+686120545
1658+687137741+691604286+700803744+712717021+718581852+715444402+711101959
1648+709152353+707805572+704836021+701401610+699811823+700813305+703983558
1638+708499696+712709253+713528794+710055186+705921871+704417886+706163622
1628+710074187+714871811+720080579+725259054+729446205+732559755+735977077
1618+740830807+746076382+748719753+747880554+745772012+744436762+744059974
1608+743606586+742752569+742370523+743140291+745004155+747814112+751506766
1598+755825069+760462023+765029547+768914299+771706151+773509786+774491431
1588+774679168+774647320+775411174+777074275+778549699+779261748+780425155
1578+783870679+789295447+793124093+793680791+794086319+796892451+800972768
1568+803770176+805456879+807718683+810910267+815183100+822128643+832229979
1558+839599213+839461428+836567403+835263761+835935359+836868785+836537169
1548+835569147+836096507+839254990+844427549+850628896+855994749+856037531
1538+850550802+845957406+845367428+846135523+844143972+840151788+838320369
1528+840206340+844141522+848168840+852240074+856773600+860543511+862108801
1518+862047855+861742290+862204103+864360745+868813428+875084923+881844402
1508+887695669+890748393+890059527+887756496+886228431+886887601+890142640
1498+894680886+897239053+895537293+891828626+890495887+894211843+901891005
1488+908491726+910451728+909697077+909318795+909999894+911356952+913850409
1478+917982589+923248897+929054575+934487289+936494555+932974760+927387650
1468+924385236+925474790+929243686+932513663+933255767+932309495+931087055
1458+929638459+927414239+924870293+922614404+920348120+917350845+913293114
1448+909037011+906424710+906286805+907415436+908347428+909148864+910709194
1438+913085181+915073327+915395383+914497688+914132850+915687803+919011317
1428+922308540+924006178+924153702+923988312+925169524+928685495+933391581
1418+936274314+936067636+934460820+933120193+932344808+931658153+930488533
1408+928703361+927109809+926624394+927111960+927892006+928509888+928454499
1398+927647984+927474468+928957182+930263870+929142349+926993654+926777237
1388+928699716+929918391+928709694+927294080+928979827+934491711+941670580
1378+948058170+952692376+955164681+955511474+955765056+958101667+961343980
1368+962516588+961555557+961389869+963766453+967483784+970280117+971589734
1358+972714122+974500430+976308486+977732286+979634510+982471354+985750413
1348+989404648+993200371+995796480+997001652+998710343+1001599947+1003574529
1338+1003162010+1002540483+1005002332+1010720117+1016314337+1018880391
1330+1019436790+1020943225+1024882828+1030948721+1038103988+1044552285
1321+1048827210+1052252360+1057364511+1063945096+1069307723+1071917156
1312+1072922641+1073741823+1073652077+1071643258+1068823503+1067247159
1304+1067623828+1068458665+1067773444+1065620267+1064029703+1064367295
1295+1065749329+1066327357+1064710622+1060124277+1053458129+1047574715
1287+1044410317+1042556372+1038782039+1031691781+1023700840+1018846333
1278+1018501452+1020252268+1020555443+1017840131+1013103453+1008607332
1270+1006572103+1006708932+1006014270+1002661180+997486111+991340571+984122625
1260+976388373+969398615+963724209+959263520+955866811+953223559+950506455
1250+946579101+940583416+932527466+923667630+915545775+908260311+900274031
1240+890386364+879390261+869019867+859923179+851436965+843178998+836019010
1230+831050739+828193639+826368494+824769624+823445190+822643754+822143222
1220+821622435+821422091+822214744+823784454+824947263+824939077+824215556
1210+823939926+825176825+828366139+832993533+837792710+841669038+844484671
1200+846881033+849474154+852355333+855261967+857981819+860558449+863312001
1190+866536329+870038318+873456656+876978901+880996001+885397537+889753902
1180+893903768+898134955+902775495+907844207+912806265+917224113+921741984
1170+927527944+934977245+943560794+952310568+959842803+964723899+966635503
1160+966625585+966123798+965912101+965716776+965438756+966548446+970707813
1150+976860822+981379051+981562367+978050518+973702160+970974779+970564172
1140+971801132+974009996+977219685+981456907+985912159+989248399+991045283
1130+992414052+994293092+996361005+998217340+999990980+1001087047+1000294813
1120+998290654+997528355+998628126+999869626+1001381917+1004555994+1007798427
1110+1008067185+1005590996+1003807796+1004730586+1006995975+1007647616
1101+1005843742+1004635821+1006890096+1011597018+1015632940+1015987859
1093+1010368066+1001157374+994971442+994545957+995613464+994193787+992986285
1083+995921718+1001361124+1004256046+1002369178+998049560+995160494+995006994
1073+995061248+991794437+984810714+977969795+975697655+977878197+979791893
1063+978972412+977515929+976879404+976364114+975593569+975038784+974302356
1053+971777052+966983551+962183119+960098775+961206374+964344243+967920203
1043+969183035+966553107+963438183+964786278+971162337+978323699+981683899
1033+979886598+974851704+969850211+967073117+966870084+968499785+970194375
1023+970239845+969441217+970058502+971682586+970900629+966180262+960737212
1013+958863967+961710073+966685216+968679396+964587308+956194544+946486846
1003+936983973+928729531+922647446+918087033+912812658+905564359+897325274
993+889570468+883026271+878167880+874958132+871935582+867365191+861884138
983+858340921+858333512+860002827+860122269+857801671+854428862+850875607
973+846973945+843080111+839967756+837103844+833059319+828081128+824320777
963+822972861+823129706+823688495+824620247+826150583+828037152+829866181
953+831352121+832638016+834533727+837910778+842590752+847179428+850399035
943+852454818+854715248+858258525+863357053+870038915+877954511+886010102
933+893329743+900151841+907215212+914551344+920788542+923946666+924175631
923+924179933+925126683+924798532+920980163+914795785+909790886+908757497
913+911103131+912960183+911576775+908881719+908504871+911211758+914997324
903+917395658+917366200+916376310+916348048+917420992+919018308+921036567
893+923054289+924818907+927852869+933197032+937964064+937896964+933599394
883+930231067+930842436+933293470+934223908+933885540+934942052+938176000
873+941564701+942933531+942760194+944292262+949789327+956802269+959572610
863+955667244+948689137+943979288+944834858+951068889+959158538+964617005
853+965742230+964138103+962270654+962861529+967927672+975891367+982185088
843+984062814+982977084+982291086+983658959+986537629+989653629+991254410
833+990411328+989110017+990562019+994697485+997341693+995058798+989302474
823+984290644+982374618+983363014+986560334+991313145+996340032+999640662
813+999920713+998736275+999048831+1000307002+999920116+997657595+995505315
803+996286974+1000664490+1005556938+1007294131+1005228309+1001625939+999282576
793+998133868+994828220+988477257+983094016+980933849+978863965+973859544
783+968078124+964846268+963824591+962608186+959947128+956090219+951235474
773+946186897+943713457+944671739+944792196+939905723+932903895+930506637
763+935160023+943402693+950931104+957279617+963813118+969234181+971177095
753+972040075+976899899+985883419+993675688+994928900+988726059+979590593
743+974135353+975147351+979853675+983828711+985212777+984266744+982172780
733+982433114+987288576+994456331+998152570+994259752+986390224+981392913
723+981061895+981108082+979365154+979557730+984161941+990334488+995090167
713+998752706+1000962228+1001055260+998226004+990225921+979044830+972853043
703+976364951+984550798+988700127+988473731+988890672+988544596+983649100
693+976804955+973452223+972763656+971291518+972069651+980360541+994637914
683+1005328332+1003300512+988464649+966772870+945751673+931736187+925941683
673+923975167+920604928+915842916+916938923+928996916+942530452+946719634
663+945173465+947070192+950992587+947477871+937263726+932387828+939439010
653+953577642+964851825+965339869+953439319+934877999+919892879+915450413
643+922828491+936360355+946614473+949027386+941423391+924689009+907244430
633+898685260+900596864+905424363+906048101+904540650+906817929+915358935
623+930387853+947210307+953043351+938006188+909373407+885179089+879901010
613+897020545+924757662+939748101+932382929+917670750+906765169+894772424
603+885103444+891106121+911356534
##END=
