##TITLE=<SNM>
##JCAMP-DX=4.24
##DATA TYPE=INFRARED SPECTRUM
##DATE=29/4/2025
##SAMPLING PROCEDURE=Instrument type and / or accessory
##ORIGIN=Admin
##XUNITS=1/CM
##YUNITS=ABSORBANCE
##RESOLUTION=4
##FIRSTX=4497.3318
##LASTX=599.83466
##DELTAX=-1.4281778
##MAXY=2.122051
##MINY=0.39048514
##XFACTOR=1
##YFACTOR=1.976314e-09
##NPOINTS=2730
##FIRSTY=0.39830753
##XYDATA=(X++(Y..Y))
4497+201540611+201368566+201115739+201235955+201964307+202898045+203305048
4487+202941399+202418253+202460582+202988358+203449783+203703726+204012303
4477+204482369+204956220+205361865+205720160+205825402+205366193+204397108
4467+203498400+203326943+204018742+205112099+205963276+206163927+205768099
4457+205173504+204653811+204171304+203750428+203641432+203855202+203918989
4447+203411390+202471620+201612391+201205615+201161386+201074044+200772554
4437+200582323+200763657+200984606+200876228+200782024+201217708+201854737
4427+201885214+201241957+200646653+200568284+200706294+200410097+199432356
4417+198281319+197646160+197582539+197734588+198110134+198895985+199801252
4407+200337564+200418406+200209295+199798267+199326617+199078012+199225131
4397+199740285+200560865+201556249+202389737+202721959+202529737+202043008
4387+201496277+201040959+200677235+200249634+199707125+199266660+199116300
4377+199178112+199322350+199456213+199359295+198898322+198379850+198334928
4367+198971037+199953965+200728959+201057577+201120007+200989642+200388956
4357+199349312+198660439+199144514+200700518+202252858+202591021+201401063
4347+199576956+198448448+198732626+200084571+201374779+201584403+200723485
4337+199711076+199351725+199696312+200301508+200757188+200951732+200986264
4327+200857770+200392786+199622799+198966241+198853023+199351604+200213080
4317+201094356+201781435+202269476+202529888+202380810+201878503+201572867
4307+201928357+202735380+203488161+204013313+204368909+204535359+204520837
4297+204402823+204180879+203859138+203577131+203454729+203435638+203481390
4287+203753836+204280753+204583056+204047755+202739451+201567770+201460628
4277+202471394+203765236+204424870+204211793+203648549+203476806+204004537
4267+204920963+205637418+205747032+205306296+204833395+204959914+205847494
4257+206890650+207248764+206790988+206251963+206323260+206906318+207467436
4247+207797984+207982228+207883441+207310667+206593775+206267691+206191448
4237+205678042+204555430+203455755+203037744+203452618+204407664+205340135
4227+205818344+206061008+206633435+207592764+208534464+209270160+209723185
4217+209537916+208625093+207633419+207242506+207459021+207878223+208135740
4207+208084559+207944137+208073702+208380892+208413072+208058622+207586671
4197+207149841+206789722+206704853+207122969+208074411+209323074+210334262
4187+210569265+210068587+209473706+209339738+209662761+210047928+210148977
4177+210022187+210108126+210738897+211775419+212904153+213989262+214783648
4167+214744094+213724401+212434178+211656771+211470175+211598277+211957884
4157+212457491+212721764+212422069+211700578+211129025+211295038+212320115
4147+213713740+214822313+215404934+215650040+215766380+215750034+215523204
4137+215093477+214537728+214028379+213790134+213856937+213999004+214040563
4127+214125447+214503874+215157068+215763651+215982880+215700195+215058718
4117+214353393+213883779+213825300+214134269+214591246+215030609+215491974
4107+216122730+216992741+218017983+218970300+219486042+219220096+218276284
4097+217349890+217076464+217383729+217810169+218178628+218563840+218907477
4087+219082463+219160109+219409407+220028476+220848875+221436412+221566671
4077+221395878+221091463+220641438+220117839+219749078+219545079+219183693
4067+218612095+218379324+218867230+219640806+220077274+220066221+219746831
4057+219387104+219580622+220526424+221402075+221475936+221229503+221472573
4047+222214723+222998840+223437570+223240056+222507723+221873951+221818367
4037+222169047+222505642+222631543+222617775+222728113+223174263+223789667
4027+224204059+224317127+224244246+223965769+223475586+223032498+222828695
4017+222678245+222350471+221940905+221741505+221952275+222531564+223211389
4007+223802455+224482160+225503707+226685537+227450171+227305541+226253457
3997+224890474+224009440+223927195+224366423+224931928+225316990+225330305
3987+225223179+225556109+226373718+227088272+227328206+227234094+227040877
3977+227094184+227857475+229184358+230137066+230078406+229298873+228311225
3967+227404133+226982548+227366569+228114570+228332186+227797533+227128490
3957+226822175+226860674+227286058+228459821+230496281+232770775+234212203
3947+234245710+233489958+233072837+233237855+233160752+232204545+230679424
3937+229309882+228823801+229869566+232397837+235089890+236318452+235977122
3927+235440991+235737746+236427765+236438170+235796813+235719726+236952148
3917+238495953+238459701+236491025+234189945+232900250+232452215+232473101
3907+233876045+237860703+243797933+249159342+252036498+252291964+250086174
3897+245783137+241096154+238464466+239086144+241371541+242179921+241352631
3887+241914804+245059671+248338129+249838142+250597438+250577397+248005334
3878+244132055+242628167+244687518+248445603+252083577+254599392+254494106
3868+252087920+250391614+250879927+251412860+249626257+246438277+244233602
3858+244673207+249340812+259459475+270358033+271095041+261625983+250876232
3848+244240328+243075930+246451502+252028310+257391257+261540722+264455819
3838+265585172+264511011+262450242+260693572+258891331+256272823+253440755
3828+251607359+251127370+252370605+256716288+263862491+268872708+268154731
3818+265168337+263092187+260232343+255069127+250119651+248787430+252329845
3808+258514518+262751777+263917834+265493246+268797068+270325733+268090280
3798+264650559+261694023+258591183+255149592+252357893+251050720+251547372
3788+253820584+256931446+259106549+259853449+260969290+263778829+266599617
3778+266841134+264881732+263405122+264610447+269057103+275173541+280038148
3768+282376746+283285210+283785828+284512099+286795082+291515497+297165186
3758+301082965+303265850+306541714+313613665+324521512+334862029+339886149
3748+341578851+344426873+348742306+350446318+348262951+346364561+348546209
3738+356025916+366896757+376095285+379602714+378429721+376211580+375695701
3728+377969758+382633804+388084983+392665850+395588064+396814229+397308091
3718+398887694+403042407+410520697+421443412+433576097+441437563+442410418
3708+440307246+439547287+441632605+445909795+450708232+454684612+457936861
3698+461024259+464150050+467989958+473698036+481209893+487824656+489496065
3688+485646054+480283363+476725628+475772256+477075448+480228593+485818325
3678+494894797+505028812+509226773+506515072+503937520+504392476+503833229
3668+499611019+494983737+493062034+493779770+495798134+498549706+502091638
3658+505751735+508345935+510482494+514959551+523989004+536503448+546738738
3648+548392444+541951159+532897035+526209287+524224248+526269907+529723592
3638+532530537+534557919+536454409+538882852+543320219+551337459+560792764
3628+565328512+563337563+559348426+556857975+557185266+560547145+565313734
3618+568752822+570498635+572267791+574288478+575234642+575138674+575372652
3608+575841451+575127696+573345149+572366895+573262693+574813917+575307990
3598+575154900+575782760+577179085+578887922+582404279+590016899+600620135
3588+608228171+608247292+603605081+599379796+597135567+595800225+594103270
3578+592298767+591836060+592797122+593175142+592231451+592988515+598967575
3568+608705174+615081254+613398656+607033794+601798768+600886082+604079189
3558+608774963+612400436+614234979+614539831+613283868+611387318+611389972
3548+615290380+622278337+628389013+629392360+624901912+618694121+614642313
3538+613319155+612725797+611305466+609739946+609781446+611958298+615337972
3528+618782307+621633647+623233790+622871272+620980091+619230598+619194105
3518+621382901+624979301+628220060+629644071+629257547+627934389+626138451
3508+624089354+622327135+620934248+619331995+618073559+618977078+622327919
3498+625866352+627438265+627273836+626637531+626551033+628364283+632775954
3488+638214315+642157912+643879054+643677106+640887171+636016170+632931758
3478+634873728+639711011+642044029+639698284+635387345+632544329+632366569
3468+633623376+633791304+631948136+629809586+628797916+628426230+627753734
3458+626638616+625792099+626116314+627717784+629958333+632216254+633904462
3448+634220051+632927053+630962282+629298202+628256191+628257216+629525122
3438+630870658+630214689+627266175+624731812+624959878+626770172+627852597
3428+628541862+630559834+633670244+636302987+638228913+639505202+638639022
3418+634610496+629352489+626285630+626689646+628347816+628283516+626450964
3408+625513064+627307554+630694828+633278713+634332486+634986706+635946381
3398+636560972+636398894+636362160+637463525+639082306+639280574+636761170
3388+632539383+629411722+629435126+632057193+634582207+634940200+633441092
3378+631610953+630745315+631338130+632810577+634054476+634741690+635741719
3368+637964052+641149559+644033531+645460075+644984581+643054252+641174290
3358+640733418+641325871+641583614+641490482+642048433+642853571+642228364
3348+639735319+637277742+637658476+642089992+648304599+651834829+650946330
3338+648615121+647921995+648384703+648285056+647527811+646717425+645934424
3328+645370381+645572751+646430186+646987232+646482362+644938979+642709046
3318+640206170+638555540+638798746+640273184+641275143+641353618+641543020
3308+642409140+643496993+644684071+646531642+649114020+651580041+652995728
3298+653019253+652148548+651143935+649928507+648259601+646899890+647062932
3288+648799878+650816885+651971150+652153675+652042085+652381621+653341598
3278+654538869+655642164+656665114+657514949+657930305+658085627+658726034
3268+660421420+662628975+664593746+666526970+668484020+668905046+666161557
3258+661326325+657185848+655406015+655858830+657009294+656321537+652507325
3248+648148916+647414290+650876179+654482833+654229071+650806872+648397309
3238+649917831+654310200+657922645+658191668+655663638+652882449+652144326
3228+654177317+658538562+664077837+668106061+667032503+660520162+652931247
3218+648561618+648220936+650396884+652982338+653916679+652512573+650137271
3208+648351286+647448491+647298599+647770474+648115378+647888398+648113026
3198+649493064+650333730+648374388+644070748+640047108+638049765+637916702
3188+638653257+639344211+639196671+637561905+634606636+631881122+631501172
3178+634328203+638900022+642280962+642036007+638024130+632950397+629900487
3168+628899734+627351165+624410312+622781940+624770959+628612375+630333216
3158+628462060+625023213+622542654+622042188+623335548+625670858+627916595
3148+628712504+626911680+622766076+618722290+617632929+619911721+623292058
3138+625133476+624353974+621626348+618448140+615987185+614557384+613708937
3128+612470225+610204402+607716244+606488209+606610777+606873587+606631768
3118+606175817+605552058+604421137+602947423+601465687+599844493+598239103
3108+597513103+598105074+599189248+599605811+598977950+597606658+596057184
3098+594884462+594269027+594040538+594325184+595599362+597638808+599213979
3088+599395539+598442257+597127665+596129747+596157977+597468890+598974572
3078+598910212+596988871+594823841+593730800+593239321+592291890+590950516
3068+589995063+589386807+588160642+585903807+583474278+581846388+581001561
3058+580515208+580579569+581491773+582590846+582859506+582317540+581770145
3048+581485379+581029006+580078981+578692006+576992458+575309256+574513166
3038+575323250+577199232+578794126+579723763+580873081+582468096+583001377
3028+581020018+577254665+573870769+572084542+571336405+570497067+569278502
3018+568222377+567800566+567928141+568106564+567939782+567397152+566495383
3008+565087658+563256012+561594102+560759830+560835169+561247690+561371646
2998+561118065+560632376+559657561+558038357+556614889+556360524+556843740
2988+556737578+555645322+554375124+553718009+553734778+553992822+554058811
2978+553648521+552628587+551066144+549252171+547769711+547030260+546690242
2968+546073601+545135218+544603204+544998776+545696547+545396098+543859592
2958+542605922+543096677+544726677+545479459+544340153+542012926+539469876
2948+537134747+535416198+534877007+535645109+537145966+538487219+539053313
2938+538862645+538313139+537527604+536153538+534029344+531817265+530506050
2928+530219294+529995752+529093982+527943217+527215588+526628081+525401374
2918+523511398+521811006+520990667+520981016+521415373+522066577+522480245
2908+521805456+519878083+517940094+517340644+518029969+518994470+519596575
2898+519819936+519703400+519178081+518314374+517415801+516815265+516607527
2888+516582434+516435979+515925681+514865816+513161442+510977894+508878069
2878+507628440+507660771+508511872+509062464+508676965+507721150+506864078
2868+506425317+506428635+506775710+507235944+507497789+507276418+506418320
2858+505041388+503462689+501941745+500717662+500144450+500387295+501006741
2848+501109072+500052524+498042785+496015675+494891570+494908308+495555923
2838+495964132+495503717+494275773+492880323+491727838+490911662+490478179
2828+490246946+489620684+488164855+486245082+484705500+484087230+484348230
2818+485027814+485434877+484959895+483603080+482103911+481258058+481236252
2808+481691872+482148366+482109521+481245210+479785641+478464896+477854377
2798+477813601+477717031+477224707+476664947+476527329+476773732+476844275
2788+476228840+474956652+473609156+472780795+472401961+471779439+470455075
2778+468744820+467305247+466496158+466240767+466216580+466070608+465569206
2768+464650186+463508256+462689697+462733429+463419316+463696361+462758491
2758+460952781+459304535+458450327+458207995+457873044+456936049+455703762
2748+454991635+455094630+455447587+455358435+454644138+453544432+452388116
2738+451368032+450461226+449602796+448904604+448530686+448449557+448492776
2728+448526826+448419488+448037518+447447990+446877252+446298400+445430319
2718+444265620+443146974+442212602+441271626+440323200+439672509+439454667
2708+439460578+439423361+439194209+438723540+438047304+437241502+436414589
2698+435758348+435402527+435166800+434657527+433674719+432384375+431126512
2688+430232193+429967000+430384559+431161618+431694838+431446656+430332232
2678+428887773+427870674+427495158+427253701+426683264+425968303+425524596
2668+425400218+425348646+425160390+424781526+424332753+423994243+423730347
2658+423299730+422661434+422074922+421651211+421234890+420901959+421025100
2648+421554761+421814012+421391237+420656823+420040815+419484100+418896111
2638+418421069+418025497+417501596+416998415+416877174+417023296+416910108
2628+416291717+415378095+414440376+413616177+413012264+412711754+412680057
2618+412775150+412866834+412929084+413009971+413092970+413014978+412608126
2608+411948628+411349932+411023335+410823347+410460136+409917265+409474524
2598+409303067+409259276+409161468+409034256+408946431+408841959+408710373
2588+408726025+408965401+409109353+408741708+407923602+407160054+406814607
2578+406875921+407196215+407560813+407623846+407186413+406497057+405987965
2568+405802333+405743975+405569049+405249027+405012064+405066924+405274663
2558+405295141+405098018+405053232+405410169+405893355+406006061+405646077
2548+405181620+404934735+404849323+404732033+404600568+404649908+404928492
2538+405128872+404825316+404007632+403172998+402748442+402711195+402885548
2528+403214437+403569655+403714904+403688182+403852220+404344121+404774648
2518+404689056+404155655+403710500+403815486+404470640+405242271+405633048
2508+405498416+405070995+404618090+404282505+404210213+404459602+404737160
2498+404604609+404049222+403576200+403671625+404309498+404986157+405196640
2488+404900685+404527642+404572368+405189643+406040804+406519194+406308018
2478+405709834+405278644+405252043+405454293+405585064+405507403+405345206
2468+405314352+405423922+405447326+405252676+405031879+405065627+405323461
2458+405495943+405470096+405498808+405734806+405905177+405707120+405267545
2448+404951865+404940797+405186778+405577193+405998521+406372559+406654671
2438+406701720+406308832+405565611+404938083+404759176+404881413+405046627
2428+405296046+405735560+406168530+406286423+406092950+405895285+405922006
2418+406131977+406407574+406719393+406996076+407068761+406923241+406809932
2408+406949269+407299210+407635337+407680516+407291911+406740505+406607351
2398+407178059+408121207+408870429+409130736+409003010+408841235+408946280
2388+409194553+409082360+408332625+407245284+406178875+404894291+402770972
2378+399664091+396233658+393258484+390832906+388524799+386194133+384155321
2368+382571253+381345903+380561032+380345301+380485875+380826285+381803151
2358+383987061+387337148+391385911+395920030+400770944+404930000+406794490
2348+405511867+401894808+398089192+395764889+394718204+394115134+393931282
2338+394394984+395186279+395690757+395708099+395710693+396269820+397308845
2328+398229373+398658392+398748418+398888328+399378661+400291046+401477340
2318+402696689+403755348+404562235+405114184+405495008+405895285+406523809
2308+407454983+408638744+410006447+411431845+412689376+413639732+414356623
2298+414921601+415253054+415289427+415167311+415082110+415111998+415262705
2288+415544606+415923470+416301067+416592468+416736721+416663463+416393928
2278+416125659+416034638+416045013+415939877+415602904+415036268+414296335
2268+413543523+413040191+412998239+413435341+414159772+414881700+415398634
2258+415747187+416197589+417008518+418090128+418998593+419387258+419356104
2248+419244694+419243428+419330679+419403695+419282454+418725438+417689037
2238+416510615+415615752+415115798+414898017+414952967+415299108+415704090
2228+415804008+415484559+414971817+414595396+414544758+414765466+415058073
2218+415318953+415621091+416016240+416384397+416604984+416806088+417254077
2208+417995367+418770949+419289270+419466457+419448452+419509646+419881150
2198+420611010+421587484+422614476+423447240+423958624+424345149+424963479
2188+425896191+426854721+427542207+427931958+428173566+428434113+428885179
2178+429581833+430264765+430577067+430518437+430376747+430302404+430313111
2168+430525946+430988653+431499736+431886532+432231044+432708740+433480160
2158+434661025+436077134+437220270+437741878+437811396+437837303+438102646
2148+438720554+439622866+440559349+441364909+442199061+443321808+444738943
2138+446256810+447769008+449311516+450912050+452527272+454130039+455788359
2128+457604594+459612523+461770013+463953018+465886574+467292007+468260579
2118+469221371+470398134+471586509+472552397+473328341+474039140+474741313
2108+475516201+476467372+477537732+478508989+479268435+479947959+480715428
2098+481524517+482133015+482283843+481854975+480941081+479783590+478494482
2088+476876757+474671645+471955601+469150978+466664599+464596260+462758159
2078+460930162+459128282+457597416+456484501+455641935+454862130+454136040
2068+453553600+453146779+452944439+452965972+453065348+453001742+452751388
2058+452572089+452704369+453143582+453744992+454412181+455091524+455679966
2048+456081932+456354362+456718719+457429217+458645248+460374141+462489499
2038+464813409+467195497+469569954+472000629+474622123+477507603+480634088
2028+483905187+487104176+489913201+492142109+493955600+495754011+497676890
2018+499238941+499757021+499270156+498634002+498502989+498632464+498412631
2008+497714499+496822381+495803050+494478566+492979427+491780467+491041770
1998+490447929+489969931+490192358+491444701+493104227+494284610+494877425
1988+495351864+495965278+496717999+497664465+498850517+500233179+501835041
1978+503659631+505457770+506933806+508183073+509651962+511654673+514073948
1968+516507397+518651798+520507331+522178228+523658758+525011351+526533320
1958+528433791+530529756+532584824+534748648+537292179+540056720+542535590
1948+544560619+546719979+549810484+553699189+557059983+558855137+559662567
1938+560738960+562591658+565017809+567694585+570245898+572249153+573595955
1928+574798656+576766322+579874802+583239938+585716154+587582303+589783223
1918+591843479+592444859+591814647+591471069+592145496+593411411+594699041
1908+595897459+597099194+598131916+598599991+598488944+598452270+599210721
1898+600813156+602527422+603399454+603300169+603340643+604557096+606395981
1888+607340577+606883600+605695074+604333916+602980116+601849376+601060705
1878+600423435+599772894+599383716+599966157+602235418+606028216+609396007
1868+609498911+605791525+600700540+596553187+593891490+592131623+590512781
1858+588610803+586559474+584722338+583183178+581991456+581577124+582399031
1848+584554229+587738168+590579917+590512962+586772340+581960029+578515633
1838+576558101+575052599+573611095+573046751+574218870+576308621+576892570
1828+574980156+572161690+569473091+566213030+562288073+559067098+557482035
1818+557057751+556975718+557251134+558431818+560436038+562130157+562363773
1808+561272662+560075511+560026592+561838515+565296603+568944154+570880032
1798+570682487+570071757+571358482+575315771+579593534+580346134+577542266
1788+574906446+574895709+577062428+579907917+582782298+585446769+587331980
1778+588613698+590896652+595865007+603303004+609824875+611345336+608220028
1768+603939912+601115837+601065953+603974535+608153617+610971600+612042142
1758+612920808+613942009+614827914+616945473+621922153+628603749+633302599
1748+634362042+633795345+633888779+635473058+638377056+641469430+643153899
1738+643937141+646913401+653761719+660645445+661639803+658005523+654242160
1728+652070495+651686504+652926784+655194718+658444887+664155709+673908508
1718+685974841+693670762+692729786+687180739+682334650+680411620+681842447
1708+686421685+692873465+698875025+703959736+710788631+720770522+729588919
1698+732437664+730627310+726083962+720130899+715898857+715587430+718730714
1688+724300571+733344078+746541092+757248016+757012651+750372072+745843683
1678+746730252+752072103+758294189+762629255+766186207+770323125+772650654
1668+770698189+767682178+768358354+773237800+778210076+778935412+776385185
1658+774977581+778275824+788047261+802141278+810585577+809602256+808121787
1648+809700154+810221853+805737920+799558057+796503141+797890840+803367081
1638+812082815+820359789+820489475+811362365+802180124+798677279+799763081
1628+801692927+802337979+802103096+800659120+796765890+792162706+790583192
1618+792702018+794113724+790204751+783444619+778627544+776736724+775878566
1608+774244825+771709075+768933255+766279279+764085416+762808765+762436717
1598+762500233+762682155+762957451+763336073+763759634+764065089+763990716
1588+763500684+763042802+763121157+763691895+764473388+765883948+769046051
1578+774142585+778132868+776594673+771589342+769433420+771937322+774981200
1568+773827358+769695868+766336039+765576924+769141717+779863299+796316875
1558+804221259+795936926+783756831+775501451+771512194+769967786+769429198
1548+770266063+773997879+781304863+791653674+804360354+816280475+818533872
1538+809772175+801272504+799181907+800952331+801013856+798740976+798358734
1528+801728938+806879336+812030639+818543644+827508435+835800066+839965093
1518+841278841+841863573+842250942+843733764+848357698+857127297+869981457
1508+884798097+892801704+886528287+875792047+870929310+873036313+879237650
1498+885434643+888215470+887991324+888504639+892242970+898464452+904128045
1488+906780935+907028665+907090190+908467756+911214502+914582414+918345354
1478+923029246+929191314+937405375+947029694+953087894+950759882+944639011
1468+942359616+945788570+951300521+954830811+957160331+961570133+968882304
1458+976040118+977750705+973612460+967796924+962099854+956946138+953424172
1448+952648108+954184191+956272013+957891397+959634134+962699606+967983189
1438+975287096+981741953+983697375+982287418+981554361+983192505+985736700
1428+987334791+988306048+989727103+991499336+993732949+997922284+1003787764
1418+1006519612+1002519859+994837390+988176905+984778532+985027167+988446471
1408+993714974+998708482+1001284345+1000833400+999278497+999234766+1001171247
1398+1003639018+1005377110+1004927311+1000687247+993962101+989071918+989131393
1388+992786604+995347387+994804757+994615235+998081647+1003954185+1008679274
1378+1011567287+1015461241+1021552133+1026154111+1025435712+1021507376
1370+1019005585+1019324794+1020948219+1022859125+1025603037+1029520756
1361+1033699415+1036905732+1039223429+1041806892+1044992580+1048248720
1352+1051520182+1055085879+1057882871+1057795771+1054530703+1050669563
1344+1049278245+1051249349+1054695133+1056819689+1056447038+1054620217
1335+1052811974+1051676891+1051975590+1055043656+1060968671+1067504959
1327+1072067729+1073741823+1072876487+1070894042+1070091438+1071452476
1318+1073097857+1071685307+1066823595+1062069372+1059645875+1057694917
1310+1054153830+1050839301+1051286023+1056216981+1062543118+1066355761
1301+1066950748+1066594745+1066958589+1067055462+1064785778+1059747452
1293+1053294164+1046347103+1038251087+1028461192+1018633417+1011679722
1284+1008969710+1009101446+1009125815+1006568953+1000785929+993294791+987069931
1274+984102598+982892840+979912598+974048626+967353036+961277224+955050915
1264+948246811+942154049+937455259+932743018+926346851+918602675+910982515
1254+904026347+897262355+890419707+883911649+878344144+873760262+869226927
1244+863393838+855762821+847129302+838419177+829826193+821678845+815137068
1234+810979581+808438220+806244237+804358243+803538447+803605703+803509132
1224+802979954+802731801+803001970+803242281+803194508+803063858+803069226
1214+803723325+805816515+809538861+814196212+819010211+823596567+827754235
1204+831465120+834952041+838465321+842245574+846344732+850196161+853227191
1194+855980814+859123735+861593738+861997574+861537762+862909778+866772426
1184+871555723+876109928+880346434+884116793+887862543+893462318+902325472
1174+913293155+923847473+932853100+940656328+947153107+951086811+951086026
1164+947750868+944352797+944104223+947204016+951097487+953560975+954963332
1154+957047595+959981632+962016915+962070117+960713120+958933529+957718583
1144+957360288+957340926+958426125+962456158+968996246+974658451+977002026
1134+977306033+978054894+980083181+983817409+989415495+993841282+992691963
1124+986979754+983050152+984940248+990409854+994434217+994758492+993117815
1114+992059639+992230342+993191586+995095796+997748505+999412284+999844953
1104+1002109991+1007339770+1011332465+1010786035+1008242986+1007054099
1095+1007111643+1007042095+1006763844+1006086280+1003648609+999022020+994120378
1085+990865685+989187429+988426445+988543222+988914486+988070563+984841566
1075+978880661+970380266+960886598+953308902+949474906+948704693+948284450
1065+945091283+938369393+930993284+926747972+927043475+930743443+935632057
1055+939794128+942671465+944913281+946902783+947874462+947355598+946983369
1045+949002065+953031616+955708875+954082554+948888304+943976105+942433326
1035+943512131+943895700+941650807+937798836+934520800+933452249+935319544
1025+939332869+943246366+945235083+944996522+943314104+941900106+943203961
1015+948030748+953632031+956033572+953827344+948403339+941382870+933488802
1005+925208451+916642428+907259566+897514127+889450139+884024204+879486345
995+873975239+868267252+864239571+862219910+861080846+859425994+856487554
985+852779383+849427757+846289058+842206185+837503052+834081155+832649062
975+831702114+829560608+826005768+821437448+816183844+811269232+807791902
965+805211033+802062260+798405361+796051894+796547113+799867614+804606033
955+808765692+811032782+811748648+812596130+815333708+820419746+826458884
945+831613807+835763513+840231462+845747212+851648763+856795543+861227481
935+866683214+874899748+885825571+897518952+907450838+914177191+917637270
925+918044845+915306483+909870896+903677341+899348367+898157851+899204084
915+900263889+899502241+897272006+895346262+894644329+895083271+896566153
905+898539911+899623844+898988323+896931204+894361192+892916552+894213652
895+898466202+904057653+908872738+912273402+914536089+915340141+914869110
885+914803423+916204030+917773048+917623034+915941461+915140063+917286394
875+921572421+925329511+927629776+929360328+930226811+930001881+930348293
865+931657336+931533079+929129125+927382166+928547288+931394647+933519142
855+934119135+934229459+934411200+934037343+933536213+935086109+940186805
845+947245093+952923343+955774140+956765603+957367828+957768166+956564560
835+953766905+952856872+957626054+967297060+975991381+978282417+974226326
825+968086214+963955568+962707086+963281865+965504138+969296695+973439223
815+977538020+982950625+990061934+996896077+1002198721+1006638802+1008926823
805+1005479893+996197101+986164723+980475013+980025093+981620893+981201193
795+978078237+975435963+974958478+973464015+967892047+960434386+954594964
785+950090763+944963527+939961634+936685588+933536575+927969312+920905112
776+914843112+910124658+906768027+907100686+912632119+920342456+924791284
766+924421891+923424878+925477172+929897951+933749501+935540312+937196551
756+941039716+946361541+950805664+953492091+954830087+954835757+954147578
746+954798661+957511991+959675151+957722745+951203347+944119544+941752626
736+946417034+956470523+967640215+975240590+977237632+975311586+972732526
726+971526689+971815677+972612612+972980859+973185642+974193211+975814887
716+975979196+972264330+964720051+956953738+953345335+956152461+964893287
706+975084485+979023315+973469262+963866960+958186659+958805170+961388331
696+961594743+960232257+960594292+963500703+966659850+967633580+966376894
686+963607709+959980546+956547068+954252292+953783130+954329379+953051581
676+948374687+940679068+930358185+917190065+901836888+891109214+894103147
666+905644887+913765996+914863078+911403482+908221111+910680860+918861564
656+925044021+922778499+915335436+909384243+907593130+909337918+912272498
646+912492421+908573314+905178199+907605737+915057004+919544255+914491996
636+904013258+897535118+898977948+903357651+903289068+896533822+887429996
626+883503108+888244363+895165365+893704318+883576154+876897634+883051861
616+900203570+917035708+921030093+907413259+885191316+871571406+875524171
606+893625360+915311429+926048513+924078736+919750486
##END=
