##TITLE=<SNM>
##JCAMP-DX=4.24
##DATA TYPE=INFRARED SPECTRUM
##DATE=29/4/2025
##SAMPLING PROCEDURE=Instrument type and / or accessory
##ORIGIN=Admin
##XUNITS=1/CM
##YUNITS=ABSORBANCE
##RESOLUTION=4
##FIRSTX=4497.3318
##LASTX=599.83466
##DELTAX=-1.4281778
##MAXY=2.1167698
##MINY=0.38130161
##XFACTOR=1
##YFACTOR=1.9713955e-09
##NPOINTS=2730
##FIRSTY=0.39834192
##XYDATA=(X++(Y..Y))
4497+202060888+201860265+201560987+201225245+201017880+201069808+201057880
4487+200739131+200671843+201410191+202390280+202527682+201478794+199766010
4477+198196071+197341834+197156963+197194031+197323889+197749761+198306518
4467+198350465+197450588+195961073+194888828+195059942+196280397+197572948
4457+198344418+198823200+199244854+199402211+199260168+199300199+199913495
4447+200829109+201332578+200898664+199783244+198945681+198978924+199357917
4437+199221558+198519190+197892272+197830064+198244371+198613719+198598919
4427+198504103+198701959+198865393+198458297+197606085+196773194+196135376
4417+195823747+196085625+196784577+197352310+197425191+197078988+196547370
4407+196064431+195814147+195867073+196229029+196737819+196842008+196013107
4397+194554538+193480070+193417106+194078461+194972654+196131627+197756624
4387+199397554+200066906+199326049+197821387+196566191+196130887+196520643
4377+197297116+197798786+197625813+196914450+196103509+195626269+195665664
4367+195968435+196151552+196181197+196157433+195937052+195492268+195279733
4357+195702506+196426023+196699285+196315243+195865562+195946439+196429787
4347+196797789+196884775+196830186+196601173+196076162+195481263+195399599
4337+196288001+197928191+199378280+199782110+199216675+198416906+197914465
4327+197764561+197743941+197563061+197158535+196804335+196671106+196491149
4317+196036690+195673888+196017793+197129268+198474729+199576091+200184852
4307+199991592+198899754+197529818+196806860+197118807+198185413+199405642
4297+200136885+200089749+199619991+199360456+199573596+199983776+200192063
4287+200203447+200414863+200922565+201256659+201155191+201011878+201234013
4277+201723574+202129445+202102279+201393108+200241769+199428394+199437056
4267+199889595+200228360+200492551+200875096+201093134+200932633+200887991
4257+201490494+202416071+202896516+202661169+202058802+201644964+201846645
4247+202686007+203760837+204599337+204882606+204449191+203454861+202410628
4237+201797347+201696166+201915912+202318019+202787021+203119119+203184381
4227+203056866+202855170+202626399+202464764+202558900+203020176+203694169
4217+204182007+204094417+203422208+202700716+202554289+202975051+203345064
4207+203403492+203866900+205551006+208016120+209726530+209643203+208173145
4197+206550521+205656918+205407587+205093176+204324926+203565702+203616965
4187+204678945+205956363+206319074+205618626+204985616+205387663+206499591
4177+207492198+208196713+208838551+209400010+209903933+210605167+211373236
4167+211576700+211018552+210310424+209943026+209661374+209115516+208476036
4157+208030043+207806911+207928183+208672517+209880108+210885201+211244436
4147+211071311+210658955+210210377+209909964+209901544+210144904+210447705
4137+210655463+210730702+210675780+210515143+210435989+210814074+211809357
4127+212964959+213577848+213494143+213123041+212727616+212300913+212065883
4117+212351738+213000016+213561249+213849990+213736368+213020152+212126292
4107+212093397+213200548+214362726+214526659+214016025+213878623+214469304
4097+215173637+215265355+214690728+213952683+213484649+213343876+213397452
4087+213592935+213993530+214628475+215354562+215929521+216266382+216512523
4077+216828022+217162918+217336903+217312504+217249994+217235466+217145185
4067+216965847+216932846+217085607+217144535+217102100+217386836+218164277
4057+218957032+219175539+218775170+218329903+218486610+219232577+219853976
4047+219891861+219784966+220058514+220355238+220003215+219112424+218319865
4037+217850169+217555259+217543754+218039181+218722244+218860009+218221466
4027+217493459+217641307+218950230+220717556+221911557+222119118+221769151
4017+221527167+221643118+221874428+221893597+221669679+221433440+221365049
4007+221442359+221540592+221494604+221190398+220771646+220572037+220788321
3997+221421391+222351835+223210411+223524868+223273088+222930558+222867897
3987+223047990+223222324+223140327+222740578+222237366+221889848+221832614
3977+222159814+222811373+223398260+223543356+223312771+223030696+222868638
3967+222811827+222830678+222991663+223459168+224337714+225474525+226446724
3957+226787363+226364243+225619592+225294175+225830161+226974154+227821603
3947+227557140+226481932+225851416+226382278+227328853+227558380+227108607
3937+226879443+227329805+228146914+228892352+229379645+229429291+228880273
3927+228055681+227673680+227964145+228294354+228187882+228112809+228675795
3917+229649611+230330997+230518785+230514718+230365706+229719408+228577669
3907+227839442+228679681+231256754+234173803+235843849+235939724+234770092
3897+232595987+230130691+228586966+228786455+230203542+231220125+231283905
3887+231602458+232957459+234428561+235098351+235611480+236379413+236329193
3878+235073937+234015116+234344947+235879103+238044153+240281524+241327057
3868+240508391+239045195+238221041+237821277+236998983+235651511+234349149
3858+234055948+236376631+242710221+250289135+252092139+247784110+242239421
3848+238154253+236166530+236200483+237697375+239807685+242163607+244768436
3838+246764353+246894151+245479270+243880850+242779776+242060234+241601059
3828+241435660+241427542+241763012+243466286+246862192+249651575+249840058
3818+249153170+249252083+248773890+246479662+243923919+243163016+244843842
3808+247938837+250211114+250834932+251741899+254211821+256108568+255300030
3798+253162116+251423286+250016916+248670986+247894150+248002859+248670911
3788+249585028+250700040+251779133+252512205+253311687+255070428+257667199
3778+259600076+259951011+259608784+260087340+262075788+264868421+266979139
3768+267964943+268911411+270813963+273795381+277807895+282671759+287202496
3758+289985846+291449087+293540334+297898643+304712466+311688136+315556914
3748+316705442+318699091+323696078+328997318+330754561+330378048+331611505
3738+336526768+344541515+352960925+359159683+362308995+363239409+363778918
3728+365833943+370052174+375076554+378974690+381416992+383460226+386051677
3718+389401536+393365825+398193951+404602629+412570574+420327933+426035921
3708+429575896+431884198+434336145+438095171+443029542+447899846+452005453
3698+455557521+458764854+461414294+463040440+463843445+465204673+467909958
3688+470213664+470180194+468524872+467206365+467365339+468747883+470576934
3678+473002517+476544850+479847664+481314563+482476001+485692615+490067885
3668+492565094+492737402+492494677+493187990+494698337+496308881+497930069
3658+500316951+503760295+507366212+510842604+514851247+518858198+520727310
3648+519888598+518432795+517979999+518941767+520830834+522239471+522418763
3638+522498945+523599611+525150774+526601680+529204408+534032715+538430178
3628+538162056+535098188+534415850+538013059+544564808+551708916+557357069
3618+560852388+563551081+566358135+567779833+566747861+564850691+563600726
3608+562738612+561989516+561920702+563167946+566113657+570128771+573242103
3598+574537602+575617345+578116852+581515963+584603354+587272296+589783171
3588+591658814+592055191+591223615+590594067+591239579+593095448+595588968
3578+598174281+599954744+599896936+598211530+596399017+595431142+595233226
3568+595816273+597779415+601358362+605598907+608799376+609527731+607636366
3558+604827860+603507751+604760920+607730154+610266124+610457086+608261862
3548+605628537+605204525+608332732+613010169+614873174+612354438+608978426
3538+608514504+610897365+613959479+616684598+619136575+620570367+619701965
3528+616250427+611654503+608651830+609093681+612070171+615089715+616599699
3518+616641906+615884344+615170502+615345380+616861169+619289200+621213581
3508+621471847+620989905+621899910+624320444+626149283+626479991+626402046
3498+626360684+626223177+627129312+629441847+630768064+629263220+626424056
3488+624254895+622909932+622749749+624998367+629249675+633184304+635003468
3478+634645247+632915638+630656316+628752616+627869701+628192245+629543557
3468+631303219+632612081+633317337+634292831+636070755+637505454+637203651
3458+636082305+636106371+636682948+635173146+630989261+626465659+623932592
3448+624003825+626118383+629267332+632065981+633168159+632079950+629299260
3438+625660992+622198569+620058130+619406269+618868333+617200826+615631401
3428+616455297+619275897+621223075+621158917+620918430+621557048+621526390
3418+620182335+619902421+622481264+626288121+628377826+628147256+626901584
3408+625521549+624568006+624211296+623953757+623339507+622405314+621777943
3398+622374838+624180215+625619449+625640916+625776610+628072576+631808442
3388+633877284+632528210+629357976+627301408+627983383+630798480+633464580
3378+633782166+631878828+629806357+628893872+628847250+628918907+629166892
3368+630163188+631833536+633448435+634614105+635900170+638581811+643150282
3358+647732357+649340241+647388951+644146516+641354156+639141880+638043209
3348+638832397+640560071+641553584+641811064+641938170+641421701+640005021
3338+638763582+638419269+638827075+640573253+644247803+648051032+649206301
3328+647990320+646770348+645577164+642649473+638661087+636803645+638711881
3318+642259989+643176586+639426389+634251772+633105270+637730401+644345763
3308+647836184+647488242+646882035+648793174+652137621+653351122+650630056
3298+646453186+645110279+648416751+653962771+657444786+656522022+651892538
3288+646097988+642179807+642222559+645912407+650386726+653073386+654727227
3278+657553571+661401487+664266531+665212456+664263085+661064430+656236364
3268+652414208+651752369+653605155+655880924+657748887+660002646+662623757
3258+663750969+662283374+659511694+657221654+655833637+655081880+655312027
3248+656833500+658959547+660652753+661227274+660229286+657490018+653951101
3238+651670191+651761319+652949121+653083545+651497370+649047025+646889776
3228+646034374+647077231+649890937+653748528+657615613+660415350+661422228
3218+660752165+659158189+657019444+653913791+650108930+647398203+647182871
3208+649102536+651804192+653815407+653531503+650207253+645625903+643097129
3198+644222285+647535046+650518852+651774743+650765205+647602167+643851607
3188+641668900+641703912+642823081+643574838+643244856+642087832+641133019
3178+640992125+640781389+639270014+636561949+633609405+631109838+629617450
3168+629399518+629633052+628874825+626613386+623663926+621200460+619922376
3158+619736493+619819276+619324756+618072554+616412364+614983712+614663949
3148+615680078+616752263+616310231+614556616+613066950+612661623+612974492
3138+613483282+613930333+614176081+614325743+614469842+614124984+613072755
3128+612560034+613826568+615560107+615144077+612657571+610618117+609720689
3118+608056024+604758985+601699048+600798233+601634103+602319888+601847077
3108+600576915+598883648+596971966+595893129+596785599+598914790+600164876
3098+599777932+598914669+598314328+597384428+595894339+594790287+594642741
3088+594735320+594587654+594970063+596112755+596507076+594976775+592425809
3078+590242437+588565617+587070570+585950554+585312601+584843418+584733666
3068+585635084+587008951+586968860+584698835+581559682+579000976+577058998
3058+575506081+574845391+575444160+576870636+578759159+581169049+583508312
3048+584309774+582911417+580516825+578733580+577844316+576863077+574999468
3038+572768627+571304540+571016221+571480627+572278401+572990369+572697999
3028+570935434+568936554+568456971+569475700+570316408+569824307+568338934
3018+566839956+566095335+566397138+567249395+567444046+566196561+564029757
3008+562072964+561036094+560955065+561273739+561208371+560540849+559829123
2998+559547335+559369071+558469466+556508319+554188589+552818773+553200880
2988+554765286+555975583+555740417+554174681+552023358+549917024+548288278
2978+547451319+547383110+547539363+547110997+545710221+543903635+542770315
2968+542597735+542450916+541527002+540315556+539778103+539946209+540033224
2958+539576377+538790274+538108783+537880208+538192654+538648836+538454668
2948+537151429+535177221+533496653+532818004+532994938+533097857+532430092
2938+531439904+531132780+531822313+532952851+533731880+533445738+531735177
2928+529095321+526709194+525506637+525372758+525311079+524654562+523911996
2918+523811254+524013706+523743105+523078787+522468831+521665676+520273486
2908+518682715+517425555+516299431+514974545+513853743+513600436+514158569
2898+514717005+514518846+513447750+511968304+510781892+510422401+510819565
2888+511249140+511023286+510278665+509773926+509872431+510158694+510104211
2878+509638354+509008927+508339711+507360407+505699250+503566642+501935356
2868+501770335+503069310+504644601+504974402+503645192+501768974+500573402
2858+500048315+499539222+499062390+499073244+499357360+499104084+497999457
2848+496694768+496066792+496219961+496414129+496006020+495160112+494386103
2838+493790901+493190802+492573983+491992992+491178922+489839190+488360711
2828+487573519+487687171+487932224+487451431+486299185+485198277+484404736
2818+483442333+482135618+481122179+480854118+480784669+480138190+479032928
2808+478270438+478281625+478685833+478774300+478205524+477190181+476129788
2798+475270032+474685262+474341886+474081232+473655920+472883453+471814292
2788+470755017+470040631+469718389+469499640+469030881+468162297+467026015
2778+465944850+465154605+464532253+463808100+463089269+462720828+462566178
2768+462050947+461058945+460078130+459318966+458470035+457473648+456740577
2758+456416702+456170773+455814759+455453211+454973900+454095581+452993857
2748+452223112+451912511+451587034+450886737+449997563+449279578+448838695
2738+448531813+448181331+447762096+447409741+447212459+447068451+446807283
2728+446298402+445419387+444201078+443024432+442358059+442258042+442342488
2718+442212871+441701995+440838672+439832611+439001820+438469477+437970906
2708+437179753+436202657+435498097+435262205+435172952+434902684+434550751
2698+434276311+433897651+433267438+432681972+432471901+432462135+432200605
2688+431506596+430516892+429395576+428246746+427179822+426313415+425732092
2678+425442141+425322472+425165916+424866532+424464107+423930796+423151889
2668+422229548+421515645+421199329+421108080+420984964+420686245+420103410
2658+419226723+418313785+417723300+417556193+417631205+417762878+417866553
2648+417816635+417421225+416630163+415700989+415081721+415009883+415179167
2638+414983942+414219637+413343888+412911017+412978501+413212881+413350691
2628+413333215+413113257+412590499+411810140+411053183+410569850+410288213
2618+409892319+409172430+408283710+407651139+407526057+407692258+407781450
2608+407715539+407583715+407363485+407080518+406923388+406924960+406878973
2598+406724444+406625274+406606377+406468748+406104994+405676416+405435506
2588+405427675+405422293+405217120+404901228+404658080+404482779+404272647
2578+403995183+403644490+403306133+403285574+403788740+404471018+404701467
2568+404280478+403504473+402614755+401645066+400773520+400376205+400614515
2558+401207630+401713246+401950619+402089517+402318334+402519818+402455086
2548+402185633+401988382+401894775+401661544+401236565+400945797+401083577
2538+401476357+401627137+401302749+400794412+400510235+400507000+400540803
2528+400432744+400292001+400409796+400897149+401455162+401656435+401429704
2518+401076774+400874322+400869364+400983802+401103230+401106797+401022533
2508+401131499+401690570+402534996+403182443+403334977+403043484+402461072
2498+401775257+401289415+401194145+401323157+401395751+401356355+401312091
2488+401336279+401418427+401457823+401347708+401147826+401018058+400976697
2478+400957982+401041097+401346317+401801924+402226904+402508541+402570703
2468+402384669+402120145+402067113+402315522+402654544+402817993+402725687
2458+402492909+402281871+402146631+402034218+401936862+401946688+402121747
2448+402403293+402684991+402853035+402807139+402565654+402294418+402147447
2438+402120659+402100916+402026357+401965252+402003076+402092148+402159178
2428+402320994+402752233+403347797+403758173+403727122+403267372+402661377
2418+402305484+402341342+402488223+402445290+402340617+402527316+403057241
2408+403618549+403940398+404047943+404105298+404153371+404116243+404033309
2398+404104663+404415537+404786215+405048078+405307915+405719199+406117360
2388+406147353+405662811+404703130+403152087+400701198+397151246+392592874
2378+387283078+381476253+375401185+369295187+363359713+357681385+352324514
2368+347562118+343849472+341425704+340044248+339245325+338896779+339525661
2358+342076023+346993795+353748480+361640021+370142999+377789458+382124848
2348+381529526+376718876+370624941+366242022+364247314+363622695+363636179
2338+364084047+364633805+364842848+364705764+364809378+365770208+367616977
2328+369833305+371851293+373441036+374839000+376533023+378796033+381467575
2318+384175762+386602766+388575311+390150843+391650306+393403860+395424993
2308+397473064+399384384+401137516+402684839+404019794+405326600+406761753
2298+408191494+409406719+410445283+411443362+412352309+413044503+413553657
2288+413986588+414274453+414226682+413818150+413251672+412741189+412378130
2278+412180122+412116660+412096735+412021329+411827948+411478132+410984671
2268+410481957+410209119+410365493+410949508+411736095+412428471+412827660
2258+412935296+413015750+413455152+414348710+415310205+415886177+416040374
2248+416055068+416120556+416199560+416152242+415835866+415165955+414232185
2238+413353261+412870049+412789262+412731634+412359052+411785438+411421291
2228+411469303+411718801+411833511+411714326+411511753+411381502+411371071
2218+411513930+411871728+412434608+413074617+413653552+414147225+414631193
2208+415149658+415655697+416119831+416620397+417221222+417834746+418366998
2198+418929485+419729739+420798991+421951237+422964161+423733484+424299509
2188+424755358+425133353+425426207+425685500+426012761+426472722+427018399
2178+427423152+427407430+427017673+426711123+426836718+427196875+427366764
2168+427342213+427607795+428532404+429885349+431076053+431755912+432025817
2158+432189539+432525961+433172652+434033133+434899902+435745598+436701621
2148+437729058+438594256+439226253+439810630+440493240+441340387+442585666
2138+444443440+446663245+448742126+450557148+452343689+454204547+456090741
2128+458051434+460117072+462134849+463978896+465743336+467571480+469428256
2118+471148039+472622406+473823632+474687741+475141746+475285543+475416671
2108+475868197+476902558+478631229+480899107+483328530+485543255+487320817
2098+488618432+489545459+490211742+490506682+490088233+488657344+486213832
2088+483037339+479509670+475989740+472708938+469663089+466686962+463690668
2078+460767150+458137906+456100537+454858373+454254827+453867852+453428270
2068+452943455+452459185+451968385+451529860+451285654+451344158+451650104
2058+451946979+452024531+452033934+452290506+452774473+453193920+453497749
2048+453906220+454486455+455106661+455776542+456738098+458265255+460539059
2038+463615837+467359232+471423145+475417971+479197798+482953135+486889911
2028+490887882+494669312+498148817+501302271+503888098+505658312+506636527
2018+506937967+506647986+506007281+505295858+504504554+503493625+502337176
2008+501147892+499817261+498274503+496682613+495149591+493649312+492330563
1998+491486832+491181673+491218227+491411004+491624854+491707395+491662829
1988+491756949+492232935+493025781+493913413+494843978+495956616+497404679
1978+499303149+501647673+504124080+506266726+507966916+509554785+511314024
1968+513191178+514987546+516647856+518334955+520244582+522361921+524478656
1958+526400014+528029848+529424879+530892111+532789825+535159322+537773116
1948+540460078+543172800+545874033+548469142+550798427+552831109+554852907
1938+557172033+559777179+562461662+564990496+567137164+568920046+570671424
1928+572578269+574510572+576466820+578619293+580862771+582911296+584709720
1918+586254594+587325086+587800618+587930264+588119957+588670472+589605753
1908+590688883+591755202+592885921+594121071+595286560+596270338+597184093
1898+598125421+599015109+599690916+600098480+600450111+600998085+601557912
1888+601612516+601042893+600290834+599753200+599447103+599261704+599228929
1878+599438395+599792384+599992840+599935515+599963150+600333888+600490927
1868+599469356+597263852+594855231+592844076+591034889+589138445+587260928
1858+585702024+584594525+583784899+582976906+581995667+580832960+579583842
1848+578654970+578652974+579374073+579302356+577426895+574743863+572575306
1838+571074635+569655113+568021288+566686242+566425740+567086369+567299706
1828+566162274+564298121+562354389+560186981+557976942+556537829+556147921
1818+556120529+555769866+555293548+555374940+556218247+557216357+557572885
1808+557161753+556566128+556515878+557477464+559305457+561051272+561717646
1798+561525655+561788939+563544308+566587073+569316726+570102164+569433553
1788+569131750+570073199+571828992+573788264+576020737+578786793+581787350
1778+584455445+586784065+589393929+592592523+595449586+596707714+596707291
1768+596552368+596582724+596991255+598357382+600652200+602784596+604164026
1758+605408851+606846574+608216994+609927736+612895156+616892552+620111585
1748+621310877+621256757+621424318+622835192+625801402+629582076+632543630
1738+634110757+635925326+639685803+644316073+646680732+646418597+645600505
1728+645542757+646485718+648041175+649636965+651316324+653948440+658260641
1718+663712389+668261388+670366694+670749950+670931842+671886232+673986035
1708+677276906+681486853+685802319+689638080+693657729+698744060+704030908
1698+707818355+710052642+711139279+711342154+711732485+713318962+716054239
1688+719521016+724173660+730429108+736039166+738121070+738161645+739068627
1678+741884812+745868724+749162981+750679677+751653296+753686643+756339501
1668+757929304+758733548+760780683+764735932+768756065+770882051+771881068
1658+773637404+777003318+782122302+788035070+791245093+790849199+790593837
1648+792237579+794299468+794607258+793670101+793352999+794473439+797133915
1638+800985943+804213563+803692618+799548341+795713789+794069140+793469524
1628+792347210+791022142+790975218+791816046+791005755+787808793+784554325
1618+783150465+782754209+780904507+777331849+773854913+771619416+770481804
1608+769591693+768239716+766511679+765206808+764838246+764843023+764399540
1598+763647360+763217664+763093157+762861801+762645743+762846744+763206719
1588+762942165+761819791+760459469+759506590+759150667+759539244+760979385
1578+763385769+765451407+765168833+762868453+761085328+761121126+761790644
1568+760997647+758701681+756449797+755389344+756359214+760293117+766449637
1558+769910790+768163343+764871746+762357485+760751234+759836573+759455736
1548+759551701+760484503+763050224+767861842+774526306+780866049+783155605
1538+781053867+778829315+779338106+782578182+786451193+789002582+790585069
1528+792342736+794615663+797304620+800763778+805491162+810938556+815767106
1518+819579768+822811984+825838663+829112482+832926111+837123904+841994903
1508+848665595+856468881+861139726+861725071+862027842+864483085+868715828
1498+872627661+874436787+874657380+875474746+878437388+883340134+888184164
1488+891193549+893226836+895982068+899798358+904363563+909360581+913870214
1478+917103276+920147673+925310257+932898513+939167083+940230197+937576977
1468+934875684+933248087+931397418+928684031+927215771+929363950+935387800
1458+943033986+947921675+948506415+947823715+947745830+947753933+946906816
1448+945670094+945872062+948467050+952318231+955659170+958072206+960688781
1438+964321728+968013028+970668969+973335795+977193567+981341714+984150340
1428+985625978+986832223+987553926+986882896+986146801+988056609+992191634
1418+994284604+992389067+989566109+988757451+990384987+993291393+995882632
1408+996988740+996293099+994374885+992699336+992875242+994905263+996970418
1398+997991808+998858275+999698076+998449804+994365513+990086147+988246907
1388+988332048+987932224+987258170+989291094+994350456+998269847+997924142
1378+995863100+996279493+999869990+1004796561+1009825809+1014335261+1017345191
1368+1018611422+1019385068+1021157429+1024149218+1027345273+1029616749
1360+1030558380+1030713061+1030999444+1031725804+1032989254+1035787177
1351+1040401846+1043930120+1043028399+1039722653+1039716001+1044666760
1342+1050442443+1053410407+1054593190+1055975644+1056831650+1055883004
1334+1054131203+1053666555+1055014300+1056065622+1054300880+1050323318
1325+1047293796+1047343623+1050188713+1054149102+1057346124+1059059346
1317+1060551975+1063482689+1067835526+1071958457+1073741823+1072110356
1308+1068270059+1064506922+1061837798+1059845812+1057667701+1054498132
1300+1050660012+1047662781+1045802014+1043041944+1038084897+1033095075
1291+1030529113+1029221762+1026672973+1023266484+1020915672+1019267516
1283+1015537274+1007905056+997927408+989011604+983408622+980902342+979725183
1273+978371875+976280357+973416038+969716635+964544860+957300615+948744544
1263+940797280+934640458+929676275+924619997+918752461+911976491+904650733
1253+897551856+891308864+885955319+881105060+875989220+869535674+860967630
1243+850658791+840430315+832195277+825921144+819889130+813461404+808268345
1233+805738785+804886588+803763428+802033033+800630987+799766938+798795919
1223+797598200+796861198+797236834+798975151+801957990+805373549+807974886
1213+809354256+810387740+812057424+814476989+817408188+821011746+825309132
1203+829447059+832727771+835727724+839352265+843567594+847636646+850864750
1193+853021818+855090177+858338719+862410856+865857314+868189441+870076150
1183+872055014+874542850+878578826+885079357+893668263+902907155+911466491
1173+919114915+926369682+933042370+938131180+941489898+944351677+947549788
1163+950432973+952457613+954374133+956874849+959202441+960231511+960328322
1153+960744232+961433705+961277754+961374203+964149329+968234951+969367303
1143+967068797+965305325+966578933+970195190+974931040+979503078+981854858
1133+981277737+979636051+978963086+979816250+981594053+982334260+979610472
1123+974055744+969738888+970024545+974704522+980757034+985380834+988031333
1113+989916530+992029334+993776298+994002575+992793548+991332605+990601166
1103+990709104+990754819+989766929+988206150+988249870+991626426+996487327
1093+997899471+993039054+984779344+978484470+976586453+977535220+978653180
1083+977901423+973451352+965436241+957913292+955060946+956546802+958328717
1073+957347237+954023652+950303871+947026485+943613405+939939460+937479622
1063+937453075+938700077+939149124+938284470+937155868+936883029+937639080
1053+938568133+938477852+937040492+935487514+935575195+936674228+936163866
1043+934038182+933409480+935946055+939836783+942424514+943133701+942844173
1033+942024509+940824552+939989408+940212601+940536173+938684597+933595182
1023+927189104+922728753+922461115+926923522+934829062+943342079+949334061
1013+950572477+946599691+939007686+930681097+924243030+919994867+915691314
1003+909408170+901580092+893334653+884752883+876076841+868930374+864506910
993+861599415+857991201+853318481+849077755+846101991+843691616+840979862
983+837794450+834411726+831022471+827425988+823672767+820554174+818169922
973+814978705+810453228+807006890+806474033+806715367+804470921+800074002
963+796121958+793623903+792560365+793688303+797245542+801630487+805127740
953+807685600+810034719+812620515+816034502+820780390+826325019+831756873
943+837076133+842811604+848960565+855074817+861083248+867170893+873460446
933+880364491+888433721+897078259+904138858+908063450+909511694+909641159
923+908302425+904913594+900148839+895641806+892900059+892403241+892860330
913+892367564+890527478+888273296+886184800+884575223+884638958+887724112
903+893226171+898366743+901067190+902306028+904308113+907510517+910550258
893+912310041+912946603+913333185+913543981+912784968+911897457+913444328
883+917725689+921193312+920593576+917280331+915569347+917636375+920906687
873+920795181+917323748+916144412+920999024+928803882+933664782+934431717
863+934888927+937136397+939359618+939824205+939462114+939711974+940669327
853+942435399+944976569+946448034+945291796+942966019+941726152+941349004
843+940335656+939067732+938905976+939354841+938989001+938649283+940487435
833+944872924+951039301+958283002+965043310+968972679+968966874+966233290
823+963681779+964548730+969643346+975785656+978506541+976128094+971020659
813+967334500+968032922+973412047+980773966+986507260+988776136+988095007
803+986586112+986211322+987022883+986953222+983813344+979010615+975923949
793+974842150+972173510+966098805+960629098+959642659+961116784+959876736
783+953322811+942853364+931443677+921649675+915080572+911977217+910709413
773+909341291+908409758+909927664+913908371+918054945+921130907+924644850
763+930096478+936477279+941807544+946135951+949355709+948701369+942870175
753+935147555+930888688+933306319+940561933+947115073+949527443+949992453
743+952398353+956514451+957551563+951685478+941649598+935098393+938138497
733+950844105+966499960+976249215+976041321+968245231+957913896+948965983
723+943701812+942911475+945926968+951472686+957411939+959965022+956816557
713+951168403+948629773+950764890+954816105+958924765+963871533+968666703
703+968681518+962441610+955334207+951846871+950765132+949495454+947503650
693+945130766+942630111+940397214+939044814+938651037+938620681+939018389
683+941284544+944409547+942531666+932678767+920644128+912922778+909272114
673+906242169+901759565+895250024+890264193+893290510+901372379+905282155
663+904138919+903918689+906539679+907117283+903021806+897026437+893000680
653+891668114+892756565+896481546+901087205+904965356+908162136+909242544
643+907408928+905840954+907451801+910291509+909736217+904943587+899395087
633+897104503+900389387+907687450+914649908+916770875+911053545+897517570
623+880837543+867967942+861822125+861072545+861732025+858425674+852355928
613+849897964+855552466+865814079+869074231+865953763+862534818+855995466
603+848329445+846572081+852229183
##END=
