##TITLE=<SNM>
##JCAMP-DX=4.24
##DATA TYPE=INFRARED SPECTRUM
##DATE=29/4/2025
##SAMPLING PROCEDURE=Instrument type and / or accessory
##ORIGIN=Admin
##XUNITS=1/CM
##YUNITS=ABSORBANCE
##RESOLUTION=4
##FIRSTX=4497.3318
##LASTX=599.83466
##DELTAX=-1.4281778
##MAXY=2.1145833
##MINY=0.37662923
##XFACTOR=1
##YFACTOR=1.9693591e-09
##NPOINTS=2730
##FIRSTY=0.38698462
##XYDATA=(X++(Y..Y))
4497+196502818+197100163+197750352+198048563+197844419+197050269+196078382
4487+195911405+196999271+198618790+199740736+199979126+199519143+198796361
4477+198357761+198489146+199004561+199645958+200314216+200780041+200676818
4467+199922302+198900930+198142479+197848656+197844722+198068569+198740656
4457+199746093+200338581+199925162+198694985+197247740+196210130+196113400
4447+196824772+197333075+196898637+196087099+195861072+196106030+195960557
4437+195291360+194818741+194908026+195182493+195312607+195378753+195358944
4427+195013215+194395653+193907538+193820160+194015663+194047790+193491334
4417+192585533+192262550+193036270+194234320+194889987+194896419+194620726
4407+194049939+193146907+192473216+192603466+193295286+193824140+193795160
4397+193408421+193181047+193352368+193544966+193253988+192606492+192234871
4387+192462320+193087843+193828210+194436572+194580533+194198454+193761595
4377+193668920+193673339+193299206+192491799+191631306+191244567+191677099
4367+192725529+193706314+194135804+194144263+194077239+194029570+193906433
4357+193711126+193614653+193716377+193829527+193697355+193393651+193247708
4347+193396027+193662867+193865786+194010533+194173984+194367308+194522830
4337+194470954+193986411+193123285+192446809+192538031+193287296+194031885
4327+194291144+194036123+193412401+192613605+192028472+192140124+193008486
4317+194033671+194582152+194670180+194636313+194484998+194105038+193724368
4307+193585991+193632768+193899502+194626552+195732169+196744492+197386737
4297+197763836+198000713+198164694+198445063+198901868+199129605+198657455
4287+197591592+196443133+195463316+194655744+194225119+194440325+195219448
4277+196265381+197414430+198537057+199348731+199608504+199340907+198772708
4267+198196806+197857509+197841271+198121353+198700493+199516147+200179094
4257+200100417+199113185+197816907+197060424+197167293+197796629+198366750
4247+198502750+198268567+198035488+198042540+198236076+198634241+199443478
4237+200569132+201451038+201663445+201329475+200795552+200227368+199650120
4227+199150942+198869453+198812341+198810344+198750160+198683514+198623436
4217+198466083+198236546+198176150+198511285+199269388+200218258+200880690
4207+200861017+200329274+199916415+200075962+200808566+201801458+202529946
4197+202556686+202050683+201590216+201372483+201208032+201154794+201425857
4187+201833056+202004316+201990711+202156024+202603053+203008134+202982619
4177+202526389+202065605+201999610+202418733+203270631+204379668+205281852
4167+205544213+205238027+204701139+204048921+203313820+202789704+202851719
4157+203490468+204147573+204122241+203279499+202308610+202003287+202328419
4147+202543656+202190285+201567229+201199633+201217854+201459165+201937685
4137+202855139+204105791+205057596+205076725+204255729+203435111+203427560
4127+204268380+205218037+205507682+205073532+204462476+204090673+203948968
4117+203996697+204358104+205088195+206035900+206856926+207170497+207005169
4107+206904580+207168348+207405119+207345525+207404832+207847714+208211300
4097+208071365+207635564+207234222+206926735+206803022+207033029+207495130
4087+207784322+207647626+207195784+206739645+206597682+206956698+207686033
4077+208319304+208404321+207878797+207067199+206394128+206054619+205868589
4067+205583030+205315660+205398225+205811674+206157584+206243918+206368387
4057+206862223+207601213+208177205+208418017+208463294+208365732+208030475
4047+207653285+207730660+208347769+208883251+208809916+208425810+208373979
4037+208782450+209343491+209939973+210652087+211267743+211327034+210739541
4027+209983768+209556639+209452342+209373742+209311348+209568957+210211853
4017+210850844+211064477+210740055+209999431+209186047+208897869+209527296
4007+210648576+211332285+211285585+211159542+211448219+211695659+211270497
3997+210480267+210304421+211159860+212414008+213182764+213244295+212960143
3987+212634435+212382153+212339387+212494409+212511207+212128054+211600896
3977+211485219+212012378+212810008+213254994+213056283+212408363+211655103
3967+211075070+210928688+211360175+212232291+213216299+213979895+214299898
3957+214160871+213703431+213089121+212682497+213129421+214621308+216233139
3947+216844982+216653580+216678519+217033464+216862067+215923821+215054188
3937+214995804+215816664+217298125+218975149+219871084+219250464+217769306
3927+216898432+217235459+217972845+218107862+217777992+217960027+219123271
3917+220490553+220700539+219314991+217247444+215647870+214996062+215386902
3907+217210732+220965442+226146711+230770343+232904324+232235158+229454135
3897+225498776+221866143+220307217+221479858+223743484+224353223+223179809
3887+222765589+224349001+226235844+226928376+227335756+227762099+226815877
3878+224890490+224519898+226624021+229582160+232032209+233761185+234006325
3868+232620005+231327510+231186804+231006206+229402668+227001362+225335385
3858+225641405+229329485+237323918+245636509+246144145+239476725+231845150
3848+226529848+224460379+225572988+228869653+232808003+236478755+239600301
3838+241300010+240773669+238849916+236740269+234560057+232170858+230345681
3828+229893159+230413129+231411241+233897670+238539598+242701023+243598804
3818+242722769+241625188+238880212+233969567+229337263+227580805+229722186
3808+234481304+238458985+240033786+241141007+242983920+243695549+242254009
3798+240492755+239341844+237935035+235923132+234243005+233784142+234730303
3788+236817008+239347504+241326190+242542793+244075040+246673301+249221850
3778+250101033+249722193+249973734+252209106+256612190+262220936+267479988
3768+271727944+275373606+278628443+281806707+286133687+292541153+300046609
3758+306711851+312437726+319073307+328298417+339977254+350986091+357806900
3748+361842631+367064456+373848552+377086228+374551268+371496489+372931794
3738+380042370+390530451+400339423+406428399+407616703+404718824+400840386
3728+399544183+402228294+407141255+411137367+412381936+411133130+409077553
3718+408013733+408916659+412467649+419237944+427613306+433008555+433080618
3708+430787030+430096874+432785131+438126961+443479626+446533648+447445442
3698+447444655+447223895+447459092+449406771+454314374+461956179+468966180
3688+470587137+466596291+461242688+458507790+459949330+464423524+469760421
3678+475125858+480146354+483054706+483542200+483540899+482596387+478421948
3668+472579609+468736976+467138507+465587706+463278652+462086413+464121893
3658+469120234+474270813+477351015+479893148+484959315+492881928+499111248
3648+498646423+493456074+488929157+487481140+488119178+488857456+488983878
3638+489027491+489363504+490193640+492515891+497834386+506062443+513644835
3628+515997957+513639024+510860060+510402559+513140240+518463245+523450902
3618+525023947+524159853+524188182+526382407+529511247+532147477+533828451
3608+534445091+534135530+533456542+532912178+532588513+532393358+532646745
3598+534233652+537873988+542988459+547617706+550667249+553678717+558470069
3588+563297679+564058869+560446621+556232745+554151351+554290575+555455332
3578+556333107+556149755+554716175+552355124+550643157+551780251+556706771
3568+563457423+567547511+566443649+562113915+558180120+556814336+557847073
3558+559616969+560637054+560530700+559669995+558746458+559107410+562199870
3548+567453626+571750371+572448789+570517696+569184721+569675696+570209044
3538+569025582+566693768+565063277+564724661+564621635+564154449+564133142
3528+565045178+566154185+567058412+568333883+569982412+570703409+569462139
3518+566765316+564024729+562657311+563512507+566181727+568714084+568674678
3508+565289667+560286816+556428142+555706540+558449790+563367412+568288907
3498+571191055+571356549+569900330+568694169+568667172+569754448+571941591
3488+575082114+578244548+580340228+580817765+579447017+576418418+572706171
3478+569669340+568418083+569212747+570892995+571597467+570569814+568498409
3468+566265564+564580897+564128420+564743728+565320599+565595596+566763016
3458+569256633+571481245+571738446+570005051+567313736+564951716+564235381
3448+565583187+567958645+569934894+570884763+570872596+570241126+569536472
3438+569057422+568621833+568449015+569228243+570568604+570706798+569067047
3428+567701384+568359669+569699001+569381087+567389765+565229377+563764562
3418+563354216+563947067+564444942+564061048+563777819+564269218+564089619
3408+562301564+560637418+560977184+562806885+564269642+564481383+563851729
3398+563040721+562496356+562360341+562567844+562961000+563301432+563650096
3388+564728535+567213011+570433012+572480568+572237048+570681496+569599607
3378+569817704+571128767+573217243+575951051+578844845+580875573+581256440
3368+580092712+578245093+577058181+577858960+580533991+582693592+581776531
3358+578033534+574154521+572526028+573494540+575671151+577587716+578858464
3348+579835451+580884774+582115087+583094858+583089410+582200074+581736157
3338+582894074+585358393+587636697+588632630+588677908+588702726+588544919
3328+587120964+584635519+583021494+583248912+583973662+583718762+582830757
3318+582374890+582412541+582195110+581230896+579956576+579555067+580389016
3308+581109529+580407479+578618455+576997831+576788027+579088849+584019364
3298+589850293+594149216+595518935+593728882+589689641+585651610+583791582
3288+584717359+587742931+591290773+593116964+591929144+588826212+585968737
3278+584454347+584275596+585250404+587153046+589522451+591968913+594153030
3268+594918094+592695116+588035058+584372871+584594115+587620777+589571361
3258+588383783+586093130+585820192+587873256+589636554+589049696+587165939
3248+586354871+587247416+588300975+587815145+585949185+584480800+584686003
3238+585882116+586530959+586355416+586006388+585906208+586470608+588049525
3228+589963427+590574195+589042069+586339193+584044364+582775552+582216841
3218+581993054+581722053+580837135+579253073+577854238+577433722+577526094
3208+577109997+575990699+574803666+574163480+574206155+574498766+574552095
3198+574498948+574518984+574212571+573353924+572539405+572454661+572951689
3188+573246783+572806533+571940441+571314540+570808432+569589680+567547209
3178+565694687+564870846+564766791+564555413+563813170+562632372+561394915
3168+560451342+559878588+559514307+559087314+558408084+557505370+556433045
3158+554895350+552715410+550682079+549821980+549884267+549451100+547853478
3148+546139151+545759918+547151489+549617684+551874984+552696585+551511489
3138+548700321+545396907+542898932+541938289+542292644+543103167+543659396
3128+543899527+544108786+544260358+544066292+543698984+543591358+543333552
3118+542007477+539859983+538143900+537269818+536512925+535402768+534273059
3108+533606056+533606964+534258168+535434910+536837861+537763577+537317456
3098+535332369+532693536+530327884+528398487+526753468+525584837+525255422
3088+525778903+526561461+526852014+526576775+526370180+526583858+526577562
3078+525514680+523711129+522471312+522494133+522967009+522498067+520795967
3068+519082669+518736849+519821825+521162368+521635304+521105467+520265586
3058+519824791+519763836+519408815+518310704+516712538+515100570+513847496
3048+513325892+513757909+514841251+515809460+515906312+514957169+513568868
3038+512515429+511967190+511537352+510901645+510117392+509434530+508977090
3028+508561598+507796171+506606989+505468714+504764152+504251234+503504360
3018+502611785+502152195+502640810+503945638+505085214+504924865+503354059
3008+501397845+499971620+499142937+498684770+498417279+497836656+496520750
2998+495106782+494694711+495254662+495608199+495023067+494025378+493351293
2988+493001660+492659321+492325427+492107633+491804851+491157552+490215644
2978+489217380+488436123+488249049+488871349+489918099+490664489+490710584
2968+490081353+488989295+487754321+486580181+485375412+484148640+483299346
2958+483075740+483136121+482964089+482353866+481368768+480149774+478877633
2948+477648833+476305234+474691511+473193040+472701248+473724542+475660628
2938+477265393+477799558+477477527+476960039+476705532+476694969+476624782
2928+476259108+475486205+474266303+472815563+471648021+471113190+470928568
2918+470384839+469182885+467949757+467561807+468037225+468519666+468331502
2908+467647883+467084905+466859968+466449622+465241251+463521325+462315830
2898+462227271+462935193+463702951+463903342+463214639+461824249+460409162
2888+459551181+459171796+458724798+457932222+457102630+456643888+456538684
2878+456489986+456369618+456267319+456163688+455873467+455489512+455504464
2868+456049585+456368044+455643203+454145308+452985272+452788634+452959637
2858+452382071+450816107+449274145+448790524+449284738+449867571+449832613
2848+449163553+448340166+447799585+447551585+447282611+446740910+445989133
2838+445359690+445121981+445146557+445023647+444524530+443770876+442989166
2828+442238932+441381375+440414678+439778850+439924490+440616976+441088430
2818+440802355+439796798+438552622+437714768+437595187+437867279+437975086
2808+437656900+436889445+435762732+434654905+434019652+433760453+433326742
2798+432651174+432376207+432803442+433214878+432728897+431445346+430232405
2788+429655959+429579779+429593611+429348698+428565716+427239762+425904244
2778+425210911+425139665+425053679+424562976+423865950+423262778+422822105
2768+422516873+422315361+422136580+421891849+421519486+420917495+419969564
2758+418711376+417369804+416189460+415323913+414904517+414992470+415359990
2748+415533445+415238169+414674102+414203949+413890454+413523751+413011226
2738+412471311+411970530+411480220+411082343+410843060+410500631+409735597
2728+408747139+408079562+407877839+407737646+407258203+406366324+405176567
2718+403934692+403039363+402761612+402936791+403093115+402837398+402135226
2708+401338322+400818261+400501467+400015425+399321456+398795039+398643588
2698+398678606+398668830+398544406+398250644+397710759+396981954+396257718
2688+395648706+395069444+394424566+393835318+393542857+393562681+393566858
2678+393239773+392709967+392430309+392572196+392745469+392452009+391664306
2668+390806265+390282481+390160600+390177700+389958756+389347716+388551659
2658+387878452+387410903+387036875+386664906+386260461+385778626+385214589
2648+384652186+384193807+383925136+383924803+384163874+384422891+384410845
2638+383982399+383291426+382694096+382355087+382069829+381685058+381442112
2628+381570410+381800311+381613448+380835400+379811834+379104003+379009179
2618+379268952+379340834+378977612+378377437+377859616+377641670+377788642
2608+378098414+378176713+377859313+377375117+376947822+376518680+376020047
2598+375637969+375586789+375800558+375991597+375897107+375436458+374769880
2588+374230327+374084233+374320671+374696666+374959254+374979653+374748209
2578+374397819+374192828+374256477+374323426+374036201+373468502+373054099
2568+373014844+373124982+373043506+372722444+372452320+372518512+372853254
2558+373122258+373135091+373013815+372954494+372978283+372947805+372755011
2548+372472992+372319271+372439548+372728619+372904404+372776893+372445964
2538+372226687+372322419+372555376+372542846+372182832+371783714+371647396
2528+371753085+371947453+372241608+372754647+373390809+373717742+373373920
2518+372585128+371966278+371819216+371956896+372116852+372206227+372280651
2508+372497598+372905342+373252190+373257154+372991570+372751530+372658311
2498+372563306+372260192+371710894+371098279+370669350+370538540+370639265
2488+370850249+371164774+371639769+372139400+372371601+372294483+372198631
2478+372302867+372561702+372862364+373142204+373334181+373365870+373235938
2468+373080522+373069626+373155612+373126344+372981673+372940693+373046412
2458+373109426+373023016+372876044+372837576+373048561+373474010+373840289
2448+373861324+373499766+372970565+372597052+372626713+373027253+373484754
2438+373722070+373759630+373743983+373671859+373532151+373547950+373894254
2428+374298305+374335835+374034688+373784388+373751640+373757935+373669892
2418+373599130+373692621+373964077+374390677+374939914+375402833+375457765
2408+375076020+374676842+374735982+375336792+376158908+376862290+377416824
2398+377983827+378575407+379049736+379345707+379473429+379423037+379295738
2388+379276973+379285810+378946347+378020389+376565532+374633652+372127384
2378+369020427+365482724+361781009+358293547+355496605+353503618+351752730
2368+349734683+347854770+346882686+346852541+347265793+348024229+349447186
2358+351693983+354692104+358453231+363109051+368372886+373039178+375548412
2348+375082739+372169636+368624487+366327388+365542287+365234996+364720989
2338+364113641+363683319+363506051+363666945+364339425+365481876+366702747
2328+367629280+368262052+368872729+369697659+370786086+372082621+373537690
2318+375032558+376312720+377209169+377851202+378459004+379055728+379602968
2308+380239462+381149319+382308659+383524172+384650552+385666703+386582976
2298+387389384+388106295+388767940+389307704+389578040+389556309+389446231
2288+389516418+389858091+390303395+390575577+390533750+390265623+389951795
2278+389692203+389444355+389079498+388537797+387935322+387443469+387095168
2268+386834002+386708368+386840570+387203853+387597947+387895885+388200664
2258+388678716+389302226+389876917+390351760+390943249+391803015+392683696
2248+393131239+392954788+392373015+391742968+391220758+390703058+390087144
2238+389456128+388904228+388375329+387833537+387394983+387171075+387165597
2228+387345014+387655089+388038347+388529111+389200471+390000977+390802270
2218+391593726+392485423+393529449+394667845+395895222+397350563+399120157
2208+401049312+402914788+404679175+406423254+408188368+410071126+412326791
2198+415123280+418214408+421099455+423572642+425878670+428235060+430488062
2188+432383804+433958212+435525809+437331268+439227524+440763948+441693811
2178+442313083+443119521+444183250+445061146+445368407+445196859+444836815
2168+444368902+443736887+442996278+442299585+441678768+440877657+439591170
2158+437995001+436627553+435567122+434277457+432410196+430264215+428406608
2148+427063221+425871133+424574628+424058502+425763386+429911495+435328747
2138+441009254+446841393+452942597+459160719+465032991+469983542+473985616
2128+477800980+482151447+487085139+492169527+496725257+500097466+502217086
2118+503647972+504900833+506040591+507058104+508322860+510441662+513746105
2108+518202170+523951986+531558258+541266263+552058154+561848906+568892896
2098+572660348+573337883+571444200+567971175+563754272+558766252+552646767
2088+545243701+536425820+526280229+515400506+504446268+493917389+484376543
2078+476179115+469194991+463192031+458080737+453715561+449916995+446631498
2068+443904198+441843597+440455144+439409574+438335403+437242558+436293265
2058+435510132+434956778+434745309+434793765+434952026+435266157+435905375
2048+436971344+438472175+440537740+443683801+448553572+455307493+463693024
2038+473681201+485454316+498839792+513185579+527559694+540835517+551984305
2028+560568169+566788803+570991602+573238127+573474383+572020707+569539923
2018+566527486+563171349+559566969+555685717+551295208+546246898+540758278
2008+535185095+529547808+523563189+517238682+511116715+505743530+501172152
1998+497198527+493905403+491646439+490375690+489309479+487661465+485527893
1988+483602672+482376807+481969155+482317849+483268384+484629053+486135725
1978+487430838+488379708+489259813+490337222+491586755+493071454+495093980
1968+497637657+500037388+501607286+502445261+503287806+504727924+506836920
1958+509343914+511858717+514084782+516103162+518272085+520726537+523231413
1948+525614256+528169252+531446274+535421654+539019859+541136179+542052695
1938+543019391+544882748+547632415+550669428+553262075+555167684+556842363
1928+558893974+561548485+564511588+567087710+568893985+570572902+572910225
1918+575331869+576457038+576238094+576086219+576991233+578723599+580496098
1908+581661460+581979072+581774958+581718905+582181914+582992801+583822332
1898+584545690+585273224+586234110+587649832+589540611+591341075+591882231
1888+590652463+588859686+588030155+588201763+588391834+588154246+587811937
1878+587629070+587489907+587213760+587003169+587535669+589252660+591356148
1868+591942824+589929468+586247608+582511209+579549135+577315624+575494397
1858+573850347+572250486+570743118+569521218+568656942+568034794+567632680
1848+567772509+568833756+570280774+570264854+567739579+564224787+561699997
1838+560559271+559913939+558971213+557995316+557777703+558163837+557728854
1828+555796309+553465402+551503378+549285908+546491568+544028399+542659528
1818+542084595+541692650+541516442+542032235+543228650+544211872+544057394
1808+543017817+542282111+542727324+544380090+546655368+548630710+549489719
1798+549354491+549471015+551156287+554448321+557479159+558072797+556700597
1788+555749760+556640246+559086708+562071179+564886947+567168460+568727341
1778+570033924+572301454+576674287+583041287+588858354+590687571+588440199
1768+584788786+581886881+580996153+582649161+585743074+587931791+588499702
1758+588755329+589333652+590172868+592284104+596904210+603065946+607632603
1748+608998266+608667640+608656321+609894382+612388604+615293717+617240488
1738+618296711+620728645+626041117+631493842+632503819+629825458+626746678
1728+624577090+623731578+624464076+626320957+628843266+632755450+639102596
1718+646792402+651627761+651005007+647551898+644793938+644140131+645705429
1708+649338198+654147709+658181684+660918760+664696564+671321673+678319477
1698+681935720+682098128+679473520+675042697+671797152+671935770+675112490
1688+680202447+687685233+697729675+705053142+704017076+698809990+695738595
1678+697216848+702678713+708979793+712832354+714954970+717745072+720335540
1668+720237478+719023690+720407029+724848687+728868679+729365465+727785519
1658+727558100+730847047+738439276+748422217+753957810+753407513+753114478
1648+755084674+755857123+752321084+747038334+743583469+742688321+744070146
1638+747860056+753220893+755947437+752819021+747450315+744178377+743565248
1628+743988125+744579281+745998091+747969014+748590617+747725433+747857635
1618+750335876+752821139+751993122+748982864+746741606+745680782+744471171
1608+742587172+741134827+741168665+742258665+743121307+743214829+743297092
1598+744479766+747039726+750079644+752287065+753284694+753866285+754623722
1588+755112216+754724508+753573371+752145481+750951487+750830423+752796684
1578+757031747+761450766+762339497+759863859+758154071+759162050+760835276
1568+760355560+758380885+757143792+757929134+762361470+772703245+787107082
1558+793865543+787967242+779198089+772786174+768898626+767301670+767548883
1548+768971991+771663729+776137166+782289157+789934654+798332685+802674284
1538+799418327+793951014+792082511+794554942+798159684+800184602+801547480
1528+804026630+808074224+813926279+822750939+834476597+844675880+848654286
1518+848056593+846970286+847299156+849473043+853772511+860334243+869114897
1508+879251286+886369489+885484027+880377243+877384539+878620664+883670729
1498+890383973+895157104+896418289+897047580+900331745+905832168+909574682
1488+909058162+906737849+905823936+907330033+911263646+916793428+921835624
1478+924823606+926483152+928928161+933357350+938042286+939788817+938856442
1468+938187866+938834227+939052990+937386603+935346009+935578088+939469813
1458+945376649+947100298+941264830+933467276+929085968+929369803+933149120
1448+937349195+938290044+935142016+930995754+929308060+930966275+934759877
1438+939097057+942871652+945697590+947642483+948493987+947862881+946555873
1428+946378091+947965664+950463457+953185037+956608184+961147238+965262508
1418+966233986+964214638+962494257+963545396+966884100+969518514+969481105
1408+968150854+967363574+966674538+964852403+962486570+961497053+962900548
1398+965775698+967810664+967243176+964936966+963738251+965199554+968345646
1388+970701249+969710703+965647552+962584934+963947873+968594069+972716300
1378+975188851+978005709+981784844+984789835+986083102+986559065+987004520
1368+987709597+989013699+991037648+994261160+999536223+1005741966+1009596100
1358+1009979328+1009614502+1011104558+1013738064+1015279875+1015377755
1350+1015851661+1018309019+1022262486+1025515840+1026537500+1026296824
1341+1027325021+1031182969+1037058570+1042589986+1046432438+1048848876
1332+1049678407+1048507234+1046304958+1044446746+1043031870+1041851980
1324+1042000041+1045111750+1050762899+1055740931+1057087406+1055530401
1315+1054520969+1056458962+1061047289+1066690569+1071617512+1073741823
1307+1071771869+1067005093+1062589161+1060750562+1060998985+1061064360
1298+1059270433+1055272171+1050214237+1046924079+1047690536+1050830211
1290+1050674764+1043714308+1033551345+1026587983+1024660402+1023878449
1281+1020226431+1014047746+1007733106+1001943884+996263317+991210406+987714016
1271+985513859+982975872+978572167+972380468+965732599+959541687+953439514
1261+946408054+938089683+929552549+922348149+916647183+911219518+905386471
1251+899627152+894185323+888564804+882250043+874795706+865977643+856522723
1241+847631114+839859407+833222374+827712628+823029750+818445357+813616476
1231+809122457+805779697+803768642+802649708+801889910+801223452+800743312
1221+800705177+801188707+802042632+803090986+804131713+804881100+805446953
1211+806564071+808807085+812194639+816891924+823167823+830136270+835765142
1201+839150335+841814107+845628472+850280419+853761131+855119712+855600639
1191+856756800+858682384+860830000+863296982+866219045+869025975+871283577
1181+873375443+876277046+881497206+890288211+901961327+913648426+922843785
1171+929796856+936088071+941817729+945927490+948718501+951723371+954922730
1161+956406854+955499964+954477759+955920298+960352513+966704501+972892327
1151+977069097+979136629+979891826+979890313+978934815+976428063+972635308
1141+969412644+968533900+969432377+970256339+970929576+973027071+976945793
1131+981000531+983070242+982608927+981502038+982688284+987234360+993532172
1121+998899244+1000858787+997962451+991414036+984926335+981610451+981944830
1111+984620043+988125513+991205200+992810207+992952457+993247309+994793902
1101+997061976+997792900+995157397+991015675+989252377+991201569+993812678
1091+992688961+986794293+978948071+972207710+967363635+964776738+966043552
1081+970352766+972764181+971190106+969550293+969722870+968053700+962300010
1071+955726777+952140315+951071622+949062080+944051119+937934176+934237970
1061+934750858+938899722+944486828+948693138+950070362+949224125+946720460
1051+942913117+939925256+940117990+942714390+945068117+946312958+946906111
1041+946676332+946167560+947180685+949951296+952202905+951638081+948241448
1031+944144641+941425300+940521133+940981661+942281223+943420617+943344770
1021+941815550+939644024+938392827+939062311+941144916+943193319+944105537
1011+943105790+939516059+934122838+928312369+921315170+911806497+901588753
1001+893892530+889067220+884765572+879638570+874741590+871280611+868662904
991+865287518+860341567+854347928+848799018+845197484+843609063+842645938
981+841253157+839479932+837217064+834198211+831315736+829388820+826949198
971+822182665+816372075+812291490+810352589+808382151+804553803+799444234
961+795058084+792707868+792366407+793574263+796175445+800105668+804960699
951+810215726+815736186+821567175+827163118+831333351+833790467+836319616
941+840987543+847833714+855506148+862995775+869858230+875628203+880501575
931+886176452+893820376+902052065+908025486+910153792+909374805+907363265
921+904585148+901065817+897636920+895131318+893282670+891598427+890406249
911+889991604+889515520+887948830+885936201+885466533+887563725+891241348
901+894877083+897904411+900961217+904871707+909359975+912784574+914073482
891+914578077+916307840+919494427+923447592+927643188+930710951+930560831
881+927617462+924715920+922855407+921110693+919789763+920065850+921312628
871+921841254+921376973+920404647+918901819+917589000+918220652+921062449
861+924259992+926361362+927672001+929044080+930932195+933482288+936769540
851+940930088+945549044+949206812+950106439+948544774+948035397+951189539
841+956055769+957694734+954227762+949475333+948343565+952622513+959733573
831+965284178+967362848+966903046+965465653+964648289+965769766+968560171
821+971635622+974400240+976418438+976487384+975404890+976349492+980087647
811+983366243+983424112+981161425+979558295+981306520+987118744+995042325
801+1001064656+1001354665+996245520+990223068+986972862+985300181+982307780
791+978124231+973521073+967227619+959144899+952550420+949938645+949892822
781+949448456+946010601+937079403+922944087+908507563+899115172+896940680
771+901603159+910234602+917848804+921765407+923801160+926608030+930727476
761+935641465+941091769+946905627+952835526+957787832+960165711+960109961
751+959660148+959346955+957554844+954734294+952974447+953126927+955428354
741+960020616+966025151+970861780+971566131+968061266+964678374+966433378
731+973503579+980565305+982633019+980732132+978101531+975088792+971228302
721+968034995+965681147+962960414+961493058+962960899+963870211+959965290
711+955037620+956340088+963449997+967553887+962628215+953195510+946743522
701+945513512+948257247+953834183+960335019+964774135+964348777+958090795
691+948034186+937837930+931579403+932984352+942402711+952660346+952323183
681+940194684+925823232+916639556+911690336+906311824+900540217+897266524
671+895289488+890065332+883518552+886532562+898929399+910608266+916911708
661+917451351+912959209+906761880+903553985+905701117+912946194+923085247
651+929925426+926022988+914763547+909760636+914394847+915879637+905459170
641+894442524+895204925+903410282+904794044+895436823+886448241+886774509
631+893871283+897898418+894904201+890992864+891356601+894441858+893649494
621+885064358+874698370+870269061+871170443+871159487+866904328+861988099
611+864464524+877570918+892568634+896181427+886619305+874504002+867809645
601+862953040+851890147
##END=
