##TITLE=<SNM>
##JCAMP-DX=4.24
##DATA TYPE=INFRARED SPECTRUM
##DATE=29/4/2025
##SAMPLING PROCEDURE=Instrument type and / or accessory
##ORIGIN=Admin
##XUNITS=1/CM
##YUNITS=ABSORBANCE
##RESOLUTION=4
##FIRSTX=4497.3318
##LASTX=599.83466
##DELTAX=-1.4281778
##MAXY=2.1170957
##MINY=0.38308841
##XFACTOR=1
##YFACTOR=1.971699e-09
##NPOINTS=2730
##FIRSTY=0.39143059
##XYDATA=(X++(Y..Y))
4497+198524512+199740381+201066092+201837034+201656379+201067407+200981598
4487+201312633+201056599+199975375+199204386+199789505+201419950+202936579
4477+203520866+203061021+201908241+200776276+200441115+200998709+201704415
4467+201841599+201421628+200982143+201055405+201694091+202289413+202168266
4457+201413541+200721589+200587050+200966619+201489313+201642171+201117090
4447+200257512+199660936+199260932+198476763+197356239+196841557+197604610
4437+199126287+200227645+200225181+199394972+198488235+197936612+197634009
4427+197446098+197564283+198173797+198918259+198924229+197624698+195617556
4417+194293553+194424495+195568885+196939351+198204345+199334406+200307029
4407+201025084+201175313+200407484+198927585+197606681+197222758+197671101
4397+198087173+197817823+197103017+196644986+196834453+197608570+198637663
4387+199413820+199587099+199335041+198988831+198494070+197655064+196568005
4377+195536766+194871190+194788571+195204537+195787434+196344484+196870079
4367+197314522+197622642+197793850+197657739+197003348+196148381+195845717
4357+196459282+197652887+198859234+199703531+200021340+199786391+199162125
4347+198522652+198177924+197973115+197471628+196699203+196231589+196350923
4337+196641449+196635569+196439497+196393562+196408526+196143589+195777564
4327+195977551+196883259+197671131+197531937+196705506+196040853+195844901
4317+195769598+195724479+196179034+197294751+198428410+198960173+199021071
4307+198990146+198908358+198739553+198630196+198760049+199258649+200044753
4297+200587836+200368064+199686496+199358938+199698240+200404536+201099254
4287+201444028+201186422+200493231+199896716+199681825+199588369+199284632
4277+198931620+199065902+199885229+200852335+201257524+200997212+200573492
4267+200535085+201059441+201864740+202498303+202873292+203318188+203878442
4257+203966246+203175170+202060707+201529111+201824262+202618346+203588400
4247+204356637+204430263+203788085+203066719+202841308+203176167+203872699
4237+204554735+204654645+203946762+202989753+202605287+203071677+204093303
4227+205326675+206568709+207435043+207302650+205997043+204327722+203472830
4217+203881889+205018631+205994851+206255042+205834858+205153850+204508785
4207+203869902+203300821+203264696+204139253+205617791+206961020+207765443
4197+208179338+208397736+208303871+207733278+206891461+206256069+206082564
4187+206256719+206616654+207091221+207496365+207591302+207419852+207290815
4177+207477758+208123533+209168210+210203696+210759522+210837697+210767548
4167+210650679+210453639+210377172+210561061+210760051+210791324+210881032
4157+211149974+211225987+210776829+210051019+209574260+209626135+210151610
4147+210879913+211427970+211546321+211345668+211107848+210906697+210601479
4137+210166332+209837020+209883454+210318178+210910733+211490667+212068077
4127+212564757+212723254+212487580+212190040+212149396+212303418+212399051
4117+212411052+212647784+213417790+214618681+215718965+216167610+215800723
4107+214925425+214095624+213825911+214414370+215738056+217109610+217710010
4097+217450001+217079395+217225149+217747722+218174299+218267060+218045579
4087+217738154+217769488+218350102+219118082+219537192+219484592+219147088
4077+218632088+218028831+217571783+217451255+217610402+217783484+217628600
4067+216999708+216230579+215886818+216153024+216726005+217221612+217425666
4057+217360081+217340810+217778451+218755215+219866277+220553407+220590892
4047+220199745+219706753+219241920+218793774+218348228+217889032+217459266
4037+217243257+217361759+217666252+218016845+218590915+219575932+220762055
4027+221754932+222401750+222746177+222786005+222519028+222048708+221535885
4017+221175588+221159611+221426074+221635675+221707486+222053560+222903842
4007+223745508+223902690+223490442+223318992+223844542+224600975+224906646
3997+224788084+224702986+224676731+224455099+224258725+224486493+224948409
3987+225215356+225334372+225520710+225673387+225729630+225947045+226477387
3977+227109604+227516561+227467468+226956836+226262572+225678783+225258404
3967+224993709+225004970+225363498+225950431+226610913+227303182+227998051
3957+228444837+228275624+227660653+227589113+228882992+230941721+232022976
3947+231183638+229539317+228948485+229818840+230817703+230774232+230024420
3937+229551031+229979876+231538962+233816785+235380950+234957487+233252449
3927+232225956+232667467+233461657+233421179+233171569+234230136+236651143
3917+238434673+237682186+234906262+232123930+230447686+229686296+229833517
3907+231951996+237111396+244532929+251171685+254147323+252984780+248744979
3897+242991709+237932551+235674862+236740957+239297501+240783733+241357923
3887+243144325+246176676+248021089+248050926+248218023+248400930+246386805
3878+243112221+242104667+244461163+248468691+252750678+256335256+256899985
3868+254196629+251773913+251724170+251858769+249503059+245716921+243363085
3858+244439080+250339087+261214393+270933368+269522953+259346446+248969740
3848+242585870+241187335+244172949+249737569+255903964+261827037+266965971
3838+269326669+267225103+262203069+256990161+253003628+250665905+250110230
3828+250900672+252148706+254170842+258767660+265532641+269383683+267673718
3818+264491880+262359872+259046352+253535375+248613463+247058744+249626307
3808+254589559+258551304+260722217+263774429+268085210+269590699+266814458
3798+263082553+259881216+256228423+252511664+250411458+250231468+251062267
3788+252734580+255562787+258618142+260596642+262026797+264051760+265806224
3778+265554498+263778691+262589863+263563604+267127067+272211829+276598065
3768+279245193+280969306+282371740+283809030+286530373+291290736+296482301
3758+299817285+301851528+305500512+313244404+324970748+335936986+341030575
3748+342803510+346297534+351054693+351743546+347673850+344599812+346762987
3738+354758453+365979108+375422717+379113267+377446894+374088754+372568210
3728+374314240+378571332+383678555+388683480+393086856+396124829+397995406
3718+400162239+403780932+409699410+419096797+431085085+440068320+441466975
3708+438276794+436321269+438577341+444345303+450671676+455172121+457872424
3698+459702342+461550307+464827854+470800111+479360185+488539492+494286777
3688+493291179+487288118+480451764+475718910+474418291+476754835+482990064
3678+493914433+507018725+513598033+510430826+505228469+503482439+503168832
3668+500625725+496554337+493465667+492610095+493992880+496983755+500982441
3658+505618135+509995089+513195126+516424123+522687375+533156419+542913061
3648+544722029+539362899+532604720+527787434+525305543+524702634+526052166
3638+529604383+534446337+538376068+540490300+543378604+550147908+558464267
3628+560945311+557306031+554191848+554962352+559057079+564338760+567813588
3618+567920179+566863880+567186253+568578168+569940275+571869197+574520195
3608+575395900+572813101+569393171+568997157+572498406+577218231+579875456
3598+580352305+580968878+582681594+584207609+584873820+586428614+590324971
3588+594536265+595831866+595312271+596287917+598077539+597237324+593805724
3578+591506544+591972874+593475612+594795760+597006124+601514338+608044521
3568+613727114+614533411+610336990+605568979+603663153+604300887+605206883
3558+605532280+606589789+609259529+612052850+612515431+610631310+609396834
3548+611305683+615335294+617826798+616551934+613325477+611610886+612784116
3538+615538078+617525827+617312161+615329792+613354377+613127228+614982630
3528+617866097+620931912+623995732+626317343+626820190+625796599+624570588
3518+623511990+622239122+621254225+621660760+623658667+626379375+628914410
3508+630924348+632853452+635078931+636036620+633573956+628751651+624947436
3498+623865319+624982926+627383981+630451913+633474196+635695141+636731126
3488+635841454+632345828+627916575+626162625+629251355+635181773+638670266
3478+636534630+631334329+627869839+628110713+630636800+633433990+635608622
3468+637124420+638024914+638185859+637806592+637487906+637488571+637043524
3458+635470168+634017310+634650933+637033064+638438401+637451086+635794658
3448+635536312+636558815+637472368+637253321+635434920+632068860+628460294
3438+627138392+629302202+632572009+633014215+629847129+626325747+625250765
3428+626447574+628414586+629893623+630320351+630314547+631197084+632931687
3418+633591126+632076478+629910310+628822692+628232540+626939720+625809840
3408+626553984+628797782+630264063+629467198+627404538+626490319+628225345
3398+631959487+635250638+635460072+632079864+627900493+626818437+629982076
3388+634615564+636703073+634927176+631814262+630535106+631422359+632373640
3378+632085486+631249866+630825496+631095390+631696002+631846971+631788204
3368+632835374+635068773+637123755+638641124+640462789+642155070+642539294
3358+642270972+642941052+644416160+645171247+644829466+645063386+647730406
3348+651826583+654090515+653349515+651581599+650656558+650701057+651018110
3338+650732012+649014520+646073313+643606356+643169289+644449957+645869865
3328+646101185+644625533+642167041+640666177+641229243+642596550+643425217
3318+644677590+647222057+649212164+648484223+645457949+641826529+638807329
3308+637303986+637607013+638882360+640055711+641016665+642420309+644740106
3298+647338201+648551999+647659849+645974219+645180498+645662970+646746779
3288+647550235+647614322+647304706+647137533+647411781+648792631+651830332
3278+655646458+658450118+659720930+660499960+661461095+662246473+662371384
3268+661611520+659936471+657745696+655720522+654270445+653280590+652313651
3258+651431295+651660862+653715239+656277602+657092545+655918045+654900440
3248+655798939+657640919+657863049+655592527+652711358+651267448+651413640
3238+652348778+653560461+654962714+656631899+658619588+660380974+660441737
3228+658442137+655851781+653614996+651817031+651289032+653181980+656505114
3218+658167043+656496830+652972606+650198088+649402553+650247545+652003611
3208+653834345+654329151+652342248+648621408+645397066+643992334+643479632
3198+642122300+639830315+638102363+637795709+638567181+640155168+642284576
3188+643811558+643622862+642092131+640909953+641467940+643310948+644157209
3178+642221274+638326429+634643375+632331680+631410569+631554525+631922304
3168+631106696+628424441+625053664+623075528+623145783+623566707+622234346
3158+619103717+615785723+613438054+612138341+611534344+611383133+611884952
3148+613329165+615249138+616804900+617974321+619142412+619572404+618143912
3138+615711538+614497437+615008446+615521209+614914068+614162487+614242537
3128+614364606+613460787+612008170+611094798+610491164+608713634+605164621
3118+601338157+599134383+598887101+599728706+600769831+601206777+600453019
3108+598968964+598055048+598554630+600406526+602908973+604576948+603741207
3098+600443164+596721900+594436264+593804273+594026827+594277918+594133963
3088+593899317+594095329+594333844+593788191+592921736+593310314+595120310
3078+596223588+594773873+591568093+588995270+588520718+589629679+590689788
3068+590764879+590394984+590183071+589487235+587591989+585460889+584917956
3058+586246508+587706198+587616294+586122565+584439111+583117270+581880497
3048+580554907+579255316+578055725+577110309+576778201+577247614+578199137
3038+579090924+579539116+579337541+578439466+577057709+575670994+574633134
3028+573665469+572239395+570680429+570141124+571111026+572712072+573784092
3018+574005920+573526290+572327908+570389978+567956032+565404431+562909239
3008+560466890+558437181+557645334+558390203+559696687+560190224+559462767
2998+558197879+557312077+557257723+557765649+558025265+557461414+556326213
2988+555153044+553888338+552206517+550501539+549698145+549943855+550181161
2978+549462652+548139239+547189651+546950229+546995453+547006034+547221877
2968+547820674+548386098+548329991+547544371+546283837+544735452+543197828
2958+542322727+542499573+543091660+542884765+541406211+539391557+537942145
2948+537612879+538213128+539044516+539273720+538378668+536512987+534454136
2938+532987372+532234704+531680949+530872233+529882198+529117558+528884605
2928+529080556+529239264+528880735+527909261+526761606+526093883+526151744
2918+526535424+526765536+526761001+526516500+525845876+524711824+523283936
2908+521710822+520213042+519021311+518082425+517255451+516697947+516634162
2898+516927575+517196079+517109742+516515962+515584694+514675917+513844952
2888+512844880+511728604+510890142+510432398+510121572+509965041+510167098
2878+510483910+510274294+509292240+507854496+506299158+504904795+504138825
2868+504293543+505003799+505616986+505824274+505562874+504754824+503565390
2858+502459150+501738888+501323194+500994714+500582103+499993100+499360566
2848+498927338+498511735+497535091+495904692+494281336+493112338+492066891
2838+490872772+490070526+490270468+491005361+491016123+489687843+487719834
2828+486301770+485954185+486209478+486248293+485824165+485460406+485572348
2818+485758324+485420291+484651963+483907426+483184957+482127720+480650345
2808+479051234+477710680+476853566+476458096+476329467+476225748+475824050
2798+474864456+473639352+472915794+472978764+473120845+472488129+471163568
2788+469982417+469475701+469332380+468822277+467586592+466000298+464830817
2778+464594296+465213076+466144133+466733892+466617959+465913084+464916730
2768+463708131+462268756+460804470+459604578+458723370+458053744+457560147
2758+457305609+457326559+457468338+457437957+457176708+456916790+456676733
2748+456144623+455260544+454397595+453795291+453277087+452594703+451683265
2738+450608011+449591948+448989825+448861468+448697137+447994438+446968671
2728+446214823+445838791+445470800+444948243+444406187+443838587+443074521
2718+442173513+441520634+441375953+441435627+441087618+440157045+439085630
2708+438268269+437580897+436715591+435679273+434806863+434420069+434516472
2698+434704111+434495160+433759571+432810800+432025543+431531372+431214772
2688+430796539+429994836+428884334+427943785+427525552+427508502+427578394
2678+427521380+427186763+426515081+425671843+424908351+424281016+423675266
2668+423082454+422713102+422694299+422758871+422543058+422082412+421649094
2658+421295190+420935633+420592099+420196780+419526276+418686756+418246757
2648+418507462+418965115+418857405+418082396+417218964+416688396+416294951
2638+415685362+414920147+414379180+414284680+414448346+414408987+413859464
2628+413029557+412477374+412411624+412494001+412398595+412199016+412061166
2618+411915971+411603332+411094892+410494492+409943004+409479214+408974583
2608+408341656+407760966+407516374+407671031+408042408+408405411+408624882
2598+408632983+408330561+407612566+406581569+405615143+405068130+404988141
2588+405198724+405501871+405774819+406029991+406313579+406489337+406370503
2578+406061309+405796131+405532010+405121032+404661988+404273713+403850643
2568+403352511+402944254+402679952+402428801+402159783+402004098+402113259
2558+402583246+403288877+403780600+403660586+403031287+402320698+401832240
2548+401674923+401861110+402250413+402631917+402947549+403195375+403224517
2538+402957283+402613235+402368341+402074444+401631845+401306327+401368813
2528+401689645+401941038+402044153+402188985+402437205+402591348+402532006
2518+402359846+402093972+401595690+400930779+400452085+400431801+400863819
2508+401545538+402135539+402309634+402066554+401720993+401501976+401341515
2498+401114427+400899037+400899732+401192360+401626101+401964074+402067491
2488+401944545+401673048+401337101+401046923+400907169+400900065+400929267
2478+401054541+401471142+402130672+402644251+402745733+402638658+402706706
2468+403058373+403529297+403994659+404438618+404720786+404536110+403771259
2458+402781314+402118761+402011353+402218823+402343461+402175563+401820843
2448+401621506+401873595+402535362+403296616+403890244+404166819+404012223
2438+403470560+402801538+402206458+401723654+401512345+401866340+402752323
2428+403660465+404116245+404088221+403760467+403236821+402681524+402445971
2418+402748212+403359464+403840848+404042937+404214190+404597840+405031249
2408+405113021+404795998+404514254+404560325+404720574+404780037+404970638
2398+405543498+406207200+406428151+406148614+405849699+405942777+406333894
2388+406614459+406550493+406246801+405805139+404995547+403462216+401192662
2378+398574827+396004180+393620900+391448566+389613902+388268481+387319468
2368+386444095+385488401+384607677+383937295+383518306+383663864+384931109
2358+387456017+390673950+394043578+397702658+401716912+405059665+406330931
2348+405122453+402343340+399613140+398020225+397337902+396943822+396818458
2338+397143795+397695736+398050546+398060583+397907437+397843621+397978478
2328+398247737+398567632+398992969+399641133+400509099+401473348+402425536
2318+403283466+403888279+404076099+403985106+404129576+404873871+405929204
2308+406734201+407268034+408049270+409314279+410620279+411392749+411590605
2298+411644807+411931298+412501407+413174118+413682013+413818200+413623065
2288+413406617+413509702+414040270+414804819+415424899+415547573+415057029
2278+414155598+413231343+412601832+412353612+412391853+412567581+412755975
2268+412920668+413091136+413195218+413057127+412702498+412482846+412740104
2258+413458825+414287401+414832419+414995209+415050348+415315980+415822908
2248+416386307+416825913+416999826+416811402+416319710+415719008+415123233
2238+414475674+413760279+413196609+413039684+413233248+413486364+413643379
2228+413721615+413674456+413406406+412973420+412570846+412359447+412354398
2218+412419453+412429671+412537109+413125719+414324282+415668795+416462033
2208+416502783+416291989+416446344+417095535+417959330+418799998+419596622
2198+420395694+421178623+421851242+422306266+422543209+422717002+422998323
2188+423436478+424013178+424720169+425490976+426156038+426576418+426791595
2178+426981440+427304449+427769327+428231031+428514680+428571906+428540497
2168+428650867+429032945+429590297+430099886+430462012+430797778+431290015
2158+432008040+432916907+433961387+435052482+436033267+436799389+437452147
2148+438183111+439019426+439859067+440737372+441840680+443229057+444707823
2138+446041091+447251141+448615365+450312361+452194638+454029453+455804655
2128+457637233+459550012+461521407+463629473+465958308+468373118+470515495
2118+472124401+473287443+474285097+475315822+476428592+477540243+478509692
2108+479361848+480334924+481607430+483215127+485212006+487504988+489579015
2098+490841181+491236017+491212498+491149680+491002399+490353238+488709839
2088+485904003+482279324+478439528+474810707+471439599+468162989+464952704
2078+462054485+459720389+457880858+456264969+454825442+453825733+453495257
2068+453759801+454254667+454490946+454164400+453403751+452582671+451950379
2058+451607025+451663858+452160810+452914960+453646740+454249800+454828283
2048+455463992+456101605+456751945+457605583+458801213+460340227+462348533
2038+465098837+468658370+472749348+476988634+481155671+485297103+489550598
2028+493784746+497618859+500842203+503486157+505522910+506918482+507860724
2018+508482678+508521251+507697663+506311311+505050625+504256783+503585100
2008+502400413+500465204+498206623+496271504+494895521+493830484+492799306
1998+491845093+491336864+491753254+493164183+494779044+495512849+495229261
1988+494812902+494993255+495732441+496677947+497703443+498920809+500389387
1978+502002736+503679600+505418072+507087680+508584855+510269397+512657635
1968+515516072+517863982+519178931+520020476+521185665+522860896+524801184
1958+526831679+528900506+530964798+533040336+535164906+537301993+539493977
1948+542039230+545302508+549281090+553270495+556122825+557396359+558021759
1938+559240697+561370104+563824486+565888657+567425797+568949816+570863986
1928+573009113+575386771+578415886+581824813+584639114+586924932+589595700
1918+592033999+592397244+590929815+590163240+591618335+594332877+596396383
1908+597063924+597030792+597123417+597427229+597630012+597745915+598256259
1898+599562985+601370986+602813385+603503961+604075129+605018912+605601265
1888+604910930+603409039+602218699+601700192+601583020+601737677+602210657
1878+602875054+603319437+603118346+602588171+603085758+605622123+608807710
1868+609161644+605205069+599431786+594802350+592068159+590369772+588799742
1858+587133701+585590273+584313052+583145808+581989809+581194999+581319426
1848+582768838+585563792+588446413+588597200+584842562+579801936+576295608
1838+574591356+573340133+571815206+571019127+572315333+575018205+576225958
1828+574521767+571688179+568993227+565558423+561192472+557663955+556388306
1818+556813160+557402646+557612020+558279742+559997537+561854693+562432873
1808+561598765+560462476+560276259+561828695+564812526+567491759+568209421
1798+567553307+567856636+570861144+576093127+580280478+580006896+576445489
1788+573569398+573309903+575041603+577689880+580907813+584166255+586424624
1778+587710431+589776053+594576652+602319486+609855002+612452311+609513885
1768+604434020+600358520+599304457+602077766+607083567+610903925+612256299
1758+612617004+612678371+612652797+614555841+620473805+629065258+635592903
1748+637315051+636202099+635184434+635675249+637863364+640886917+643124609
1738+644589378+648035307+655257276+662439039+663360694+659295714+654916764
1728+652019210+651070045+652138860+654416093+657621753+663467588+673746484
1718+686387500+694193152+692970284+687081160+681956615+680064634+682034125
1708+687283883+693768540+699028274+703448034+710209780+720262798+728790465
1698+731585056+730721019+727781082+723087316+719226873+718580372+721290258
1688+727016201+736769759+750330555+760753952+760875174+755324929+751213818
1678+751358197+755643434+761473791+765791978+768789836+772141628+774583433
1668+773436020+770399165+769673885+772189693+774617593+774055616+772804332
1658+775097707+783009769+796597350+812032170+818932793+816753687+816323090
1648+820167934+821415168+814175665+804008378+797936603+796964222+800165831
1638+807317666+815822600+817700856+810065219+801362700+797596575+797870822
1628+798625910+798159157+797611871+797319184+795670495+793103658+792624753
1618+794892554+795604472+790694138+783193387+777837038+775754003+775398134
1608+774577206+772560617+770471536+769439541+769111000+768218366+766411997
1598+764915245+764849766+765567308+765618578+764905753+764489726+764520017
1588+763893830+762108623+760232543+759687132+760770397+763005731+766624152
1578+772087637+776955165+776238712+770898869+767135947+767442964+769219889
1568+768944493+766843381+765087798+765347233+770046138+782303292+799919032
1558+807226976+797371784+784396605+776171480+772739337+772004806+771876812
1548+772446226+776247237+785012090+797111503+808908434+816202653+813754136
1538+803594165+795518075+794433117+798407044+802000374+803094038+805033783
1528+810058326+816296548+821465470+826694007+833610108+840646585+845833888
1518+849342453+850377894+848153141+845735338+847341221+854243356+865964167
1508+881368878+893222521+891003814+880551275+873439827+872742963+876473236
1498+880975464+882792655+881553887+881182056+885793294+895179315+903290170
1488+904110614+900546910+899295444+902238465+907138279+912054841+917493295
1478+924682555+933391180+942140797+949037611+951652091+949408172+945693256
1468+943848132+944685989+947028580+948464630+948088809+948205619+951530566
1458+957883662+962815581+962692907+959835679+957351008+956279774+956508072
1448+957113157+957029722+956235215+955850628+957066059+960234596+964635614
1438+969026837+972796409+976739440+981513679+986027818+988686071+989438740
1428+989676530+989590737+988365995+987194639+988991153+995123509+1002824323
1418+1006511366+1005325198+1003500026+1002772387+1002272321+1002362528
1410+1004842121+1009147551+1010838018+1005835663+996442024+989666977+989446055
1400+994642971+1002359686+1010022410+1014207706+1011825695+1004468779+997436836
1390+994799865+996804906+999366786+997830311+993387515+991578002+995001379
1380+1000810696+1005276346+1008302378+1011294371+1013531156+1014232011
1371+1015768365+1020454513+1026224107+1028926919+1028273345+1027357978
1362+1027926545+1029793193+1032707979+1036164850+1038231863+1037346484
1354+1035261696+1035028441+1037169457+1040414959+1044586954+1050452801
1345+1057124946+1062387642+1065644632+1068260744+1071070450+1072952213
1337+1072422582+1069483249+1065409926+1061761637+1060010106+1061121364
1328+1064170250+1065887924+1063915108+1060306602+1058835485+1059861736
1320+1061031520+1061401174+1061771674+1062125487+1061168402+1058606946
1311+1055890349+1054531445+1055206907+1058249626+1063592734+1069600905
1302+1073427793+1073741823+1071696334+1068675018+1064966027+1060744697
1294+1056326146+1051067681+1043902666+1035239326+1026754827+1019957046
1285+1015682995+1013815198+1012773288+1009676820+1002574259+993341868+986249646
1275+983040722+981571660+979353860+976065551+972029532+966711454+959662945
1265+951396707+942799994+934673843+927751394+922281500+917612220+912648500
1255+906919897+901147158+896488883+893146523+889761417+884296179+875830363
1245+865522808+855510903+847111472+840330802+834709637+829824272+825115694
1235+820211405+815414071+811394315+808536181+806656957+805113771+803433522
1225+802017908+801569777+801801460+801690939+800997581+800466801+800762996
1215+802194935+804936381+808685155+812586288+815998600+818981101+821881799
1205+825069865+828945907+833490155+837938392+841604637+844906852+848653751
1195+852363044+854546563+854932783+854961743+855830314+857677373+860657395
1185+864933261+869462998+872725490+874691535+876739442+880400850+886850924
1175+896192325+906518018+915258505+922071703+928511801+934809939+939420754
1165+941925377+943584042+944988653+945766655+946686738+949696506+955263499
1155+962223071+969246368+974854231+977519014+977218890+975231926+971937874
1145+967258800+962323616+958435301+955815561+954982661+957487043+963059417
1135+967524522+967316055+965544512+968139402+975115782+980162092+979554829
1125+977146277+977953239+982010118+985394800+985459190+983965581+984601078
1115+988163211+991593480+992291977+990395643+988560011+989655913+993133220
1105+995986396+996818510+997003941+998038052+999690611+1001271826+1002507390
1095+1001890031+998092708+992701836+988699493+987025350+985984891+983934384
1085+980648554+976354309+971865322+969083488+969051444+969181071+966590412
1075+963179067+961849487+961446460+959047339+954324129+949153574+944786656
1065+940947736+937187778+934688535+934910726+936913288+938185068+937540381
1055+935766661+934374565+934546816+935900701+936233958+934440043+932271760
1045+932147393+934585632+937789780+939993735+941960807+944948507+946806086
1035+943988944+937492739+932240139+930807595+931669153+932813785+933832902
1025+934624084+935165203+936785113+940929719+946057770+948788455+949114214
1015+950531220+954770083+958804047+957044656+947223624+933520323+922196735
1005+916140317+913274323+909252995+902036286+892951115+884093758+876226679
995+869744017+865416458+862897022+860409932+856918054+852845214+848321462
985+843257740+838791485+836382812+835753301+835192774+833410529+830005653
975+825162006+819897133+815546902+812479092+810186320+808429710+807107748
965+805300714+801985199+797673783+794040730+792179463+792317433+794558813
955+798703722+803897071+809269623+814264058+818332786+821444612+824400268
945+827579265+830309345+832485186+835754087+841988076+851299186+862280328
935+873445087+883435166+890576783+893950462+895029918+896582294+899999322
925+904825012+909798346+913019725+912116631+906975823+901127932+897933337
915+897334297+897633636+898352326+899488675+899684868+897524626+893807473
905+890493711+888236672+886865495+887223057+890767837+896871354+901984955
895+903370763+902585023+903450208+907540279+912260224+914067802+913518219
885+913821790+915862079+918559390+921571516+924278802+925188486+924380920
875+923823356+924690113+926416130+928092329+928738164+927360458+924801178
865+923760900+925716183+928853643+930408256+930782988+933118202+938692752
855+944764467+947995036+948380893+947653678+946160190+943979814+942570487
845+942738143+943255804+943223941+943662701+945656315+949242390+954456416
835+960682968+965360108+966223238+964790573+963859970+962533171+958738267
825+954842877+955654555+962342963+970902735+976420513+978334803+980070736
815+983113153+984816740+982947190+979421152+977149300+976655340+978163580
805+982706679+989016304+993319195+993852938+992525958+991710168+991520868
795+989470119+982413085+970980064+960437440+955145420+954606115+955150620
785+953059665+946014602+934150439+920827312+910545090+905706642+905360689
776+906153564+905350532+904103359+906821770+916011960+928358172+937157487
766+939132238+937319823+936761231+940100084+946331776+951519683+952509779
756+950521425+949017297+949732661+951647012+952285351+950688839+949078119
746+949108954+948742384+946305960+943792327+943379263+944289794+945130432
736+946576761+949782722+954448737+959348310+962474767+961684854+957146350
726+951135398+945756316+942596183+942332395+944341789+948452477+955125468
716+963320302+971206729+977142891+978450947+973567578+965308354+958732281
706+956330802+956871619+957722475+956401480+952609478+949989436+951121371
696+952243089+949250008+944419541+939967858+934881342+930608016+928853341
686+927552480+922586764+912873351+904260072+902839983+906409190+907223165
676+902989018+899742850+902787987+910310021+917112094+919624819+917590636
666+913788718+910813835+908969135+908408548+911296187+918458603+926422539
656+928841612+921950420+910590193+904323616+906694078+912743120+916543466
646+918414467+920008076+917901522+914050874+917810832+929960730+938160219
636+934681219+928094868+924472940+917906541+904918000+893153052+888223975
626+883826101+871695551+856673129+850016403+853338811+858818317+860624807
616+857821450+849430725+839400017+836728886+843033553+852223743+859309315
606+863411538+863314983+857979372+851768781+850637389
##END=
