##TITLE=<SNM>
##JCAMP-DX=4.24
##DATA TYPE=INFRARED SPECTRUM
##DATE=29/4/2025
##SAMPLING PROCEDURE=Instrument type and / or accessory
##ORIGIN=Admin
##XUNITS=1/CM
##YUNITS=ABSORBANCE
##RESOLUTION=4
##FIRSTX=4497.3318
##LASTX=599.83466
##DELTAX=-1.4281778
##MAXY=2.06148
##MINY=0.53326887
##XFACTOR=1
##YFACTOR=1.9199029e-09
##NPOINTS=2730
##FIRSTY=0.54566264
##XYDATA=(X++(Y..Y))
4497+284213665+283013440+281600614+281214655+282227147+283500174+283604580
4487+282280297+280483033+279485722+280088908+282068224+284087620+284820049
4477+284437908+284162378+284646007+285567597+286287732+286434330+286215023
4467+286111486+286022106+285362323+284257626+283684399+284250237+285597463
4457+286930564+287640795+287478333+286379162+284533187+282774420+282108646
4447+282376197+282481907+282201658+282337638+283154232+284030962+284485253
4437+284530051+284268150+283792127+283403032+283394526+283503123+283168948
4427+282564986+282660948+283811003+284979686+284920637+283626871+282126807
4417+281270848+281155916+281509247+282223142+283178106+283892187+283992744
4407+283789333+283755400+283646182+282846073+281456004+280209645+279418136
4397+278908397+278779278+279318883+280256741+280936517+281352715+282090173
4387+283120889+283613460+283110520+282090298+281144274+280343048+279637660
4377+279225404+279290662+279746847+280285583+280538853+280296728+279730393
4367+279263373+279158843+279370791+279672245+279714218+279201686+278319182
4357+277758249+277926423+278427345+278839383+279585379+281179418+282998352
4347+283862166+283645219+283260315+283275559+283473754+283523676+283433177
4337+283339668+283199559+282909592+282663897+282975813+284135523+285586380
4327+286076746+284810766+282536517+281025276+281370473+283040853+284422571
4317+284203482+282486068+280567260+279484325+279106872+278913799+279013797
4307+279868050+281591456+283829258+285784762+286536222+285976158+285036003
4297+284489630+284237353+283984766+283780113+283721033+283794021+283974924
4287+284067502+283796350+283266524+282858864+282658216+282410316+282055154
4277+281905172+282231742+282927444+283582166+283815474+283593063+283212691
4267+282922011+282662500+282340370+282166732+282445460+283246034+284451630
4257+285752629+286567236+286521692+285969763+285472225+284989776+284228691
4247+283491295+283361493+283729415+283826774+283241812+282469272+282350833
4237+283196765+284365230+284766495+284133754+283410762+283546587+284456008
4227+285302064+285290049+284250672+282934367+282481783+283159231+284054153
4217+284486029+284959040+285936327+286646682+286116795+284620394+283196827
4207+282507862+282691062+283373570+283606878+282852810+282003183+282379146
4197+283965052+285432083+285676133+284821974+283898397+283749129+284197056
4187+284380505+283794145+282638222+281477767+281086064+282138046+284460292
4177+286907031+288336218+288493340+287923994+287345955+287040000+286646962
4167+285722267+284415307+283263823+282531425+282099518+281829514+281867887
4157+282607736+284038537+285173659+284925884+283659997+282886060+283381362
4147+284535981+285393090+285586752+285337797+285044757+284936936+284872268
4137+284445763+283453761+282394390+282147484+283009001+284530114+286163426
4127+287476874+287944080+287322981+286108537+285060342+284558955+284579073
4117+284917408+285371979+285838843+286191149+286193136+285721615+285007472
4107+284617414+285095579+286371400+287628035+288058608+287617604+286919480
4097+286598841+286713492+286709767+286202046+285609230+285511870+285719100
4087+285659089+285296445+285059690+285093530+285153355+285225071+285609850
4077+286166002+286215551+285666819+285353506+285744930+286229553+286097019
4067+285482253+285023895+285115045+285648037+286290744+286969091+287772211
4057+288303775+287852464+286579748+285720280+286092517+287073218+287453155
4047+286918052+286239891+286143774+286344329+285866691+284448215+283190649
4037+283214771+284196404+284987882+285235191+285585511+286549478+287820208
4027+288629196+288520257+287959572+288041160+289273269+290959358+292062038
4017+292345733+292251572+291966262+291249977+290101474+289051292+288666419
4007+288981409+289529923+289947549+290333385+290808042+290987113+290399823
3997+289336509+288661763+288790292+289276591+289466808+289340452+289537840
3987+290572995+292246636+293874577+294860369+295048040+294738794+294353859
3977+294020957+293615594+293055158+292342287+291582879+291027007+290740642
3967+290470017+290214356+290395383+291067087+291647392+291827643+292061603
3957+292749203+293606653+294198414+294563324+294988246+295439216+295535147
3947+295117117+294663478+294877320+295789442+296519573+296273630+295386469
3937+294969153+295854917+297937553+300108172+300905114+299820720+297900857
3927+296641614+296593276+297045021+297071596+296922173+297676241+299521285
3917+301061056+300759199+298796803+296741115+295789193+295940292+296779922
3907+298589356+301956289+306337979+310065786+312252177+312958869+311591898
3897+307773717+303152881+300277836+300305498+301887678+302373325+301514726
3887+301848560+304737141+308221892+309837911+309883704+309166890+307284996
3878+304892183+303954139+305154457+307332993+309395914+310661211+309996524
3868+307797498+306495288+307220297+308377306+308267001+307302816+306537820
3858+306769700+309546734+316339741+323652918+323559346+316428004+308688135
3848+303987854+302862387+304375739+307308187+310812714+314337793+317066427
3838+317934184+316827996+314748310+312292195+309506778+307003226+305961799
3828+306789197+308658363+311060334+314814468+319626762+322140156+320801685
3818+318630476+317336244+315137498+311434776+308492362+308132977+310425668
3808+313955341+316528778+317712052+319326643+321843763+322817541+321254237
3798+319322297+318192266+317005049+315273975+313724517+312943129+312925557
3788+313688535+315163762+316748674+318187051+320404424+324009974+327479667
3778+328753874+328329728+328296572+329836716+333044198+337314838+341404606
3768+344584923+347400112+350567235+354479857+359704965+366263608+372523375
3758+376815002+380111119+385007174+393348707+405140717+417351097+425725073
3748+430390459+434868298+440901959+445704195+446424267+445297186+445912635
3738+449777198+455960934+462248549+466563864+467893611+467121599+466474608
3728+467451552+469624810+471445141+472243325+472678399+473166840+473109996
3718+472124700+471435796+473480867+479955873+489078204+495329899+495768574
3708+493418542+492313255+494486761+500330609+508191121+513989642+514617416
3698+511443961+508495834+508887040+513577511+521827677+530610431+534445997
3688+530858920+523825962+517556912+513678906+513403004+517558961+525227549
3678+534118838+540670341+541272192+538121058+537484560+540666305+542180526
3668+538201839+532478634+529327314+528851322+528859704+528807423+530951374
3658+537006954+544678770+549827257+552570079+556623400+563417369+569242403
3648+569217691+564748855+560702675+559033474+558826337+559041049+559843517
3638+561303843+562453029+562948269+564390712+568685817+575100656+579052458
3628+577186303+573181538+571427645+572059175+574013810+577278757+581321274
3618+584541764+587054351+590211074+593188538+593877379+592751105+592077476
3608+592321371+592233139+591451286+590944372+591204410+592184646+594135928
3598+597099918+600386349+602958792+604196707+604936028+607426200+612887876
3588+619323516+623839045+626426887+627809909+627208057+624616428+622095956
3578+621583392+622617709+623285439+622981067+622690107+623621291+626263959
3568+629488423+631015310+630239231+628556308+626493076+623721196+621677460
3558+622944744+627499079+632635273+636235886+637760041+637835544+637985122
3548+639453271+641996469+644508870+645975777+645384544+642740013+640011783
3538+639087367+639347964+638869303+637390225+636260660+635967403+635639499
3528+635059318+635092536+635747786+635842289+635015543+635037524+637748741
3518+641962195+644079012+642639239+640622637+641539105+645138786+647708435
3508+645883696+640154531+634323722+631887321+633750060+638910345+645692268
3498+651776906+655083145+656209854+657686323+659833068+660417782+659311501
3488+659338324+661179953+661796706+659558438+656756692+655476369+654809819
3478+653157817+650783942+649178323+649241967+650141856+650208045+649503371
3468+649919569+652162183+654996776+656846786+656204079+652705296+648450799
3458+645676683+644190217+643066054+642829673+644047097+645730889+646627177
3448+646560305+645373243+642372556+638024674+634461006+633404522+634638090
3438+637095105+640057792+642278426+641918421+638729597+634739299+632191382
3428+632044350+634062442+636820476+638134824+637132609+635393803+634548741
3418+633870890+632184366+630966196+632759393+636915662+639293572+637099328
3408+632446329+629730020+631471371+636887969+642764042+646182231+646415756
3398+644619641+642748892+641849996+640853989+638238889+634644051+632174679
3388+631804429+632827942+634005131+634248405+633139578+631665282+631258212
3378+632031621+633111575+633921432+634309875+634288702+634160608+634221582
3368+633952788+632461603+630162921+628731778+629069058+630796004+633379127
3358+636394095+638581696+638518611+637077906+636839910+638562634+640386255
3348+640710807+639812283+638377291+636426382+633911125+631493165+630585328
3338+632441858+636641466+640840826+643252763+644394187+645180574+645036833
3328+643181979+640487030+638583993+637990586+638320726+639754787+642801545
3318+646510073+648475449+647500988+645161201+643941914+644779837+646561919
3308+647356750+646369560+644980640+645033293+646364345+647765808+649601910
3298+652671518+655492513+655792227+653992076+652552241+652654940+653359987
3288+653393578+652791789+652681204+653605868+654673156+654784734+653917815
3278+653008488+653413509+655990299+659645180+661423661+659408860+654970076
3268+651120850+649872380+651573371+655299036+659139446+660773627+659004149
3258+655122138+651965975+651343695+652625757+653920982+654472228+655248618
3248+657105583+658982293+658783228+656495163+654461176+654093037+654677813
3238+655367150+656295229+657680983+658968633+659341243+658804587+658153808
3228+657885822+657525134+656496219+655288977+654672286+654516934+654249134
3218+653829894+653578300+653937684+655178827+656323481+655813401+654146683
3208+653568862+654554623+654826459+652434081+648240993+644885764+644370655
3198+646370181+648504322+649012167+648446825+647842242+646534537+643374338
3188+639286680+636931184+637661937+639784528+640537075+639175847+636734976
3178+633984393+631595740+630969984+632973236+636454447+639174357+639738705
3168+638092789+635032246+631862795+629968575+629923994+630674243+629940199
3158+626243469+620762669+616629437+616091353+618627970+621894035+624013708
3148+624497523+623892692+623360011+623645941+624211965+624045995+622968276
3138+621593078+620567764+620114249+619928907+619561947+618881613+618017922
3128+617096487+616418885+616588456+617721809+618574012+617357395+613880903
3118+610080107+607830477+606936300+605932842+604325981+603012626+602712911
3108+603152828+603935303+605142854+606575363+607395217+607251103+606939404
3098+607150453+607413347+607186962+606848751+606932823+607338093+607430174
3088+606563007+604426755+601173978+597655511+595313365+595200483+596923455
3078+599002707+600337111+600854890+600920707+600687306+600065834+598955083
3068+597384359+595620282+594196591+593604115+593697687+593680177+592883360
3058+591349642+589800153+589016313+589085172+589426798+589655294+589969290
3048+590527491+590812242+589915022+587482223+584243540+581626515+580856397
3038+582118216+584502709+586683107+587525749+586663921+584932753+583817407
3028+583968910+584577343+584587898+583917436+583099135+582311941+581317425
3018+580224680+579562165+579456175+579243389+578104820+575996820+573810461
3008+572608063+572640785+573059466+572697598+571152580+569021296+567240641
2998+566288906+565822476+565149220+564117448+563248356+563052210+563558564
2988+564430264+565230497+565608012+565418696+564756492+563901681+563273876
2978+563251833+563889635+564829077+565463898+565397523+564786731+563819720
2968+561934939+558553943+554731229+552687742+553269910+554954509+555820311
2958+555532331+554782020+553876356+552703140+551208478+549367471+547314546
2948+545607345+544864237+545232003+546394229+547687404+548272925+547923786
2938+547437549+547505539+547653999+547034204+545565930+543759073+542281983
2928+541917072+542887684+544278219+544939864+544470329+543022670+541149127
2918+539804540+539504266+539749651+539826830+539385361+538126274+536121345
2908+534306230+533706987+534243145+534777006+534237619+532496889+530324438
2898+528572718+527552185+527082465+526773560+526250627+525417548+524555845
2888+523999010+523809073+523843285+523979141+524220303+524640786+525129196
2878+525223078+524455630+522863608+521033094+519660938+519102924+519237786
2868+519623746+519787139+519517756+518934098+518206698+517412457+516691701
2858+516218162+515992646+515902613+515857101+515771415+515633479+515556641
2848+515492283+515165745+514489446+513552675+512358752+510995941+509757343
2838+508807626+508054675+507457729+507112905+506987077+506752124+505996100
2828+504714908+503482364+502846177+502671824+502437709+502027037+501764888
2818+501748340+501597210+500957297+499985971+499133489+498547161+497942205
2808+497057124+495981361+494971819+494164663+493555081+493116654+492780151
2798+492314714+491474929+490423754+489760246+489831248+490224721+490286315
2788+489934475+489521257+489085128+488326279+487256694+486259942+485396717
2778+484256286+482764512+481616847+481488970+482148473+482745387+482778606
2768+482413261+481985855+481611352+481244361+480749431+479952148+478919445
2758+478004933+477401747+476961426+476556250+476180007+475620782+474622012
2748+473439421+472696312+472640151+472898947+472934836+472479396+471610025
2738+470659593+469999997+469645642+469064343+467784393+466207894+465228621
2728+465080037+465131759+464833317+464290608+463814429+463453244+463178739
2718+463200067+463768637+464644435+465062620+464463408+463031986+461387094
2708+460124498+459637423+459753037+459633821+458746816+457662640+457170970
2698+457116826+456844152+456216129+455487426+454714979+453953274+453523353
2688+453460175+453138636+452101897+450946533+450682893+451354628+451942633
2678+451682036+450849639+450114789+449760372+449736653+449922709+450058130
2668+449760961+448877992+447723808+446864526+446631435+446848879+447132574
2658+447356289+447507947+447257471+446263513+444839728+443699639+443116912
2648+442830391+442598667+442397304+442179954+441752610+440963771+440039946
2638+439514591+439553740+439655911+439406397+439142012+439387397+439989155
2628+440216223+439584847+438448421+437697644+437749459+438043617+437824714
2618+437063878+436237194+435651487+435327650+435140662+434878699+434431983
2608+433948384+433635941+433492231+433358672+433231137+433330700+433680429
2598+433876079+433657269+433363112+433324491+433223313+432585542+431543774
2588+430680208+430354788+430418804+430469719+430278912+429907140+429465516
2578+429034757+428773074+428725139+428589563+428103077+427524479+427268912
2568+427249384+427034237+426512795+425985670+425714331+425739727+426007247
2558+426372437+426610713+426639523+426599133+426599319+426562592+426390257
2548+426123296+425888839+425781576+425789865+425785923+425627186+425288230
2538+424858061+424440621+424126346+424013681+424121813+424298060+424363038
2528+424326435+424322524+424409793+424568374+424752910+424837447+424715717
2518+424503892+424371514+424204767+423803223+423348342+423240862+423521763
2508+423839919+423941749+423864911+423713625+423526668+423340425+423217888
2498+423207364+423294043+423396742+423454146+423503446+423620271+423794064
2488+423878757+423685653+423216739+422765708+422633361+422841025+423266630
2478+423837311+424369558+424483185+423991235+423242321+422815661+422882160
2468+423050831+422931368+422649784+422574715+422765025+422978402+422991255
2458+422716252+422256621+421914902+421888730+422027691+422100027+422077302
2448+421989474+421823876+421723568+421947127+422469346+422855058+422689212
2438+422067895+421510905+421409354+421698855+422062120+422291641+422352149
2428+422244576+422011951+421800002+421757935+421944520+422359724+422907742
2418+423344027+423488265+423467030+423544302+423776710+424004212+424123242
2408+424212249+424376139+424564587+424661418+424726924+424953030+425337251
2398+425619518+425607069+425385620+425164078+425077057+425172181+425436162
2388+425776733+426048879+426078714+425613278+424408924+422535660+420408349
2378+418357132+416390483+414467608+412712721+411292848+410265796+409376928
2368+408011353+405921205+403852570+402643342+402183432+402230870+403463599
2358+406625599+411197072+415818311+419823822+423534212+426904125+428947705
2348+428769441+426615990+424002660+422583377+422737395+423761622+424789357
2338+425036387+424093593+422416724+421094738+420908029+421683363+422618986
2328+423182744+423466098+423726261+424023678+424435095+425240047+426601182
2318+428242969+429635863+430393222+430476145+430231785+430249419+430931771
2308+432118988+433233838+433824667+433921002+433915507+434206374+434909123
2298+435795290+436504187+436873413+437081202+437466571+438221726+439209071
2288+440021722+440309981+440145501+439962052+440051153+440242488+440179185
2278+439782546+439302953+438979488+438794518+438597440+438395364+438400269
2268+438724479+439117548+439181440+438848538+438451153+438325356+438547736
2258+439039344+439709775+440436306+441038188+441392729+441566461+441750437
2248+442050307+442400937+442683297+442838370+442876432+442850323+442779539
2238+442580753+442154093+441544853+440942940+440511964+440232553+439927002
2228+439505122+439146017+439079114+439252069+439443217+439604530+439824644
2218+440055562+440145004+440068104+439939451+439862240+439882762+440010701
2208+440238917+440639282+441380404+442459551+443508894+444170570+444578138
2198+445097656+445696961+446013564+445987020+445975347+446246717+446709763
2188+447172778+447622009+448148916+448711991+449112573+449240543+449231198
2178+449313469+449629359+450236736+451067673+451817891+452166813+452203665
2168+452317261+452618590+452861677+452977260+453219851+453685940+454120082
2158+454306076+454319643+454323524+454362362+454407223+454430104+454421939
2148+454441094+454627678+455073153+455689191+456298990+456830833+457308812
2138+457672574+457801662+457771920+457864002+458199947+458586745+458854358
2128+459130633+459597498+460197269+460795053+461448316+462298750+463297985
2118+464212559+464854335+465210894+465404774+465614736+465961237+466377155
2108+466690313+466864355+466990400+467069846+467073447+467177699+467622645
2098+468344798+468994397+469298024+469303798+469344126+469732073+470376332
2088+470814262+470744782+470320885+469833996+469411589+469133078+469150557
2078+469504136+469943401+470116822+469979755+469894287+470205302+470842824
2068+471521358+472142861+472730028+473163487+473312568+473266869+473194905
2058+473131976+473062061+473067059+473311420+473911594+474766530+475558877
2048+476057470+476346598+476629207+476965587+477355613+477862651+478468414
2038+479017301+479490809+480134013+481129026+482333132+483503150+484583135
2028+485648715+486783216+488074809+489535911+491035912+492459014+493799876
2018+494992029+495891174+496559090+497313810+498420712+499900161+501575199
2008+503166133+504451082+505468448+506480443+507665891+508926499+510048769
1998+511022298+512121874+513577170+515174996+516373204+516939849+517235248
1988+517692582+518428333+519477179+520875755+522395688+523706125+524895981
1978+526435473+528570297+531030603+533339282+535273799+537025457+538903160
1968+540951056+542994915+544979230+547028305+549179210+551230272+552906489
1958+554168433+555352515+556973036+559309035+562101468+564738610+566925031
1948+569141318+572251659+576544652+581059684+584104704+585070969+585287667
1938+586353527+588496981+591006091+593390894+595582531+597548156+599228657
1928+600772557+602712166+605556941+608913722+611631024+613314071+614693802
1918+616163441+617252647+617826371+618592267+620185033+622408275+624376135
1908+625362890+625592752+625952137+626838614+627670948+627771660+627443880
1898+627718821+629103705+631027418+632726237+634188859+635722267+637023390
1888+637335088+636488163+635211690+634405682+634401646+634825482+635021131
1878+634589162+633687162+632975844+633244016+634983566+638030884+641069881
1868+641869617+639510830+635660548+632417456+630346960+628833608+627234074
1858+625354197+623376775+621679261+620472951+619601065+618811884+618167997
1848+618198794+619421372+621092187+620871080+617599986+613243908+610103391
1838+608584017+607835009+607199691+606966414+607841964+609561148+610364982
1828+609063983+606646644+604253707+601616875+598474496+595658407+593973931
1818+593297509+593108068+593211885+593710975+594585282+595449780+595746638
1808+595247176+594284450+593596106+593980078+595685851+597892328+599221579
1798+599226235+599016615+600231245+603431928+606850552+607631039+605739552
1788+603854646+603736176+605129567+607125057+609361524+611657226+613555730
1778+614984451+616729714+619863835+624701804+629714870+632245153+631580403
1768+629249434+627036934+626495187+628385122+631461561+633293006+633574901
1758+633995756+634913589+635690786+637225994+641067894+646465305+650284480
1748+650901295+649936085+649611286+650961461+653784567+656771718+658290782
1738+658689098+660753323+666312234+672350055+673503402+670688864+668081961
1728+667034915+666940474+667192937+667685694+669087778+672841260+679893715
1718+688631391+694193841+693539461+689488996+686180833+685657155+688229412
1708+693213357+698755317+702413737+704289516+707669767+714695150+722280784
1698+725811606+725640607+723619038+720743217+718721151+718806464+720630955
1688+723672002+728943554+737160159+744540022+745888770+743096648+740931958
1678+741875373+746251631+752443253+758269529+763549774+768710617+771799784
1668+771045748+769220822+770021613+773688913+777317901+778224062+777288843
1658+777445561+780840838+788261371+797918867+803448844+802765280+801648009
1648+802591673+802792911+799131200+793680763+790052891+789393978+791711288
1638+796907772+802894554+803853058+797302921+789147600+784483177+783593284
1628+784349059+785139109+785921832+786313939+785107753+782907610+782058014
1618+783248553+784173838+782770760+780824384+780582973+781680561+782559526
1608+782766786+783156720+784296530+785762444+786668108+786535977+786034901
1598+786618931+789020685+792384110+795296875+797342101+799003540+800559362
1588+801967221+803524347+805666497+808203982+810646406+813331235+817451428
1578+823432001+828792406+829379479+826019843+823293910+822409295+820874398
1568+817312716+813898998+812301947+812214647+814080242+819454431+826431260
1558+826685275+819177939+811918223+807863598+805898470+804611069+803496840
1548+803197560+805025032+809717396+816745015+824761438+831210862+831767387
1538+826712595+822262697+821696425+823626347+824861281+824637504+824920640
1528+826750161+829566685+833180896+838326465+844395704+848362656+848598355
1518+847229800+846496191+846973984+848492240+850892442+854615127+860998486
1508+870435558+878051679+877367060+872505248+870130690+871192451+874023194
1498+877121551+879477916+880800834+882837056+888275324+897418145+906005187
1488+908750182+906428588+903773563+903056905+903650809+905009118+908200053
1478+914318034+922682293+931470448+939223045+945075835+949418066+954571397
1468+962160880+970575681+975775580+975903053+974489979+976393574+983345504
1458+992428532+995769479+989603315+979829211+971765971+967042126+965603967
1448+965987195+965773911+963693355+961033736+960279265+962717218+967970826
1438+974724808+979803195+979200847+974028641+969677033+969173659+971191813
1428+973275163+975109837+977073474+978400862+979094671+981110776+985228485
1418+988594579+988633511+986880735+985630092+985032463+984132698+982851009
1408+981984835+981980675+982666970+983435723+983804421+984240302+985742663
1398+988610847+991832827+994060664+995238660+996397657+997615143+997359637
1388+994341006+989900297+987770814+990330652+996077576+1001213459+1003689660
1378+1005118630+1007839160+1011544397+1014300444+1015832175+1017738751
1370+1020827111+1023520011+1023425818+1020260714+1016325739+1014294359
1361+1014884103+1017173285+1020627797+1025327923+1030697828+1035220808
1352+1037675277+1038652657+1040472926+1044511220+1048804710+1050316386
1344+1049293742+1048868664+1051117860+1055367762+1059705337+1062798354
1335+1063820252+1061582606+1055934656+1049774328+1046649024+1046775691
1327+1047521035+1047214676+1046830331+1048067066+1051307363+1055457919
1318+1058647674+1060174499+1061223594+1062338629+1061935036+1059276534
1310+1057246645+1059166633+1064148591+1068219422+1070040684+1071686973
1301+1073656261+1073741823+1071360870+1068719878+1066988027+1064872576
1293+1060991621+1055769369+1051405840+1050070504+1051130651+1050911593
1284+1047072487+1041144133+1035358775+1029824638+1023888771+1018582323
1275+1015127935+1012832544+1010172366+1006709844+1003246266+1000419745
1267+997885116+995141177+992040026+988190303+983439448+978573166+974256764
1257+970055604+965092335+959104808+952687919+946773721+941842057+937341989
1247+931843803+924036939+914215397+904738276+897850984+892974332+887302229
1237+879461648+871231817+864979719+861004820+858113600+855661614+853869969
1227+852716126+851863178+851257415+850810482+850139523+849505012+849890971
1217+851065801+851138262+849461175+848163902+849258882+852072922+854829776
1207+857370056+860818359+865559341+870713976+875119168+878337982+880885526
1197+883748246+887606600+892273197+896863359+900539227+903104716+904995831
1187+906867635+909244677+912493357+916836023+921831766+925935443+927798927
1177+928549487+931560481+939216340+950239534+960658270+967978525+973631194
1167+979922162+986677572+992471933+996692466+998794878+997947207+995431826
1157+994526783+997037880+1002245106+1008563456+1014915831+1020519386+1024397113
1147+1025372753+1022600997+1016897600+1010884926+1007045696+1006241427
1138+1008079951+1011649518+1015739100+1019007835+1020756513+1021585991
1130+1022319413+1023015643+1023869274+1025466946+1027868389+1030695469
1121+1033356578+1034376925+1032079857+1027011529+1022970130+1024554390
1113+1032225275+1039771604+1040287894+1035026400+1030936259+1031305019
1104+1033486970+1034104344+1033442264+1034275964+1038225841+1044338731
1095+1050887129+1056205001+1056549484+1048974344+1037641997+1030490009
1087+1030225997+1033429598+1036342425+1037495647+1035390069+1028347734
1078+1017347265+1005742958+996428268+990953801+990577714+995703165+1003706984
1068+1009245218+1008180042+1001777869+995361228+992883537+994006334+996065344
1058+997965462+999375121+998102808+993011693+986885826+983188227+981969623
1048+981009939+979668891+979605868+982044939+985634128+987983166+988251711
1038+986781203+983916620+980121537+976890119+975985014+977047272+977545244
1028+976038598+974014980+972994696+972208372+971189143+972183163+977490231
1018+985222773+990178342+990267257+987842902+984474324+979015318+971190571
1008+963644738+958379519+953805190+947444432+939718658+932815160+927062586
998+920703753+913427583+907397647+903290493+898438802+891558650+885955095
988+884796285+886122183+885230800+881003127+876914228+875964231+877477396
978+878951754+878958646+877312420+874240824+870593519+867161794+863323371
968+858217354+852797217+848589289+845409593+842137940+838895842+836929783
958+836730656+837506487+838434441+839849502+842859751+847808677+853573297
948+858790395+863343985+867941226+872812228+877739732+882688658+887600391
938+892306416+896994993+901920510+907289298+914132071+923509163+934241646
928+943597378+950377129+954281865+953650893+948302844+942207651+939239375
918+938694524+937734096+936149277+935107633+933641161+930191616+925499872
908+921862749+920950504+923050121+926932815+930387886+932227714+933362930
898+935306325+938499061+941677887+942355676+940046687+938209591+939972053
888+943879459+946771672+948742885+951710850+955085140+956268228+954965180
878+954361156+957227290+962244206+965138531+964039701+962131138+963884969
868+969941853+975998674+977359281+974234660+970421570+968742869+969550677
858+971751566+974153630+976467215+980228831+986080378+991012663+992475969
848+992564574+994153801+996164442+995797234+992946559+990223979+989225800
838+988705288+986343831+982199298+980074906+984392612+995334529+1007606194
828+1015327807+1018375435+1020182416+1021725882+1022324070+1022154374
820+1021871859+1021473233+1020567817+1020044077+1021576987+1024447158
811+1024896203+1020939372+1014930547+1010667730+1010272146+1013353366
803+1018132720+1022578396+1025729965+1027573456+1027453557+1024857085
794+1020055191+1012531898+1002713274+995110752+994293506+998524843+1000094449
784+993448754+981617192+971900833+968279792+968986578+969549560+967749408
774+964522709+960597731+955449306+949979620+947581033+951190090+959803086
764+968666000+973563266+974797083+976023386+979215066+982764702+986349482
754+992566809+1001047178+1006303580+1005019097+1000702758+997829731+996013684
744+992041454+986210770+983920159+988595449+995275915+995947308+991101951
734+988121630+990704070+996187788+999829505+999499738+997098543+996145938
724+997860031+1000087246+999475585+995178183+991210114+990227891+990016346
714+989454233+990585351+994515234+998062511+995322235+985293122+974413296
704+969660393+973494159+984393481+997212791+1004039358+1001086234+994445506
694+991875360+993240437+994781295+996261242+999284592+1001530435+997621476
684+988096917+980094775+977937972+978974897+979305905+979177438+980084592
674+981341072+978916841+966230531+942222987+920498603+918634932+933305992
664+948441680+956236127+957100748+953974451+950342668+947574327+943399804
654+936796827+930312570+924447611+917509465+910920149+907422049+906251255
644+907491219+915997169+933865683+955098738+963917008+950736575+932017038
634+921501378+922173020+934278652+953113182+966295664+964047276+949611481
624+933792788+922840874+916464717+914849722+918509384+925356938+932439942
614+940331437+948463723+951030888+944446042+935158548+931855539+931053071
604+924309395+917974281+923143383+934173780
##END=
