##TITLE=<SNM>
##JCAMP-DX=4.24
##DATA TYPE=INFRARED SPECTRUM
##DATE=29/4/2025
##SAMPLING PROCEDURE=Instrument type and / or accessory
##ORIGIN=Admin
##XUNITS=1/CM
##YUNITS=ABSORBANCE
##RESOLUTION=4
##FIRSTX=4497.3318
##LASTX=599.83466
##DELTAX=-1.4281778
##MAXY=2.1017282
##MINY=0.38635132
##XFACTOR=1
##YFACTOR=1.9573869e-09
##NPOINTS=2730
##FIRSTY=0.3873986
##XYDATA=(X++(Y..Y))
4497+197916210+199077677+200754925+201540321+201276675+200856876+200932745
4487+201512549+202416034+203334121+203700067+203207018+202203775+201211494
4477+200505728+200353610+201028224+202318393+203520680+204056635+203734705
4467+202532373+200729087+199272244+199246681+200632344+202176201+202878617
4457+202999843+203192645+203432310+203319230+202829119+202388126+202558606
4447+203521745+204581627+204725296+203783305+202356198+200985044+200149602
4437+200315789+201172136+201546183+200721459+199266763+198215651+198034330
4427+198515442+199119349+199319809+198965601+198376798+197989582+197948549
4417+198057853+198056331+197942641+198020337+198508987+199098886+199154505
4407+198505378+197750632+197584186+198031681+198562611+198854988+199148521
4397+199702686+200265865+200440959+200222061+199776195+199138183+198473191
4387+198201369+198534703+199109651+199284059+198823730+198200760+197947148
4377+197895396+197622311+197381168+197729818+198478460+198873365+198628066
4367+198170279+198102236+198734219+199804530+200537732+200405224+199861108
4357+199889276+200794390+201863118+202316413+202160960+201902019+201738253
4347+201366856+200519675+199428306+198589530+198217311+198253182+198753448
4337+199731889+200731280+201144730+200938896+200624747+200626467+200999920
4327+201627502+202327528+202718399+202316825+201128835+199909252+199294458
4317+199058630+198797648+198766162+199393958+200521380+201700829+202738253
4307+203519233+203768978+203347428+202565793+202012953+202127342+202916133
4297+203997925+204849064+205090313+204788634+204449454+204376097+204185108
4287+203412076+202355193+201714927+201696489+202092659+202910150+204169821
4277+205258038+205306182+204306715+203199100+202806037+203255983+204288855
4267+205403458+205835651+205165558+203898258+202909891+202590413+202860012
4257+203553369+204505895+205512488+206322640+206714897+206726209+206661714
4247+206672737+206613814+206468197+206414694+206376189+206039780+205361024
4237+204648224+204239707+204361785+205003269+205653720+205715567+205415471
4227+205579298+206396728+207193649+207464284+207372702+207245842+207207367
4217+207229231+207199222+207044378+206864914+206782117+206719784+206491187
4207+206106742+205987449+206602943+207697433+208407188+208436969+208383436
4197+208650233+208922466+208883459+208613190+208249375+207902262+207781889
4187+208005933+208437547+208804377+208828784+208387699+207743551+207470145
4177+208023549+209396240+211077523+212336799+212785649+212716023+212660282
4167+212686028+212489131+212112755+211974751+212096129+212017291+211671808
4157+211580409+211983688+212520816+212846369+212906860+212633561+211991316
4147+211271071+210858839+210805701+210930719+211233129+211896796+212878068
4137+213817029+214470206+214896994+215130721+215095809+214917655+214838116
4127+214817744+214652334+214349543+214084618+214020930+214273385+214765140
4117+215209285+215501525+215830290+216191806+216301933+216181894+216254840
4107+216704390+217228500+217551891+217783380+218156422+218711363+219307672
4097+219738845+219827367+219564695+219123093+218633058+218053192+217405436
4087+217030400+217356501+218369915+219435902+219794890+219316503+218646928
4077+218470997+218781355+219062784+219035272+218909752+218920090+218952429
4067+218850083+218846627+219359302+220390058+221391915+221807467+221637458
4057+221378913+221402025+221617573+221871520+222322486+223104060+223888223
4047+224196617+223957743+223448661+222898957+222396102+222033064+221967655
4037+222311555+222923120+223368803+223330328+223040144+222972847+223150498
4027+223187694+222976242+222802107+222755684+222615959+222454051+222777640
4017+223798133+224887172+225074279+224072361+222672279+222031952+222620040
4007+223880290+224879346+225192079+225125848+225204214+225559807+225836973
3997+225638097+225007972+224423767+224312072+224675521+225262239+226003343
3987+227057850+228349176+229267598+229121615+227957864+226695543+226275104
3977+226800493+227584092+227877397+227475183+226719508+226081831+225842652
3967+226102035+226816495+227703399+228364691+228654175+228692482+228515257
3957+228068447+227522443+227235990+227463901+228339158+229832192+231415910
3947+232294120+232357443+232242856+232173488+231565090+230158857+228729313
3937+228305433+229324024+231549666+234236278+236254670+236726343+235961076
3927+235263821+235532415+236299205+236536587+236266744+236499300+237725323
3917+239091909+239126806+237287223+234569200+232478076+231728034+232208324
3907+233949916+237309711+241864271+245888769+247847873+247556486+245205034
3897+241141925+237000419+235190129+236771792+239823528+240915292+239785753
3887+239415970+241314202+243722780+244855227+245419958+245768639+244474679
3878+241613476+239579553+240022237+242759078+246974382+251100769+252481865
3868+250750063+248731610+248010055+247250650+245177522+242671043+241093446
3858+241296495+244645327+252603502+261876282+263639677+257184311+249116406
3848+243657569+242069862+243893169+247411995+250820131+253830667+257029741
3838+259528865+259411050+256745723+253370779+250585414+248703808+247770862
3828+247708254+248241788+249724469+253345276+258745175+262131584+261260439
3818+259211291+258371722+257028767+253623554+249930684+248484240+250448445
3808+254754889+258232683+259424357+260547730+263103067+264789968+263567386
3798+261109949+259030898+256887260+254430143+252711192+252451642+253270199
3788+254710598+256637896+258470110+259627801+260762471+262725656+264663078
3778+264988418+263887823+263014454+263799180+266777179+271119205+274861649
3768+276971486+278205518+279383124+280864541+283415707+287670095+292697364
3758+296482074+298555491+300784514+305659070+314039313+322790145+327485740
3748+329288325+332534751+338247992+342188886+341630077+340228747+342311299
3738+349259638+359044957+367302238+371013469+370855276+369481168+369124098
3728+370816785+374430482+379000009+383596394+387747675+391009691+393315938
3718+395833242+400486418+408704996+420257089+431770692+438134034+438825366
3708+438088936+439191937+442999181+448915318+454918575+458369176+458801460
3698+458526791+459922153+463614566+469109990+476053304+483778330+489706526
3688+490782425+487565324+483068545+479434568+477780097+478810289+483107035
3678+490768022+499206091+502968389+501420284+499710971+500075927+499748334
3668+496647830+493280027+492678282+494993603+498329281+501317329+504175259
3658+507328747+510429099+513851136+519679299+529236509+539918461+544614390
3648+539639955+530833305+524660069+523267661+525770683+529466415+532107807
3638+533785359+535564010+537563553+539760054+543434653+550085180+558138042
3628+562415756+561152095+558107225+557226031+560470294+567221066+573581394
3618+575437208+573937246+573491685+576012368+579859077+582805346+584484117
3608+584952029+583267350+579166314+574336399+571722900+573085954+577123835
3598+581203555+584548978+588004328+591373624+593540526+594775929+596503361
3588+598798097+600302748+600589476+600576260+601192469+602252839+602390173
3578+600760733+598988538+599468935+601657032+603082936+604273880+608513530
3568+616059868+622168609+623129281+620488194+617173832+614632441+613265064
3558+612905436+613518295+615319419+617353676+617677189+616885642+618525984
3548+623720337+628493430+628895629+626127804+623171791+621248680+621076509
3538+622573304+623588058+622523669+620993743+621334126+623468994+625716896
3528+627261926+628509387+630035415+631282449+630240716+626278415+622227319
3518+621228034+622998767+625112015+627042739+630421231+635141156+637937422
3508+636642397+633702035+632654760+633550328+634001492+633187229+632279602
3498+632205180+632741120+633001111+632638377+632714627+634489319+637230652
3488+638566055+637716286+636848855+638333957+642264406+647101203+651249317
3478+653005921+650563557+644167115+637240700+634052345+636161451+641068834
3468+643978257+641623593+635575145+630920020+631284825+635599811+639808157
3458+641459765+641192709+640370102+639688180+639499443+639834101+640092205
3448+639468201+637574810+634376163+630659237+628651167+630354969+634927876
3438+639260524+641612630+642791759+643521429+642912406+640507254+637554712
3428+635066063+633154585+632574552+634013916+636418946+637901734+637756055
3418+636807624+636340565+637097397+638745595+640976506+644963594+650851016
3408+654845230+652219063+643732821+635427884+632090622+634043027+638541938
3398+642090104+642172687+638451072+632730279+627668022+625505931+627047550
3388+630805463+634345711+636991184+639344508+641150930+641722985+641352273
3378+641227545+642538284+645110003+646531158+644490079+640169856+637250567
3368+637763181+640710059+644436485+648195312+651453705+653739488+655093650
3358+655517408+654683473+653133694+652525402+653478888+654784206+655586776
3348+656049511+655807607+654429633+653020842+652751410+652810181+651829228
3338+650128228+649354160+650930554+654494798+657212013+656158404+652378749
3328+650022319+650982565+653145265+653551118+651832882+649864460+648926504
3318+648439652+646807288+643535497+640777904+641634068+646697238+653242404
3308+657877249+659138717+658053317+657175107+657958249+658963563+657842839
3298+654747421+652050608+651049740+650856010+650462886+650461120+652014371
3288+654855096+657533882+659308635+660537460+661554649+662438646+663439696
3278+664691420+665796553+666189799+665680107+664317663+662177923+659872772
3268+659026779+660798609+663811870+665124801+663601757+661002083+659425993
3258+659102724+658819407+657839977+657181562+658305209+660442513+660987223
3248+659147548+656984361+656798670+658980250+662245951+665190941+666942185
3238+666893220+664946966+662126156+660106211+659787753+660885821+662732864
3228+664749399+666284989+666374271+664086539+659737630+655514728+653988396
3218+655822650+659473802+663077632+665697343+666781342+665461164+661197945
3208+655237988+650601438+649767199+652144154+654132552+653023643+650492911
3198+650242541+653047212+655933249+655931239+652935639+648898855+646182431
3188+646519160+649564151+652348603+651811871+648054445+643674537+640666331
3178+639424229+639534158+640229235+640341052+638980556+636538254+634346503
3168+633437780+633733278+634599065+635513512+635741652+634615996+632433685
3158+629775971+626839569+624191051+622612769+622010811+621854414+622407224
3148+624038613+625845217+626543523+626177622+625440826+624006091+621200446
3138+617835047+615753043+615657365+616520046+617024377+616641668+615315156
3128+613114209+610521599+608321566+606967892+606525863+607140610+608966034
3118+611611385+614108925+615550908+615656025+614781713+613346003+611336411
3108+608810185+606585121+605641379+605797167+605868545+605353799+604780770
3098+604165230+602708205+600375222+598334387+597373593+596996912+596472422
3088+595978809+596308352+597666594+599294389+600471386+601133699+601156354
3078+600054267+597880848+595497560+593693939+592801660+592960128+593928230
3068+594916309+595180381+594432501+592598612+590132740+588446357+588590634
3058+589665559+589892298+588999776+588072904+587551398+586974227+586344011
3048+586301927+587013022+587853230+588112125+587530630+586484573+585827194
3038+586010449+586250099+585305262+583173439+580906900+578918320+576873344
3028+574991707+573982496+573739922+573531332+573318418+573469455+573703564
3018+573614281+573648934+574380736+575210895+574860524+572940946+570210454
3008+567648417+566111853+566206800+567484103+568133078+566623980+563504079
2998+560550746+558734032+557828841+557535231+558033534+559244271+560281984
2988+560222848+559137996+557839195+556876269+556249402+555814560+555543179
2978+555450730+555444761+555237694+554565394+553582736+552700445+551989532
2968+551045974+549470554+547372227+545339980+543957011+543519672+544086855
2958+545387971+546718015+547476309+547834110+548273216+548554401+547811637
2948+545626464+542624896+540010484+538681231+538632266+539042808+539021249
2938+538248460+536935407+535375274+533844252+532894846+532975055+533753447
2928+534382201+534214416+532927429+530489390+527673269+525918005+526008811
2918+527294944+528499713+528876759+528349650+527100971+525446926+523930947
2908+523182580+523474607+524393439+525084071+524891680+523791725+522355040
2898+521330421+521099966+521318484+521144060+520093435+518683913+517864168
2888+517705640+517158372+515420039+513062330+511310841+510702702+510969972
2878+511775648+512921706+514018800+514526115+514084148+512615490+510432570
2868+508397886+507515321+508043892+509206729+509874492+509466660+508265759
2858+507010746+506158723+505556796+504905994+504274225+503801227+503160170
2848+501889840+500191855+498826517+498151142+497793828+497389011+497032885
2838+496711778+495922363+494426146+492907518+492245541+492389544+492492713
2828+492012864+491208132+490597313+490232112+489660240+488590431+487350034
2818+486491160+486064235+485637189+485032825+484545698+484341341+484137562
2808+483598090+482706602+481699492+480896222+480516161+480319751+479663408
2798+478334338+477022564+476496064+476605718+476530778+475752204+474396915
2788+472900821+471765633+471406401+471782777+472271061+472252333+471748519
2778+471179631+470686963+470060887+469166385+468069749+466829292+465490447
2768+464257541+463418186+463072749+463024819+462946803+462683979+462304010
2758+461786767+460925761+459706041+458528039+457784605+457319343+456613089
2748+455496842+454438940+454001905+454117163+454131749+453528512+452425876
2738+451441635+451093335+451260938+451331889+450898935+450045603+448953625
2728+447741792+446720492+446260527+446294572+446283457+445745233+444637299
2718+443293065+442165094+441486551+441073725+440611934+440177000+440237233
2708+440935051+441581924+441256280+439878153+438297952+437244800+436602982
2698+435887745+435027623+434324598+433924713+433692189+433424462+432928596
2688+432086805+431049609+430189243+429805132+429968959+430489034+430883133
2678+430662910+429837136+428847200+427888995+426717570+425284784+424090308
2668+423596999+423644990+423736130+423664235+423563138+423498429+423351746
2658+423087887+422877409+422819247+422696529+422190462+421285149+420317047
2648+419644351+419367885+419292793+419083198+418547897+417815974+417147023
2638+416595249+416018718+415407381+414966631+414814101+414820740+414812731
2628+414667997+414228953+413500622+412902745+412857403+413181281+413343921
2618+413151896+412720282+412093110+411402996+411027260+411101317+411243341
2608+411082833+410673905+410215311+409790030+409479977+409365602+409363684
2598+409293738+409094861+408868792+408789985+408953477+409181373+409090811
2588+408503683+407633999+406792512+406147618+405806353+405848192+406181389
2578+406539738+406691932+406609592+406462331+406418146+406387147+406091923
2568+405488808+404895955+404600457+404597169+404758620+404947296+404937003
2558+404549269+403910100+403371998+403164047+403193828+403196112+403078449
2548+403081281+403508541+404286902+404890565+404826344+404183703+403552969
2538+403386066+403598158+403815853+403856475+403850385+403901178+403781931
2528+403240327+402561541+402378377+402835784+403359878+403372820+402936029
2518+402575366+402670465+403126257+403558511+403668318+403412985+402983776
2508+402717451+402858044+403292825+403648525+403675474+403425622+403098029
2498+402817909+402589282+402439127+402492173+402786910+403129302+403302356
2488+403335883+403405037+403538109+403603640+403546483+403436646+403284177
2478+403034538+402798664+402848330+403277721+403818290+404094299+404026667
2468+403900599+403992622+404257730+404495553+404648753+404766233+404832495
2458+404790046+404646499+404521741+404595829+404933380+405378605+405691430
2448+405717831+405430464+404961547+404583222+404496893+404626249+404675946
2438+404408219+403888814+403453120+403394197+403708209+404116406+404283278
2428+404103678+403784428+403537347+403343922+403211673+403402418+404122618
2418+405134387+405864423+405924290+405495446+405093644+404959324+404910693
2408+404784565+404715228+404951681+405580009+406359893+406847598+406899974
2398+406915718+407301077+407946093+408470065+408682492+408603685+408312481
2388+407939606+407623493+407336887+406781337+405486920+403072237+399515636
2378+395235669+390891389+386998729+383683271+380832375+378333738+376037205
2368+373771641+371663053+370119759+369229398+368595710+368085410+368307765
2358+369994909+373220080+377697340+383512319+390478289+396922509+400408555
2348+399662867+395647764+391203482+388834689+388408617+388218023+387567222
2338+387073974+387300348+387961960+388378379+388410413+388690868+389781597
2328+391359209+392578351+393097908+393362011+393897829+394760844+395785860
2318+396956523+398299570+399677941+400838190+401647368+402337725+403386888
2308+404981949+406786118+408352889+409533693+410426307+411205308+412037415
2298+412980273+413987079+415003477+415929709+416614920+417034750+417315753
2288+417570964+417880957+418259891+418447500+418048225+417110025+416256724
2278+416041160+416367627+416673813+416578410+416214123+415906170+415711923
2268+415469806+415175221+415054361+415281465+415786924+416348229+416778991
2258+417056096+417312343+417663109+418037140+418272254+418384801+418590864
2248+419018854+419540726+419895938+419869141+419383111+418534377+417510701
2238+416460838+415537377+414951192+414779144+414836970+414891691+414876618
2228+414845497+414855941+414908074+414913677+414786787+414597716+414537301
2218+414737882+415180794+415700503+416092044+416338881+416653715+417178053
2208+417810158+418444972+419149855+419938052+420591473+420921928+421082193
2198+421428605+422120150+422989743+423769048+424318021+424689555+425104300
2188+425781898+426662758+427404609+427776143+427902789+428019935+428186015
2178+428358612+428542385+428736541+428934778+429251835+429811831+430477250
2168+430972415+431292700+431708297+432383277+433216451+433959580+434369117
2158+434409861+434382942+434702496+435531528+436682307+437791154+438615497
2148+439252047+439961833+440759074+441407378+441851173+442410043+443484937
2138+445181796+447197874+449068335+450632366+452230532+454330199+456975732
2128+459697941+462032843+464054432+466168654+468433518+470494694+472213508
2118+473859514+475587859+477193029+478490156+479577048+480689489+482096301
2108+484095570+486861111+490335798+494441128+499264709+504823198+510704377
2098+516128271+520322001+522784036+523436664+522615093+520674747+517651010
2088+513502227+508453673+502818752+496713179+490245846+483840450+478160218
2078+473706344+470455169+467883236+465469801+463200400+461491787+460659009
2068+460521736+460483794+459970662+458850456+457483931+456396673+455904766
2058+455972063+456348621+456793512+457146167+457347967+457542275+458014055
2048+458876400+459925868+460942509+462038446+463591362+465904734+469061755
2038+473102955+478163842+484283179+491187516+498500690+506134302+514121846
2028+522001807+528842288+534101381+537999369+540873652+542798711+543916938
2018+544321938+543596105+541391991+538355100+535511573+532977856+530049127
2008+526397306+522509123+518897862+515401098+511539834+507406519+503793493
1998+501374912+500156349+499790935+499954945+500263384+500314816+500098096
1988+500042736+500514393+501399333+502233512+502770731+503337030+504418380
1978+506007747+507704605+509317023+510893966+512392283+513878237+515739167
1968+518096876+520344413+521856007+522822465+523857560+525209956+526790917
1958+528646000+530986413+533779574+536568654+538889030+540821580+542895911
1948+545502589+548669446+552250925+555895986+558939577+560961714+562419654
1938+564105976+566228542+568445384+570453697+572137888+573413791+574358994
1928+575424235+577241072+580055974+583341590+586281586+588782355+591280139
1918+593438576+594255580+593802223+593380658+593781029+594614051+595328191
1908+596043914+597072858+598218125+599022887+599458582+600021867+601167743
1898+602840241+604481557+605430779+605601671+605694913+606367091+607400115
1888+607984838+607606269+606452354+605268049+604753790+604826690+604910491
1878+604889724+604952088+604937958+604938385+605878228+608221077+610348942
1868+609629016+605817935+601345882+598125675+596293735+595270151+594557290
1858+593570247+591800853+589457395+587290676+585816597+585031567+584733024
1848+585039423+586360881+588203052+588411094+585617325+581521161+578457777
1838+576961347+576148059+575338424+575023377+575911271+577148500+576545690
1828+573596437+570234815+567744217+565655269+563591291+562101013+561500699
1818+561268905+560797400+560259633+560452511+561683284+563004498+563159190
1808+562256314+561558374+561970560+563556090+565865930+567993672+568919021
1798+568651904+568579735+570197238+573623051+576954100+577821653+576512315
1788+575433797+576169374+578622700+581834137+584910798+587222465+588532046
1778+589512816+591561203+595752618+601726217+606943896+608529852+606765696
1768+603933558+601710808+601374506+603746649+607844823+611130622+612583263
1758+613387234+614263739+615253888+617217742+621101906+626081335+629682852
1748+630514776+629598502+628772424+629450083+632188675+636083497+639036404
1738+640591786+643404801+649608671+656192692+657467498+654211664+650740539
1728+648902509+648974922+650749309+653392711+656490322+661261466+669255253
1718+679307476+686268665+686566842+682769221+678785178+676714805+677556292
1708+681624928+687955414+694297106+699502178+704881005+711509424+717685949
1698+721532658+723465147+723262830+720967607+719221539+720421800+724470765
1688+730122313+737406467+746503133+753624982+754460013+751682688+749734181
1678+750377187+753624191+758279620+762773781+767165808+772364486+777084473
1668+778525785+777374124+777259079+779855221+783273299+784766866+784704868
1658+785791303+790432056+799896815+811671354+816629285+813432038+811526346
1648+814399410+818194108+817348541+812749202+808979230+808072883+810263842
1638+815375978+821391111+823125059+818419873+812225747+808478127+807012087
1628+806165668+805141474+804276723+803241933+800782151+797224059+794699355
1618+794114998+793639412+791126098+787460086+784467166+782537905+781218762
1608+779949863+778192346+775690907+772974910+771175248+770808434+770999484
1598+770509891+769118761+767462829+766244540+765963720+766706362+767891703
1588+768668815+768637207+767990973+767205699+766719760+766802039+767812103
1578+770136316+772741045+772796405+770253553+768706209+770016217+772399140
1568+773289226+772895920+772403220+772337933+774397648+781347509+791944320
1558+796024467+789576683+780841716+774284247+770522863+769600194+770748689
1548+772875456+776003336+780810777+787291143+794914767+801858599+803163247
1538+797854762+792636900+792085735+795149240+797260600+796331658+795515628
1528+798130284+804157111+811477867+819196376+827287668+833846050+837176003
1518+838323097+837964931+836070810+834568107+836305161+842703248+853771808
1508+867606183+877014304+875370308+869222164+866461830+868181831+872930015
1498+879057392+884435427+887326822+889056873+892875323+899831823+906671330
1488+909457912+909465647+910223149+912341574+914809394+917699267+921899696
1478+927811174+935327001+943894792+951508488+954816516+952903576+949078609
1468+946753787+947125413+949160523+950292087+949561321+949166552+951875728
1458+958116505+964246074+966108465+964273967+960463130+955719879+952562828
1448+953806817+958325521+961251083+960391692+958917004+960914416+967708672
1438+977611319+985963455+988036629+985274772+982620225+982415167+984186936
1428+987075835+990967611+995381137+998840081+1000531032+1001847374+1004028710
1418+1005797494+1006021127+1005322517+1003267310+998726315+992979761+989476175
1408+990524121+995382781+1000481275+1002103285+1000713739+1000217690+1002627592
1398+1006074782+1008156970+1008896628+1008958565+1008372259+1007802640
1390+1007699776+1006285017+1001707968+996767090+996432127+1001268985+1006983322
1380+1009735922+1010182701+1011650080+1015979804+1021485308+1024918429
1371+1025325865+1024431333+1024222925+1025681656+1029037127+1033530740
1362+1037332746+1039325955+1040536814+1042647321+1045337861+1046351762
1354+1045099733+1044370855+1046556272+1050540376+1053685125+1054923755
1345+1055539721+1057560214+1061540908+1066396767+1070728379+1073592003
1337+1073741823+1069789632+1063183807+1058606637+1059186913+1062772230
1328+1064564948+1063434603+1062753593+1064772138+1067992893+1069698765
1320+1068898023+1066749756+1065383597+1066211989+1068139789+1068200448
1311+1065151437+1061237736+1059081431+1058480934+1057625745+1056591624
1302+1058097981+1063623400+1069988051+1072460805+1070496098+1067137825
1294+1063705983+1058796286+1052357577+1046774667+1042069358+1035063893
1285+1024337178+1012817272+1004572932+1000816298+999610616+998345737+995776271
1275+992044972+987312562+981315760+974940206+969853589+965899814+961118804
1265+954308896+946359384+939099348+933845127+930890271+929209917+926655554
1255+921626915+914906594+908926723+904856138+901285134+896097601+888545416
1245+879104286+868646820+858156710+848442434+839978969+833142872+828027935
1235+823933111+819938166+816052419+812967232+810792352+809043726+807828665
1225+807712951+808104126+807299546+804846464+802554590+802355318+804242922
1215+806905813+809563831+812432145+815627321+818691923+821597326+825209805
1205+829998671+835092354+839376828+842767500+845660236+848112587+850310915
1195+852983916+856839455+861851224+867069817+871124507+873228132+873697627
1185+873438305+873390254+874531562+877742512+883286140+890606044+898865609
1175+907679627+917187567+927357757+937464426+946109685+951667930+953702857
1165+954130635+955595639+959003729+963151417+966163642+967071208+966739839
1155+966869987+967625479+967308240+965267100+963607635+964362580+966778877
1145+968579635+968526163+966998430+965579285+966629362+971806115+979862205
1135+986761883+990147684+991655928+993610099+995989246+996666114+993941103
1125+988754545+983864215+982116198+985182262+992727564+1002353167+1010095367
1115+1011984311+1007284058+1000284013+996599669+998095794+1002535204+1006714317
1105+1008704481+1008046310+1006133309+1005686287+1007877489+1011221937
1097+1013565334+1013560523+1010191531+1003426326+995159696+988239677+985367283
1087+986582831+989028909+990533865+990669677+989255466+987017551+984540473
1077+979616769+970695928+961261498+956053806+955329983+956634022+959540217
1067+964233589+967618598+965535253+957824052+947973721+940058071+937140426
1057+939419145+943055437+942919929+937878988+931965622+929842996+932692064
1047+938402017+944501561+949853347+953424534+954127772+952727264+951704593
1037+952642975+954983997+957466921+959646431+960825864+959358363+954785517
1027+949408639+946373635+946725102+948716302+950145008+951222795+953785441
1017+957892019+961411195+962713225+961323862+956425615+947723717+937771922
1007+930271687+925929112+922178811+916875808+910137155+902678029+894833879
997+887150937+880166909+874086184+869223930+865532035+861809080+856863268
987+851611422+848312042+847148931+845893370+843444734+840817349+838783762
977+837079290+835080173+832273919+829018267+826503673+824723805+821667059
967+816048643+809390747+804303398+802141673+802579864+804378247+806484247
957+808618872+810744300+812745365+815199544+819186815+824680625+830183388
947+834348250+837306395+840345722+844987753+852057531+860827761+869309802
937+876098273+881771196+887758132+894186001+899940168+904495414+908523428
927+912605829+915855269+916443219+913866993+909493175+904791033+900668559
917+898191969+898131980+899267320+899029314+896389262+892565574+889374661
907+888283293+889775824+892525927+894580769+895710201+897359922+900322939
897+904008744+908347482+913728805+918487769+920113372+919565130+920507958
887+924067086+927606665+928782504+928027560+926821695+926540814+928675865
877+933328493+937844091+938498669+934717125+930911708+932042054+938017662
867+943846070+945794029+945696707+946908235+949000228+949259245+947335404
857+945173495+943638454+942670656+943597467+947588514+952322629+953721798
847+951230773+948357405+947292224+946177652+943170359+940466177+941519116
837+946126190+950708597+952828605+953792018+956570927+962289771+969287198
827+974709509+977448953+978964384+980537063+982507982+984676651+986430819
817+987566950+987513174+986492695+985345540+985413690+988851745+996172257
807+1004721108+1010755121+1012535111+1010420219+1005888665+1001585555+998917670
797+997148155+994964383+990929121+983516889+972915389+962893008+957394265
787+955472372+952530367+946608414+940707106+937642992+936404666+934622788
777+931688090+928538286+925868209+922957325+919077303+915977865+917082693
767+924053261+934006579+940919107+942454940+943236986+947704533+953895004
757+957508518+958761338+960556128+962276617+960553874+955743326+952307647
747+952125184+953089510+954113338+957254251+963042097+968255087+971237775
737+972626956+971290090+966419797+961438601+960072686+961423802+962171195
727+961467774+960941334+961277393+961696644+961491343+960821722+960080420
717+959262746+958575403+960206610+968022440+981084818+991417861+992773302
707+985409427+973579285+962915786+957895917+959215730+962680520+962556645
697+957307114+950935154+947296061+946416876+947375965+949974786+952483168
687+952235722+949779716+949302669+953499383+959642655+961176052+953253520
677+939956242+931985963+934614140+940633354+937612784+922957690+908602967
667+908636463+918799528+925120391+923968912+918883999+912731592+907430172
657+903510319+899501733+896834031+900564721+913844581+932591758+946689535
647+951333637+950680156+946972000+937374230+922833145+910751842+908607961
637+916082008+925202913+928570991+926179055+923433215+923625301+922744654
627+911977804+889289885+864762900+849392266+846374071+852122940+859495829
617+863016223+860572885+854307626+850480285+850842166+852417951+854843201
607+861395188+873397379+883260500+878310060+860982149+849081116
##END=
