##TITLE=<SNM>
##JCAMP-DX=4.24
##DATA TYPE=INFRARED SPECTRUM
##DATE=29/4/2025
##SAMPLING PROCEDURE=Instrument type and / or accessory
##ORIGIN=Admin
##XUNITS=1/CM
##YUNITS=ABSORBANCE
##RESOLUTION=4
##FIRSTX=4497.3318
##LASTX=599.83466
##DELTAX=-1.4281778
##MAXY=2.1780965
##MINY=0.56265974
##XFACTOR=1
##YFACTOR=2.0285105e-09
##NPOINTS=2730
##FIRSTY=0.5674727
##XYDATA=(X++(Y..Y))
4497+279748468+280771100+282355162+283959646+285084797+285360384+284528921
4487+282631513+280344834+278910804+279207930+280818290+282416544+283043646
4477+282768205+282404556+282637214+283410880+284452553+285673906+286407611
4467+285313576+282146040+278784250+277375812+278126266+279655498+280949693
4457+282098145+283325169+284257417+284502799+284429898+284652125+285022533
4447+284895127+284306165+284053584+284515052+285145297+285276377+284866154
4437+284425197+284549930+285264124+285620075+284512319+282289813+280806889
4427+281341139+283152188+284588128+284976666+284673252+283941839+282800968
4417+281581760+280844206+280971172+281909356+282986965+283421194+283292347
4407+283394954+283963700+284330817+283972016+283200935+282694835+282784278
4397+283204696+283387844+283073940+282587761+282450893+282843074+283510108
4387+284143028+284586071+284613927+284115525+283538404+283345825+283091159
4377+282024010+280555572+279859361+280059345+280093635+279377061+278591700
4367+278671065+279594704+280532595+281075042+281549938+281938035+281739755
4357+281254546+281484589+282322341+282386514+281112301+279678359+279509316
4347+280650951+281719686+281435313+280195037+279428247+279580747+279987737
4337+280291973+280475620+280060432+278815749+277673085+277636973+278352900
4327+278749195+278630398+278711055+279321908+280045505+280638463+281318749
4317+281910737+281864987+281433697+281492875+282022835+282080368+281321070
4307+280342102+279615596+279169584+279029190+279360342+280303903+281652163
4297+282684227+282697362+281790383+280773833+280318007+280421789+280588834
4287+280433895+280066132+279697399+279237137+278718166+278732917+279753815
4277+281232685+282093473+281902510+281081859+280269113+279864180+279996141
4267+280525366+281095787+281390562+281319278+281035580+280949281+281435401
4257+282256963+282686402+282497378+282311968+282566694+282857472+282854064
4247+283013175+283647094+284104653+283651854+282550768+281701762+281721743
4237+282549210+283449578+283495416+282521913+281428143+281186846+281755240
4227+282346053+282586733+282782251+283167321+283565643+283660228+283071854
4217+281526137+279653060+278989375+280258946+282239274+283234903+283005183
4207+282399913+282096206+282432617+283477845+284663702+285142006+284750736
4197+284001194+283252209+282515037+281853792+281500427+281545236+281695915
4187+281639264+281609527+282008996+282517535+282428209+281801548+281384215
4177+281577617+282313526+283546455+285138010+286540953+287111726+286793445
4167+286210271+285873243+285565833+284843764+283783080+282826913+282323487
4157+282527937+283508815+284743508+285368700+285133368+284677513+284692351
4147+285183584+285693886+285881794+285623601+284940024+284241903+284241550
4137+285157785+286216677+286296806+285125493+283610864+282846688+282961548
4127+283285971+283459392+283625644+283745705+283620825+283417521+283435386
4117+283596760+283697193+283827743+284123546+284402807+284452377+284431632
4107+284636170+285031995+285338846+285374988+285081271+284566003+284220776
4097+284234557+284005719+282789038+280909261+279551070+279392458+279938285
4087+280287448+280194979+280058669+280197182+280653302+281431816+282358806
4077+282960197+283017171+282970804+283309684+283818341+283784520+282828765
4067+281301471+279979128+279479815+279875434+280763225+281615198+282075196
4057+282087038+281824203+281481974+281169305+281015188+281172537+281565511
4047+281966977+282467466+283395248+284559597+285102691+284433042+282948120
4037+281694152+281445450+281990895+282441579+282469522+282669888+283353994
4027+283874522+283638014+283010883+282652905+282610710+282582355+282583060
4017+282866845+283265256+283151483+282290783+281348691+281307377+282445164
4007+284002634+284971612+285088000+284698081+283977775+282997484+282262163
3997+282332625+283034831+283639542+283693960+283365777+283127212+283278802
3987+283780230+284451378+285092642+285389709+285088764+284409594+283980478
3977+284263294+285130165+285899835+285828903+284797485+283482664+282781692
3967+283144872+284360994+285795406+286833494+287150072+286734766+285964390
3957+285457261+285439778+285454411+285109332+284849318+285363528+286383986
3947+286845630+286339206+285569741+285270823+285468310+285868336+286273387
3937+286563460+286914886+287883776+289516909+290578180+289788647+287828065
3927+286771613+287650237+289319335+289981109+289590250+289706432+291116162
3917+292564179+292233262+290074989+287637543+286088212+285521288+285993598
3907+288271844+292871206+298519265+302516355+303447252+302185497+299805996
3897+296669106+293481707+291613095+292036423+293994418+295319054+295374882
3887+295703536+296808678+297185197+296522277+296452609+297040395+296585922
3878+295297722+295192117+296803653+298996805+301243875+303398446+304160300
3868+303301334+302790502+303525324+303908778+302357890+299573778+297191279
3858+296478643+298928958+305709925+313136475+313205233+306530252+299563171
3848+295622791+294903337+296248717+298389537+300865240+304086783+307898845
3838+310177767+308976366+305748417+303054278+301343015+299670979+298061999
3828+297464751+298094791+299839640+303492649+308801123+312103676+311023981
3818+308287353+306054152+303098970+298722863+294853091+293793524+296551425
3808+301742894+305723911+307021367+308302574+311210596+313095485+311547536
3798+308211662+305078445+302523495+300722113+300226091+301121522+302865283
3788+305090874+307742467+310364881+312456542+314538536+317502240+320958762
3778+323544330+325034894+326824846+330604351+336972598+344306767+349639952
3768+351988278+352739172+353052605+353743469+356056828+360195929+364134457
3758+366119310+367558982+371179434+378195410+387523922+396150904+402091152
3748+407191267+413917845+421205382+424951567+424911400+425373719+429457667
3738+437832892+448806642+458122137+461459863+458724028+453976191+451523818
3728+453171819+457481108+460889324+461157889+459171068+456577420+453951685
3718+451424649+449614217+449723582+452531142+456605804+458674047+457717850
3708+455772078+454717388+455306879+457364338+459417654+459715661+458490959
3698+457571521+458261268+461032451+466191363+473609010+481446106+485544158
3688+483124812+477143987+472161552+469883335+469813696+471216404+474413911
3678+480058296+486378002+488906624+486890802+484216525+482924976+481011878
3668+476845774+472299301+469151217+467376926+466823460+468273768+471963566
3658+475712484+476240387+473779611+472470078+475382155+481822773+487063429
3648+486101298+479827460+472967981+468764119+467604266+467998739+468530903
3638+469081226+470165211+471987190+474685238+478937876+485183241+491250395
3628+492788972+489693866+486273749+485500406+487697583+491189190+493241653
3618+492693534+491503563+491948723+494017729+496268032+498110727+499625444
3608+500114326+498779142+496382745+494846813+495162156+496431345+497374848
3598+498465091+501255932+505702530+509587728+511286385+511662729+512197801
3588+512739515+512045595+510195613+508202650+506527500+505237742+504351361
3578+503939581+504284014+505656222+508187254+512090140+517307349+522614471
3568+525712075+525028322+520972171+515133737+509655133+506746054+507163240
3558+509461496+511552423+512484525+512282543+511300489+510530878+511201173
3548+513122205+514289022+513144184+510559556+508317775+507121339+507062396
3538+508217930+509923052+510804438+510320198+509471310+509235009+508857784
3528+507134562+505153236+505534692+508692061+511933997+512726762+510904106
3518+507587831+504302996+502926734+504480119+507635197+509408724+508199242
3508+505522821+503797953+503605844+503917132+503975782+503919777+503669430
3498+502395069+499926918+498072470+498938047+502165408+505345991+506969016
3488+507427691+507356995+506702037+505163990+502621087+499622388+497421097
3478+496819500+497456122+498350378+498729895+498469558+497919441+497281584
3468+496431227+495640989+495581575+496105600+496267561+495803362+495459752
3458+495853137+496496282+495992944+493591434+490376355+488150529+487547816
3448+487889457+488055856+487013742+484633006+482266345+481570193+482628937
3438+483935972+484302678+484032761+483916844+483878263+483243904+481890796
3428+480380633+479118496+478254299+478189391+479026026+479809565+479641580
3418+479115998+479331232+480118474+480392328+479730495+478756933+478315358
3408+478480317+478468563+477826946+477174310+477144927+477340856+477212333
3398+477041673+477159648+477221206+476803609+475969295+474948220+473778494
3388+472431410+471057792+470119666+470195740+471461902+473482603+475638055
3378+477601105+479381272+481001211+482134296+482309598+481658196+481031741
3368+481072555+481562994+481960699+482159830+482538818+483654479+485741409
3358+488068255+489332214+489254260+489007174+489631073+490962908+492175651
3348+492522346+491751736+490498767+489862027+490106439+490474907+490385493
3338+490022667+489810606+489989258+490547249+491071715+490877343+489686050
3328+487982074+486359108+484837574+483329674+482500767+483327940+485553913
3318+487315304+487001019+485028420+483040746+482083815+482295846+483320800
3308+484114418+483612049+482500032+482828363+485238012+487849819+488552083
3298+487380947+485984587+485757364+486836442+488314753+489203162+489129968
3288+488363295+487523457+487305432+488248552+490538170+493844014+497169869
3278+499106473+498940457+497634010+496926515+497324602+497683021+496833017
3268+495018059+493529611+493282731+493792887+493576037+491991299+490367334
3258+490490569+492385860+494342886+494786988+493559406+491629383+490029865
3248+489176746+488953021+489095472+489205101+488588108+486714589+483938352
3238+481571603+481080576+482774297+485168255+486303897+485891823+485262224
3228+485202428+484998919+483814001+482057723+480884412+480826145+481452071
3218+482172436+482734483+482790194+481750166+479718418+477873813+477122096
3208+476981643+476423357+475273230+474188364+473646503+473482250+473286644
3198+472934043+472586055+472324894+472004321+471512178+470966115+470505001
3188+470092134+469526738+468540423+467026147+465342357+464202779+464007026
3178+464412929+464643472+464133169+462962533+461693873+460669272+459696650
3168+458669963+458040304+458205763+458787114+458993239+458533800+457798332
3158+457179399+456561905+455662801+454585045+453626528+452780989+451893315
3148+451118415+450817881+451020774+451187025+450657241+449417113+448163644
3138+447483711+447380428+447698093+448321404+448717140+448088364+446381155
3128+444533935+443440753+443106340+443043048+443062911+443166224+443049836
3118+442481560+441817964+441570643+441887162+442613198+443249320+442986044
3108+441621947+440118895+439414015+439230809+438692857+437591183+436492918
3098+435969364+436005094+435967983+435262956+434066667+433148758+433017678
3088+433445472+433742215+433394491+432519717+431696510+431275063+431031474
3078+430652809+430334734+430553229+431240978+431686784+431474635+431017546
3068+430835663+430806926+430530045+429951191+429234764+428431597+427611710
3058+426985519+426593750+426116709+425321799+424579720+424588858+425528071
3048+426648462+426834518+425660355+423879629+422711960+422663742+423241744
3038+423696130+423657402+423143280+422430702+421851495+421416121+420888041
3028+420239960+419569459+418708553+417450912+416147785+415648912+416432510
3018+417872123+418704968+418399821+417557456+416800362+416050202+415167376
3008+414498903+414370291+414468344+414093558+413006488+411730893+410845952
2998+410291133+409735375+409349893+409645079+410643882+411638453+411802354
2988+410957227+409724121+408866506+408549018+408329964+407773530+406949324
2978+406339029+406279322+406558876+406678085+406475868+406303240+406477954
2968+406711553+406335562+405166248+403745176+402558202+401653103+401180147
2958+401437458+402108429+402293515+401603122+400589598+400036807+400316273
2948+401246612+402116539+402036880+400700021+398743054+397176739+396569295
2938+396814647+397452533+398047988+398383988+398453216+398267835+397759296
2928+397009871+396399312+396279457+396603204+396972730+396944111+396331289
2918+395397307+394650115+394335947+394280471+394193496+393933100+393563603
2908+393305793+393329858+393535806+393604681+393250258+392447061+391503882
2898+390825359+390485951+390186092+389744606+389376226+389293217+389316783
2888+389121794+388619749+387932705+387288913+387024257+387345770+388049475
2878+388686390+388907207+388615635+388081326+387777795+387767070+387578781
2868+387019056+386524532+386419633+386532965+386691283+386891502+386939632
2858+386572692+385939625+385474221+385319135+385210298+384909529+384481265
2848+384100338+383827954+383695111+383766248+383990503+384182201+384171858
2838+383867181+383306750+382692577+382146603+381522234+380768490+380274054
2828+380411951+380966035+381458413+381823473+382252971+382538079+382188239
2818+381266334+380513647+380402783+380539593+380298472+379631908+378870936
2808+378129562+377357864+376699763+376413921+376565216+376971325+377319989
2798+377284934+376751654+376000642+375426901+375021057+374437413+373671240
2788+373222113+373344349+373614265+373586850+373431882+373526467+373786805
2778+373718312+372985018+371821081+370847019+370432301+370335718+370066771
2768+369467231+368838014+368604063+368880855+369333066+369487271+369128205
2758+368353892+367468010+366881458+366803856+366974074+366961998+366704775
2748+366490276+366466710+366444173+366238136+365972099+365821068+365603424
2738+364976029+363999617+363146351+362710065+362529563+362353850+362189978
2728+362138234+362100358+361875663+361428388+360898223+360463524+360262570
2718+360290367+360368791+360346078+360227516+360019510+359654098+359153874
2708+358668547+358310774+358116373+358129919+358361725+358618243+358509025
2698+357834557+356947970+356435522+356414954+356478305+356325070+356072431
2688+355947492+356017043+356185587+356244060+355993918+355464634+354932970
2678+354623650+354452815+354167325+353701216+353276625+353139845+353300073
2668+353562408+353769326+353939780+354131977+354233526+354034806+353529146
2658+353010087+352806225+352942652+353104056+352980204+352565192+352008846
2648+351372694+350737483+350326643+350299052+350589655+351036166+351439483
2638+351522550+351134395+350501446+350058255+350058314+350431895+350932942
2628+351297620+351292536+350821666+350090489+349531674+349422750+349604927
2618+349657435+349368684+348980470+348869488+349027895+349081167+348838988
2608+348533254+348448659+348610738+348868519+349066563+349140404+349147338
2598+349161413+349137348+348962046+348634979+348344553+348330596+348614705
2588+348920821+348997777+348942506+349025456+349289496+349508314+349500263
2578+349328135+349162618+349057601+348954701+348856589+348849802+348935454
2568+348939862+348666596+348141866+347643082+347418710+347464842+347660271
2558+347963185+348330802+348601100+348603774+348316551+347893958+347596774
2548+347597802+347768167+347777570+347482061+347097960+346946812+347133632
2538+347491551+347739371+347684131+347350863+346945166+346686357+346674662
2528+346862569+347099899+347256719+347350952+347467486+347564657+347552698
2518+347537155+347724386+348079367+348303916+348189879+347853085+347583580
2508+347550054+347668499+347743897+347720507+347718803+347825553+347974909
2498+348058946+348024890+347875476+347715688+347720889+347897572+348017956
2488+347940619+347782066+347653954+347506096+347324800+347246435+347413215
2478+347808070+348193287+348262044+347979170+347647548+347566391+347815798
2468+348326012+348875218+349119248+348918647+348538249+348332153+348342761
2458+348304180+347966124+347375751+346838210+346611928+346693908+346880493
2448+346989241+347052122+347257747+347632004+347913821+347896338+347714895
2438+347620339+347662504+347766845+347932303+348164433+348324367+348234512
2428+347932480+347691682+347755709+348130642+348648025+349132177+349459361
2418+349559353+349503877+349561175+349962377+350567617+350950337+350871560
2408+350529771+350325586+350484139+350899915+351298384+351566978+351883878
2398+352452448+353198435+353847046+354269727+354715797+355760437+358077382
2388+362230703+368625278+377615351+389598894+404942522+423828120+446190486
2378+471629271+499162302+527300309+554941383+582002193+608367203+632746302
2368+653811712+671437906+685167384+693116783+693732837+687393768+675464556
2358+659062006+639020434+615154369+586802803+556828859+532173672+518577067
2348+518036705+529746305+549919868+571470399+587612846+596024683+598756580
2338+599928216+602307159+605403529+607342249+607631265+607073449+605714993
2328+602193974+595345161+585716732+575057237+564884627+555800908+547411050
2318+538629923+528737160+518236219+508140828+498588737+488869395+478665844
2308+468476426+458886695+450101542+442108419+434803311+428002040+421611667
2298+415723928+410434907+405754651+401744427+398485655+395793043+393178944
2288+390314733+387439915+385120914+383652153+382833676+382267487+381701708
2278+381084362+380445771+379828631+379243459+378629609+377945739+377302124
2268+376864163+376615285+376353773+375942757+375438772+374953328+374507081
2258+374077201+373712582+373490061+373375613+373263338+373137695+373068379
2248+373080280+373146422+373224082+373207040+372992247+372665033+372421532
2238+372284899+372138804+372017509+372050096+372130665+371956392+371415178
2228+370706890+370076820+369591406+369166345+368708932+368216760+367757849
2218+367377421+367057171+366777205+366598760+366627173+366847873+367086584
2208+367237673+367432251+367831102+368359681+368805839+369088890+369313027
2198+369632219+370127566+370759134+371415942+372023562+372573356+373065147
2188+373478396+373808813+374102089+374411556+374711238+374921506+375053496
2178+375214694+375433835+375629294+375791197+376039399+376450209+376938562
2168+377342937+377576712+377697419+377834611+378042410+378232668+378264373
2158+378109463+377934602+377982703+378351054+378923091+379542700+380193984
2148+380946054+381805873+382766947+383944988+385481919+387339688+389381985
2138+391642983+394325222+397499928+400957009+404453523+407990585+411653115
2128+415273421+418589726+421690063+424887306+428213307+431425653+434353068
2118+436878605+438824377+440121716+440838173+440973189+440543163+439777048
2108+438883820+437775829+436320966+434690743+433160335+431676470+429899888
2098+427628400+424947689+422038403+419100528+416402774+414138133+412239315
2088+410504428+408842382+407262140+405730351+404206584+402781398+401615815
2078+400715595+399933671+399252475+398841959+398749342+398815719+399002745
2068+399434270+399963672+400107710+399667428+399077673+398865700+399059866
2058+399372888+399711650+400195125+400809151+401346075+401658539+401820765
2048+402074550+402651024+403576426+404675926+405800960+406941214+408103800
2038+409267649+410484594+411863677+413420795+415007971+416408857+417553754
2028+418660805+420049379+421748301+423412197+424733777+425859046+427231224
2018+429006190+430784007+432037270+432689083+433136857+433879818+435227755
2008+437142968+439209418+440909398+442063727+442914907+443759358+444660578
1998+445588390+446664912+448073731+449752701+451352160+452563111+453370921
1988+453931645+454417148+455058354+456091329+457562618+459323744+461200377
1978+463055796+464830791+466642369+468641678+470770451+472964778+475427846
1968+478208549+480765762+482581630+483908587+485331833+487089816+489241684
1958+491894451+494888008+497758948+500215405+502277124+504093316+506008705
1948+508536447+511934173+515927619+519801534+522687988+524246252+525144680
1938+526372967+528322677+530819448+533553931+536201204+538592841+540983361
1928+543810461+547191615+550766465+553893746+556242541+558306376+560663165
1918+562795874+563719808+563740494+564172313+565652710+567745282+569668136
1908+570927628+571590519+572152272+572973128+573991911+575117885+576535284
1898+578348713+580105491+581059219+581190328+581490862+582652919+583998387
1888+584512128+584424683+584603569+585151688+585575339+585668308+585597670
1878+585500352+585353082+585184715+585445170+586952835+590012828+593403855
1868+594765249+592970860+589363865+586028314+584122503+583671056+583932275
1858+583852822+582721265+580737059+578804979+577723022+577609896+578072097
1848+578898536+580170429+581147193+579922373+576043111+571817418+569247012
1838+568143487+567287371+566278930+565943959+567069698+569004657+569780850
1828+568394069+565911226+563427971+560871141+558064609+555465702+553561419
1818+552394837+551822330+551894437+552701835+553802774+554180411+553214812
1808+551424008+549876616+549418763+550475510+552781876+555166931+556317528
1798+556152628+556038209+557518665+560717759+563422741+563037171+560274539
1788+557947957+557511730+558758764+561083818+563995718+566754942+568595522
1778+569716089+571433493+575116004+580857002+586396782+588551001+587100222
1768+584411695+582427254+582135183+583774250+586367810+588249292+589119571
1758+589937900+590926124+591945084+593956851+598098038+603524868+607342367
1748+607847174+606385994+605283585+605977388+608609499+611986657+614305775
1738+615515257+618025427+623501621+629277291+630504756+627430718+623203967
1728+619590801+617744521+618172461+620053649+622696514+627189715+635001188
1718+644611165+650342584+648811118+643465680+638608536+635885924+635537319
1708+637620018+641488644+645176502+647682911+650870252+656587214+662887497
1698+666286457+666379309+663703946+659372531+656203055+656046382+658506835
1688+662725241+669123019+677336869+682400814+680150923+674697471+671106872
1678+671084364+674255897+678628390+682007957+684588941+687498079+689596645
1668+689046235+687338938+687305559+689419875+691737583+692285173+691482123
1658+691672234+695491319+704726539+717272804+723912877+722199704+720750512
1648+722886160+724903217+722097743+715864866+710463776+708306854+710621447
1638+717705446+727108739+732259776+729508074+724215761+721999015+723955248
1628+728249757+732781156+737463527+742993023+748425436+752557690+756487609
1618+761999357+768284537+772116668+772849668+772864595+773584960+774345815
1608+773914524+772604845+772217748+773715716+775965313+777515467+778803226
1598+781099308+784230585+787042817+789275489+791318168+792949773+793780384
1588+794005696+793980427+794045893+794858639+796855950+799754628+803464642
1578+808393070+813344711+815027619+813748204+813981509+817560707+821704950
1568+823461787+824443899+826946488+830566706+835479854+844291776+856539681
1558+862379819+857856942+851653448+847889251+846065185+845783927+847014036
1548+849543246+853492617+859177081+866483806+874994548+882239156+881552758
1538+872115439+862651322+857717899+855306575+852160136+849239362+849623933
1528+852930100+855768366+857288137+860771193+867201291+871880254+871489043
1518+868981400+867089752+865855118+865635976+867800185+873239415+881857935
1508+892612926+901202062+901918313+897443800+894001764+893891635+896669370
1498+900312742+902146857+901772924+901881642+904507642+908847637+912273806
1488+912836323+910977232+908871849+908748497+910924224+913479644+915335680
1478+917828572+922149409+928199345+935494551+941811112+943446595+941121012
1468+939320042+939573386+938840092+934542880+929698312+928847191+932910159
1458+938359379+938342043+931004994+922304318+916655878+914861783+915868813
1448+917374127+917339396+916135674+915364299+915503165+916281063+917808239
1438+920174018+922180438+921980807+919863787+917589802+916098063+915553529
1428+916232345+918578026+922335230+925805063+927127377+926440980+925160390
1418+923648141+921415763+918994507+917512523+917377536+918108537+919138956
1408+920046494+920289084+919680317+919004086+919615967+921924978+924453542
1398+925216806+924331130+923681580+924178630+924947066+924799738+923228604
1388+920374824+917382237+916255323+918350540+923306647+929484753+935102635
1378+939183820+941929351+944208861+946252891+947407485+947747393+948392418
1368+949669247+951007428+953057453+957136993+962009240+964601272+964834929
1358+965260402+966525418+967384179+968014336+970012118+973312702+976071045
1348+977746489+979672868+982790100+987533119+994949385+1004893334+1013504919
1338+1016291176+1014232453+1011860856+1010969597+1010092560+1008342246
1330+1007187006+1007581685+1008462953+1009648869+1012894096+1019081076
1321+1027147774+1036153921+1045319560+1052205044+1054742717+1054730258
1312+1055270443+1056291342+1056334595+1056901695+1061009385+1068123001
1304+1073519802+1073741823+1070317005+1066552867+1063594423+1061269487
1295+1060724835+1063397202+1067704581+1068517680+1061907578+1050266441
1287+1039321222+1032584419+1030119264+1029901944+1030109627+1030686482
1278+1031720780+1031283554+1027733328+1023225318+1021102187+1020804474
1270+1018571449+1013506799+1009298384+1008324498+1007556768+1002699330
1261+994485009+986889621+981324395+976706550+973124942+971703958+971612928
1251+970283444+966887892+962514224+957693692+952062235+945346177+937369157
1241+927774283+916700306+904998992+893412743+882374261+872688710+864913966
1231+858092009+851088933+844958839+841834790+841702859+842067331+840733205
1221+837710000+834630555+833185065+833632340+834336544+833571634+831873858
1211+831398728+833225380+836544358+840167867+843631471+846754286+849208686
1201+850921447+852505451+854972309+858928439+864040102+869165223+873198513
1191+876168299+879168291+882730741+885880882+887634781+888958505+891497001
1181+894792884+896967318+897731053+898663096+901088348+905475944+912391457
1171+922124022+933458336+944159320+952327686+956855206+957605600+955952957
1161+954500239+955346894+958948013+964296213+969682847+973629515+975905204
1151+977649641+979599762+981101668+981256460+980037047+978816106+978799592
1141+979457429+979712889+979152135+977911742+977094294+979256799+986221324
1131+996000490+1003698720+1006709584+1005843007+1002450746+999495358+1000564328
1121+1005541063+1010506749+1012165268+1011034123+1010124059+1011130266
1113+1012908552+1014017014+1016397779+1024096244+1035786980+1042804219
1104+1040586121+1035594812+1033546785+1031246531+1024901938+1018185468
1095+1015989701+1017532568+1019518654+1021170710+1022356038+1020578222
1087+1014248203+1006434202+1001941589+1002358247+1005338199+1008331315
1078+1011585004+1016126863+1019143486+1014835519+1003609159+992621745+986764800
1068+986410201+989958782+994496645+996063723+992851877+986896085+980850322
1058+975425901+971725055+972469044+977950293+982893236+980903271+972392471
1048+964283578+962110848+966507259+974837586+983376712+988403104+988123491
1038+984802397+982179336+982677092+985159112+985412867+981843130+977712757
1028+975566648+973732592+970382584+966527357+963625976+962499062+963817674
1018+967127426+970413789+971891366+971876380+972460406+975177553+978421956
1008+978029276+972114386+963633675+956586641+951923604+947823672+942166241
998+934478883+925857307+917206289+909301670+903126325+898820944+895773351
988+893597976+891845547+889159194+884322090+878368062+873885851+871873907
978+870673476+868666586+866218826+863858924+860942087+856943410+852567215
968+848989720+846864415+846170966+846036742+845031299+842690907+840129198
958+838579339+838152985+838204700+838563648+840026474+843182316+847193686
948+850504672+852359767+853376317+855460603+860776599+869269534+877908622
938+883697985+886580914+888733369+891856772+896456634+903017254+911842104
928+921681977+929887306+934732521+936514980+936144924+934808154+933668957
918+932090772+928203282+922459463+918469307+918909413+922034696+923537013
908+922082003+920888389+922496604+924793273+924242686+921139970+919276824
898+920984296+924331307+925925829+925602317+926417121+930167566+935279112
888+939206857+941000893+941462683+941151865+939896251+938212285+937423163
878+938820523+942893540+948891114+954430953+956855617+956210827+955122287
868+955331145+956234157+957056541+958274133+959877999+960155555+958057871
858+955896717+956812482+959851202+960981054+959193188+957984647+960195634
848+964676846+968675112+970876109+971804861+973090681+975532152+977659220
838+977021129+973401440+969326131+967333581+968345547+971492103+974533937
828+976026617+977867020+982376969+987675452+990449838+991172436+992575437
818+996201003+1001548086+1005045070+1002883388+997476362+995159653+998070731
808+1002895141+1006711934+1009312488+1009695178+1006257079+1000766486+997693447
798+998522413+999916599+998842458+996637758+995922683+996855549+997634915
788+996852023+994127001+989173186+981638328+972457761+964452474+960496874
778+960896665+962933643+963730581+962852839+961033944+958372626+955412654
768+953475932+953308917+955782827+962893094+974674684+985220288+987272076
758+981799173+974648709+970088103+970448403+974323317+976795934+975666669
748+974356579+975347448+977314376+979504678+983628469+990457008+996086407
738+995241104+988416033+981569512+979563680+982527177+987634550+992281720
728+994182594+991268343+985409283+982558853+984837069+987455076+984918814
718+978049433+972568948+972943764+979723937+989286958+996015064+999055076
708+1002538661+1006970979+1006803963+998039114+985606269+977880713+977341350
698+979791989+979471063+975241021+972020770+974285177+979615101+981439460
688+978578276+975386880+972788443+967647043+960319339+955039132+954512992
678+958382793+963389263+965524206+963995914+959279752+954582748+950916575
668+945502614+939758090+937113109+935833048+933988179+934318625+939251284
658+943210058+940493617+934929684+933138997+936632161+941377177+944417131
648+947636676+949283031+947955075+948632716+953871257+958557213+956427559
638+950753967+950225123+954920129+955524018+948119740+941745881+944174423
628+951198127+955647487+957416606+959017475+957390220+946271521+929739155
618+918657538+917877290+924570077+933475790+940704825+945508256+951286689
608+960762794+966979980+958073385+936966721+913021204+889632973+871545753
##END=
