##TITLE=<SNM>
##JCAMP-DX=4.24
##DATA TYPE=INFRARED SPECTRUM
##DATE=29/4/2025
##SAMPLING PROCEDURE=Instrument type and / or accessory
##ORIGIN=Admin
##XUNITS=1/CM
##YUNITS=ABSORBANCE
##RESOLUTION=4
##FIRSTX=4497.3318
##LASTX=599.83466
##DELTAX=-1.4281778
##MAXY=2.1054559
##MINY=0.38422507
##XFACTOR=1
##YFACTOR=1.9608586e-09
##NPOINTS=2730
##FIRSTY=0.38901356
##XYDATA=(X++(Y..Y))
4497+198389400+197582825+198013098+199204532+200202488+200597195+200666623
4487+200613002+200396893+200220954+200326706+200405784+200009268+199476207
4477+199755496+201179393+202870998+203667086+203403390+202860831+202611300
4467+202437732+201943291+201383237+201477408+202305261+202857168+202216577
4457+200849659+200025469+200301400+201225992+202139581+202597150+202409037
4447+201817097+201330574+201177797+201118158+200730092+199763749+198459967
4437+197502120+197380911+197966179+198784822+199455218+199763871+199697058
4427+199574739+199840426+200581997+201365622+201462847+200323909+198221577
4417+196381269+196001121+197146746+198944483+200531568+201330087+200980960
4407+199765604+198586465+197971499+197617235+197130864+196561418+196115779
4397+195947363+196152362+196561402+196806845+196894374+197317199+198432412
4387+200016715+201424182+201992975+201470963+200222428+198875299+197755405
4377+196938966+196700120+197301666+198313179+198818001+198550368+198283435
4367+198768453+199664639+199884745+198902003+197339814+196243508+196153852
4357+196843580+197604696+197922210+198051246+198570628+199365683+199747882
4347+199545634+199193938+198856924+198402212+198059772+198245879+198821496
4337+199146123+198942021+198740929+199234351+200318620+201092366+200821512
4327+199644075+198335673+197620852+197720388+198447215+199568523+200779852
4317+201506315+201345134+200634766+200077722+199969447+200168154+200481230
4307+200733481+200801328+200777740+200820995+200878096+200861302+200913250
4297+201129983+201246921+201071210+201043791+201705311+202754364+203382219
4287+203258244+202501748+201277151+200021502+199304235+199134177+199191218
4277+199600151+200634478+202018660+203210520+203944431+204133364+203757290
4267+203088369+202702096+203029869+203829483+204276672+203974797+203621430
4257+204093651+205206949+205990802+205963931+205571244+205454063+205749752
4247+206141526+206370402+206553864+206959591+207590835+208087283+208024117
4237+207264323+205995528+204628368+203778675+203966514+205026617+206166239
4227+206835723+207036147+206758483+205957790+205091774+204850511+205303460
4217+205884685+206205254+206410587+206746400+207116335+207185367+206762891
4207+206050228+205650490+206091872+207119967+207810622+207629029+206986356
4197+206566935+206581313+206796632+206935289+206987496+207138859+207345727
4187+207288793+206908235+206580249+206573851+206747723+206933328+207257925
4177+207883287+208604947+209016708+209149331+209595623+210728694+212122392
4167+213125956+213697287+214184265+214596026+214627533+214305656+214133669
4157+214326889+214327466+213632723+212668766+212150342+212038146+211849956
4147+211546729+211406735+211409562+211315011+211023897+210610449+210390252
4137+210880726+212122133+213237711+213331182+212625876+212152302+212472461
4127+213073627+213088400+212447870+212029528+212658598+214255060+215983507
4117+216952357+216814430+215995468+215270343+214992907+214920775+214717600
4107+214355265+214122832+214405268+215326213+216627806+217949918+218979715
4097+219411553+219194578+218697218+218263937+217872496+217460872+217273793
4087+217689308+218766919+219968461+220545734+220424996+220277843+220491262
4077+220726385+220669056+220451457+220171924+219654229+218792423+217785484
4067+216991661+216575082+216289835+215890932+215703290+216224131+217263914
4057+218136223+218485715+218352879+217909003+217667741+218277159+219595471
4047+220688175+221063748+221095073+221019535+220506111+219535118+218846074
4037+219012894+219651721+220081721+220363199+221012924+222015379+222912051
4027+223584483+224082192+224017309+223156885+222222840+222117757+222778501
4017+223450872+223633225+223316866+222757816+222330750+222306766+222632640
4007+222994747+223088522+222939302+222995780+223658561+224645194+225179288
3997+224948406+224422367+224141147+224165875+224352013+224730777+225414456
3987+226320841+227084555+227253351+226745368+226084183+225929005+226413142
3977+227123449+227657619+227978021+228153063+227950055+227065968+225830989
3967+225130242+225403285+226269150+227192314+227906983+228214785+228011260
3957+227564041+227356261+227689141+228629084+230183248+232170572+233836765
3947+234220515+233442103+232856060+233279752+233825944+233255130+231799073
3937+230799703+231343327+233627237+236764641+238952587+238932464+237605853
3927+237037106+237912819+238857246+238496005+237420947+237173878+238203371
3917+239421996+239288476+237297625+234442096+232252918+231730436+233223471
3907+236861152+242493331+249083250+254706401+257629519+256884209+252290004
3897+245525924+240073925+238806513+241817175+245713141+246383612+244459027
3887+244004908+246392807+248961220+249939463+250612169+250717738+248223799
3878+244651229+244016262+247290665+252221261+257123770+261074040+261709828
3868+258660835+255425751+254169510+253170794+250382290+246820298+244790235
3858+246035609+252320234+264307696+275322553+273970394+262796863+251403864
3848+244432019+242913891+246034910+251631236+257602070+263389001+268691978
3838+271234158+269026560+263961988+259206830+255711363+252873904+250806985
3828+250287131+251264280+253672439+258715216+265966138+270375376+269066897
3818+266340905+265021544+262337652+256573823+250883449+248875272+251842360
3808+257931241+262823066+264949442+267190568+270632749+271841464+269430995
3798+266427446+263982993+260611121+256282557+253105394+252367821+253389137
3788+254959625+256522057+257927624+259403470+261707731+264812898+266815679
3778+266068120+263693277+262228739+263517520+268053272+274313122+279297658
3768+281690284+282767865+283722186+285116385+288086041+293338103+299274557
3758+303368546+306024837+310348537+318734674+330312244+339781433+342907666
3748+343330065+346356139+351858248+354337992+351903905+349734485+352569208
3738+361638978+374189260+384228123+387234529+384090819+379111755+376196054
3728+377267829+382192999+389029060+395324475+399568808+401465990+401932952
3718+402587465+405053196+411284717+422937064+437563050+447044459+447183648
3708+443171428+441024929+442917125+448422000+455279582+460283390+462302069
3698+463147993+465072015+469069310+475099480+482475699+489091015+491360137
3688+488155723+483330864+480881669+481583662+484435164+488752481+495140244
3678+504445470+514099322+517291273+513073842+509206039+509871677+510863052
3668+507167936+500930670+496839630+496446990+498383900+501063141+504555265
3658+509455144+514426336+517516699+520633204+528420485+542252496+554754081
3648+555298252+545598865+534965736+529024782+529173181+533820125+539397467
3638+543171951+544985874+545731883+546243286+548288410+554060842+562000960
3628+565827666+563798651+560520737+559557328+561692671+566171397+570841504
3618+573485758+574761043+577012443+580746802+584037240+584642814+581799519
3608+577019435+573447701+573273525+576082714+579371450+580639196+580239108
3598+581027308+584097913+586886675+587209676+587464648+591604384+599187578
3588+604347627+602712926+597138927+592046603+588651477+587418687+589969136
3578+596789359+604913076+609440073+608616126+606452513+608693700+616721544
3568+624803556+624879306+616703671+607288011+602166262+602317884+605548196
3558+608993781+611159340+612085847+612551532+613595798+615911823+619116723
3548+621442597+620921710+617843080+614632587+612552627+610649639+608342916
3538+607116145+608873226+613572575+619214177+623977725+627387867+629679939
3528+630951454+630495435+627009543+620872953+615694240+615313667+619711232
3518+625446762+629705290+632440614+634598148+636222332+636864807+636501074
3508+635499243+634112339+632374713+630183013+627577667+625674072+626418439
3498+630298279+634950208+637302588+636811612+635627884+636154060+638919659
3488+642304694+644468185+645507831+646683595+648091959+648415932+646727063
3478+643589584+640240297+637148717+634108449+631705001+630783236+630526744
3468+629429830+628200324+629322954+633516128+638426799+641238602+641438373
3458+640286926+639078333+638617329+638853211+638970058+638820382+639166606
3448+639673875+638810777+636493353+634271074+633075308+632597403+632474720
3438+632426510+631915837+630972489+630369044+630713627+632023747+633379827
3428+632918702+630131398+627666974+628326594+631190073+632983387+633075916
3418+633799613+635766252+637008586+636864200+636832708+637356756+637342773
3408+636553418+635647946+634521304+633043026+632235980+632681482+633526281
3398+633781679+633264622+632309237+631364066+630638241+630047137+629878372
3388+630712532+632696133+635388597+637398157+637119719+635141164+634013001
3378+634746790+635585753+634915495+633654436+633604828+634748006+635839813
3368+636584241+637458891+638243686+637937525+636764010+636605276+638522854
3358+640997309+641559719+639807866+637818855+637604615+639217674+641930929
3348+645428372+649061144+651408356+651523014+650268886+649583246+650167116
3338+650140245+647505353+643754945+642684172+645964883+651261902+654955529
3328+655939122+655489122+654258034+651621745+648021620+645648813+646210189
3318+649408280+653465883+656330760+656896331+655749504+654373787+653468740
3308+652444111+650566779+648482077+647940338+649571148+651791665+652831432
3298+652899948+652943416+652665038+651619313+650883639+651798778+653569538
3288+653717937+651563260+649545432+650503309+654964952+660710756+664648472
3278+665496311+664319635+662705786+661624071+661834845+663489122+665258605
3268+665867583+665897859+666540881+667483256+667143415+665265900+663613447
3258+663507117+664293554+664486698+663575937+662275361+661431717+661201002
3248+661270977+661101968+659796043+656737839+653079048+651239834+652357479
3238+655306252+658181403+659608796+658761443+656205098+654727246+657031902
3228+662340472+666829472+667740295+665618508+662553739+660218868+659401487
3218+659707526+660204581+661028224+662897775+664734131+663781847+659295157
3208+654077779+650814698+649047222+647033467+644887545+644225129+645887735
3198+649356058+653493848+656910617+658352053+657470595+655057299+652351825
3188+650299526+649129720+648325653+647216094+645135161+641723316+637832776
3178+635028512+633989960+634260678+635301843+636524663+636972657+636423318
3168+635697129+634928930+633237143+630874489+629649420+630271651+631067207
3158+630243078+628320636+627197398+627273209+626736515+623939485+619567210
3148+615860513+614200521+614203256+615118881+617030927+619735854+621731796
3138+621891199+621049622+620263246+618818101+615806770+612166947+609464209
3128+608019186+607348137+607225697+607552345+608110013+608806352+609397335
3118+609205589+608048549+606740436+605815752+604950769+604197830+604124269
3108+604483625+604416386+603684299+602540634+601048982+599534471+598777580
3098+599100703+600311363+601994761+603388230+603835130+603430604+602694384
3088+601885696+600990255+599842395+598150364+596011798+594290404+593761371
3078+594019078+593824354+592598069+591177790+590723595+591106174+591051945
3068+589926154+588353888+586915553+585660816+585059499+585744348+587165965
3058+588089858+588311454+588483563+588489885+587634812+586283473+585602940
3048+585886060+586194531+585653035+584307107+582676235+581393898+581214494
3038+582370378+584027088+584992138+584729689+583375250+581241912+578715660
3028+576197129+573966581+572318870+571524408+571582588+572224821+573003780
3018+573259664+572563811+571206636+569739666+568365590+567114988+566154496
3008+565659265+565430921+564914776+563951245+563309499+563811661+565024024
2998+565609961+564903773+563262992+561159869+559116507+557974423+557906941
2988+557688020+556199529+554260065+553604093+554370711+554889896+554033971
2978+552517940+551410569+550688514+549874780+549105062+548868511+549201360
2968+549514816+549029555+547468293+545468278+544075782+543697823+543874187
2958+544027450+544060765+544071769+543782205+542628144+540476447+538084794
2948+536453071+535894614+535932428+535863973+535487534+535206177+535208488
2938+535021058+534406670+534051691+534532271+535368255+535726578+535301503
2928+534208054+532610194+530660456+528547849+526639330+525472137+525343253
2918+526035641+527001665+527583589+527286730+526112972+524407384+522563428
2908+521116398+520485960+520341695+519983008+519500786+519686209+520730293
2898+521777538+521899735+521057063+519830718+518573124+517289997+516069123
2888+515107112+514453207+513990136+513483840+512643113+511490816+510514031
2878+510034728+509831249+509660812+509537338+509316047+508772149+508185027
2868+508110615+508540279+508797409+508276857+507018534+505591780+504552529
2858+503973219+503461330+502673434+501730664+501049067+500891792+501129103
2848+501288780+500957177+500281568+499819014+499750438+499631220+499061789
2838+498129050+497088492+496041795+494892020+493395869+491532428+489835108
2828+488922219+488759442+488735246+488328470+487481118+486479620+485644974
2818+485121412+484840055+484543044+483990879+483336244+482993364+482956005
2808+482789945+482399189+482080535+481827661+481359057+480774397+480445803
2798+480319016+479828557+478541174+476731658+475224321+474566282+474432261
2788+474048982+473126640+472033039+471125864+470374901+469709871+469300724
2778+469239535+469230932+468906047+468283360+467624226+467012209+466417092
2768+465953291+465638376+465161778+464442519+464028175+464268404+464581708
2758+464293208+463718579+463581701+463723078+463123067+461201872+458699512
2748+457006022+456715151+457140621+457312730+456947234+456192350+455138387
2738+453993476+453128888+452589276+451997716+451118173+450114122+449190320
2728+448394460+447805909+447539691+447489262+447337792+446871955+446125521
2718+445217434+444197456+443120057+442212122+441792154+441923683+442293739
2708+442481715+442194948+441358568+440219767+439183009+438382377+437682299
2698+437056025+436591859+436263144+436004038+435795057+435491176+434920347
2688+434251821+433809693+433475962+432826829+431906463+431253378+431077318
2678+430970411+430533633+429828661+429113353+428502704+427925886+427220002
2668+426342981+425520220+425028667+424924982+425076329+425261722+425206733
2658+424779622+424159367+423610758+423164253+422671849+422122054+421733091
2648+421645304+421651657+421438846+420974407+420396161+419714595+418958008
2638+418384595+418193275+418188776+417982744+417438299+416773117+416248582
2628+415904577+415675078+415590361+415658420+415662250+415325054+414646710
2618+413937208+413551863+413595179+413809722+413811242+413485840+413045779
2608+412690922+412388835+412018840+411586835+411236324+411064550+410956001
2598+410668869+410107007+409431125+408875555+408534255+408368712+408358954
2588+408538906+408843516+409031857+408911180+408568482+408218428+407933727
2578+407701736+407612307+407759278+408019022+408114743+407904637+407510294
2568+407164921+406983541+406886483+406701242+406321155+405791909+405256675
2558+404857347+404715574+404906833+405346164+405798657+406100410+406247503
2548+406258354+406153332+406031378+405947391+405801302+405511647+405188220
2538+405051798+405240443+405610985+405732179+405352912+404807617+404586963
2528+404719434+404942489+405204544+405601227+406034631+406287900+406297901
2518+406185279+406086367+406000799+405800967+405412734+404951000+404607664
2508+404458626+404446832+404482184+404506441+404530333+404608637+404688916
2498+404602892+404396738+404460937+405006263+405614967+405713180+405349295
2488+405102075+405313457+405754460+405991193+405813643+405344280+404928051
2478+404890084+405279169+405837930+406189049+406058067+405511920+405000670
2468+404919175+405157306+405341240+405399815+405542956+405803065+405982104
2458+406012654+406053325+406201147+406330639+406272854+406021438+405713332
2448+405508577+405498910+405617976+405658617+405479821+405143172+404801933
2438+404588818+404624413+404956442+405440396+405766132+405668892+405205304
2428+404821934+404954162+405522438+406039494+406218868+406235070+406364927
2418+406621875+406835841+406959193+407128232+407399831+407618843+407654681
2408+407595011+407569356+407542880+407447494+407413509+407686628+408295333
2398+408958418+409442159+409861884+410425934+411029410+411367883+411332835
2388+411037587+410600293+410087796+409444226+408379199+406672516+404636146
2378+402811644+401181533+399268909+397076693+395196169+393855165+392592191
2368+391031598+389395316+388114377+387411928+387463421+388599760+390955118
2358+394029219+397031522+399697389+402417240+405410090+408036683+409237555
2348+408456012+406152572+403724169+402499131+402544605+402996034+403150361
2338+402791126+402031469+401193540+400738341+401076328+402183759+403469136
2328+404278036+404495498+404529725+404804000+405335920+405785222+405910884
2318+405917936+406237259+406983693+407819799+408463855+409067118+409815680
2308+410513661+410937276+411251310+411746116+412467868+413294277+414137283
2298+414994788+415897555+416769712+417396716+417649833+417621564+417480521
2288+417364707+417397324+417631808+417976208+418219295+418150810+417754673
2278+417271509+416954223+416836373+416803331+416723660+416485772+416082006
2268+415643647+415303320+415115222+415130481+415412720+415945431+416591463
2258+417197219+417725431+418196527+418547645+418727384+418828151+418925848
2248+418984849+419058319+419279124+419559934+419590452+419166046+418380582
2238+417569433+417072195+416939025+416931912+416832543+416583924+416180249
2228+415633495+415046372+414637074+414655677+415177354+415950690+416545715
2218+416666270+416325426+415826456+415553945+415675504+416084498+416623897
2208+417227464+417879363+418600962+419472967+420544317+421688681+422647956
2198+423306786+423847339+424498752+425232206+425850607+426281518+426679479
2188+427286815+428169672+429067514+429647554+429912435+430163121+430599109
2178+431137778+431553733+431649606+431383722+430978283+430829915+431157171
2168+431788035+432433763+433031099+433625243+434161359+434640753+435218999
2158+435934459+436600218+437095784+437549432+438177196+439100694+440324486
2148+441742242+443105314+444098574+444625905+444990550+445628010+446711427
2138+448120642+449641050+451109357+452558454+454222580+456225331+458356510
2128+460301050+461989677+463680036+465735100+468195512+470571449+472312754
2118+473435506+474346845+475193377+475813814+476232080+476781935+477708108
2108+478918708+480205696+481516849+482875696+484186728+485352856+486484362
2098+487710951+488878538+489710814+490106890+489984845+489051134+487061362
2088+484168824+480825890+477486300+474413445+471566867+468699589+465709080
2078+462837941+460489270+458907399+457996789+457383252+456708646+455916586
2068+455236722+454922080+455000688+455223955+455273108+455067288+454796418
2058+454583729+454294165+453871097+453683151+454186650+455299827+456437199
2048+457162751+457551349+457977274+458805234+460194295+462012687+464040850
2038+466304896+469039308+472355371+476150190+480288011+484645057+488948057
2028+492731112+495599272+497555971+498992757+500347105+501840520+503455615
2018+504958058+505992841+506386880+506300612+505906117+505102354+503769558
2008+502121846+500544382+499183712+497916148+496708831+495760590+495133982
1998+494575676+494033663+494032447+495011329+496480062+497418849+497505451
1988+497362493+497663486+498525308+499701984+501008335+502401227+503788313
1978+505052047+506315477+507870507+509743979+511662013+513493324+515347311
1968+517217104+518926887+520469546+522049350+523755059+525486728+527228367
1958+529142419+531338679+533739816+536184968+538539232+540781878+543085623
1948+545769393+549145125+553235314+557293586+559964833+560807808+561095001
1938+562192827+564165728+566483637+569022778+571785216+574417129+576588524
1928+578495888+580725646+583596237+586690309+589434753+591998454+594641066
1918+596493838+596474322+595181468+594286878+594704171+596201295+597893204
1908+598849622+598863179+598633011+598878317+599614537+600534540+601676198
1898+603264757+605008645+606153161+606656478+607610343+609604887+611297161
1888+610874579+608671996+606644441+605900439+605939286+605695197+604783159
1878+603733908+603170222+603191013+603870087+605764563+609076219+612229443
1868+612352674+608584999+603368837+599386862+597305504+596333279+595528969
1858+594316850+592459154+590034307+587388473+585164369+584123872+584543475
1848+586149117+588607766+590895096+590613861+586801928+582056132+579040971
1838+577837971+577067705+576142840+576109889+578195929+581520898+582960875
1828+580940919+577355993+573932415+570317699+566257786+562811106+560908119
1818+560324432+560286861+560600134+561780762+563872638+565599261+565558772
1808+564045720+562656506+562738700+564810028+568413678+572012709+573932050
1798+574082577+574270493+576693333+581855085+586692376+586651887+582196324
1788+578157810+577489680+579677367+582988658+586476799+589522114+591322116
1778+592309782+594657298+600393071+609100415+616601962+618241040+614843300
1768+610307914+606897042+605801769+607738011+611375099+613841590+614674900
1758+615730899+617179387+618245722+620533963+626599302+635645940+642684051
1748+644194549+642143041+640274281+640596005+643133139+646405764+648409063
1738+649412049+652705223+660437059+668647226+670316945+666293995+661513121
1728+658014766+656467304+657214711+659605331+663260657+669766877+680955485
1718+694602863+702770838+700843412+693762501+687353674+683964749+684453840
1708+689313443+697530236+705820348+712259269+719123751+728152636+735477879
1698+737201341+735072502+730378807+724037279+719786836+720349853+724923783
1688+731717318+741317185+754055747+763251878+761822783+755136246+750939181
1678+751914445+757241132+763560470+767990378+772134613+778531829+784548959
1668+784805633+780745416+778624906+780741768+783587555+782841972+779902379
1658+779990045+787210357+803076427+822211658+828467649+821164170+816234592
1648+817654325+819086520+814389664+806589616+801410842+800977743+805601828
1638+814708105+824503244+826662054+818586425+808717361+803548071+803368788
1628+805355793+806825863+807191846+806283759+803299665+799457274+797871633
1618+799212941+799233611+793815550+786303912+781659642+780241369+779584728
1608+778094535+776324262+775093175+774160284+773007926+771751852+771027243
1598+771194063+771715557+771760667+771403074+771365199+771587768+771215158
1588+769914036+768196411+766721720+765978995+766300962+767958340+771430371
1578+776793291+781360169+780414998+775361278+772659756+774614783+777396007
1568+776315751+772579264+769959632+770274061+775060102+786847718+804000320
1558+812422477+804669363+792464029+783038521+777197939+774336892+773422665
1548+774148368+777822054+785847345+798117729+813389170+827328057+829456956
1538+818587094+807915786+804276935+805020025+804638540+802556513+803034540
1528+808566286+817669827+827191938+836018925+844432875+851002626+854432222
1518+855834263+855538377+852864698+849856043+851011502+859836361+877118760
1508+898867969+911150694+902876085+887420012+878190383+877516599+883959289
1498+893421943+899478710+899870955+899542240+903186258+910439582+916808832
1488+918206071+915423813+912116657+911123276+913173568+916828226+920487503
1478+924711865+931056616+939672464+948964285+955989204+958189111+956978390
1468+956214934+957571805+959230581+958868611+957682207+958922049+964488327
1458+973350392+980291232+980543225+976141829+970822742+966723130+965473075
1448+967282804+970079287+971659881+972145143+973292212+976277401+980845981
1438+985527578+987825486+986598107+984369809+983986439+985655611+988110673
1428+990876516+994329640+998502570+1003017529+1008036657+1013905995+1018970475
1418+1020249529+1018189328+1015582949+1013233487+1010226412+1006329306
1410+1002889496+1001466967+1001993629+1003235416+1005010128+1008155875
1401+1011782992+1012801299+1009954174+1006202306+1004323637+1003404668
1392+1002079593+1001866387+1004239680+1007045890+1006593944+1003287517
1384+1001256983+1002708876+1006775720+1012069213+1017807174+1023366095
1375+1028014195+1030961387+1031602890+1029897120+1026475852+1022929470
1367+1021870917+1024910031+1030265656+1034148353+1035761837+1038230699
1358+1043159426+1047638152+1047916955+1045058644+1043979056+1047499784
1350+1053905207+1058990053+1060482800+1060031705+1059989879+1060322789
1341+1059836555+1058778975+1057896118+1056747347+1055287551+1054931052
1332+1056755493+1060332395+1063874035+1065206406+1064119158+1063180127
1324+1064380696+1066460838+1067019904+1065915269+1065227562+1066469836
1315+1068753883+1069111111+1065740789+1061156645+1059632407+1062207416
1307+1066492573+1070437524+1073414992+1073741823+1069661301+1063375886
1298+1059343147+1058843417+1059055103+1056646185+1050925672+1043632650
1290+1036534048+1029964602+1023742899+1018524609+1015112278+1013381704
1281+1012406318+1010575554+1006235561+999730860+993605700+989697347+987086469
1271+983462574+978005604+971649607+964996021+957850486+950602148+944483067
1261+939339675+932780320+923538350+913656337+905909484+901049577+897911308
1251+894879124+891274926+887315810+882640658+875906823+866415717+855694315
1241+846514598+840130210+835153456+829537266+823026182+816936768+812364115
1231+809445921+807684767+806489245+805745303+805676180+806013224+806146729
1221+806012312+805885981+805900876+806556240+808468894+811168592+813565778
1211+815749574+818830211+823084909+827603638+831580932+835029618+838205640
1201+841039269+843546857+846206127+849022004+851204281+852983065+855938100
1191+860644562+865776160+869882520+872762595+875149750+878269294+882863287
1181+887933421+892125137+896249249+902355806+910990197+920839078+930339424
1171+938624915+945205791+949889455+953182264+955549539+956468021+955268425
1161+953033439+952316004+954854050+960335337+966708722+971712894+974273313
1151+973907269+970367088+965598615+963393966+965037908+968172044+970820675
1141+973177797+975295206+977024869+979777580+984648612+989007330+988787011
1131+984972221+982092632+982603548+986359854+991008318+993268047+992419053
1121+991499598+993532807+997268200+998699240+996800265+994346297+993917453
1111+996486991+1001788023+1007550484+1009880066+1006791830+1001153754+997664822
1101+998271004+1001208652+1003446981+1004382425+1006195741+1009984328
1093+1013208136+1012248435+1006404874+998037735+990150205+984766736+982537161
1083+982870861+983986257+983975922+982072083+978449282+973621718+968008203
1073+962009494+955625896+948700498+942260301+937898178+935739307+934823986
1063+934743494+935317151+936000419+937317044+940663596+945165302+947374207
1053+945105784+939588750+933690292+930144274+930713249+934688962+939263013
1043+942796264+946631846+952504284+959034336+962303679+959715538+952167301
1033+942996947+935590969+932172984+932805064+934930741+935874453+936222623
1023+938834230+944392726+950126553+953443862+954662669+955280949+955571668
1013+955035339+953279718+949114691+941269716+930601691+919544095+910211602
1003+903935732+901013404+899511052+895658023+887620938+877789748+869537937
993+863589688+858855808+854934810+852332322+850988704+849889601+848130453
983+845398595+841732508+837652411+833897260+830901067+829157240+829294757
973+830682329+830725311+826941404+819664797+811808454+806207949+803726745
963+803411162+803923902+804714716+806040703+808320373+811626314+815591752
953+819702915+823708903+827812467+832557290+838279627+844264596+848776334
943+850799755+851674830+853977297+858947303+865656091+872288095+877990978
933+883504790+889877809+897044197+904104619+910084238+913674332+913655546
923+910277443+905466110+901743546+900810777+902488825+904627998+904871358
913+903145769+901379569+901318957+902767932+903296661+900807129+896237576
903+892310864+890589712+891165679+893902401+898190536+902406691+905420636
893+908183014+912299709+917229773+920232714+919559416+916584014+914579196
883+915754596+919124067+921517361+921661626+922007547+925009089+929480459
873+931946890+930956852+928427804+926818393+927389009+930535182+935191914
863+938282582+937401974+934093541+932133832+933103808+935658937+937775495
853+938617620+938735500+938815445+939959900+942999500+947073031+950974149
843+954266715+956476836+956826100+955118263+952076656+949377505+949566454
833+954883110+964954316+976834886+986626438+990043267+986597378+981125514
823+977633725+975548719+973610896+973920158+978246898+984777071+991035068
813+996545050+1001363981+1003824454+1001162326+993198255+984154475+979132612
803+979605471+983683136+989158404+993346472+992109792+983381656+971103734
793+962296991+960230771+961656096+961140803+957093535+951468530+945673604
783+940096870+935813720+933478301+932065013+929935445+926615886+922641450
773+918651511+915692768+914990106+916839898+921294063+929467753+941018149
763+950787510+952757919+948170006+943591942+943184680+946641816+950987038
753+953027603+950962963+945419058+940004158+939028712+942945028+946994667
743+947094127+944622286+942653945+942170325+943564402+947945675+954938129
733+961350604+964377559+964874979+964544318+962834961+959100116+954829246
723+952142193+951907405+954347876+960833791+970725532+976584109+970633914
713+956996932+947827125+949344251+958293374+967352170+971777336+971029565
703+965453864+956667852+949914806+949172081+951819374+951448893+945303792
693+937225853+933150923+934904660+938337175+938472017+935161942+931257116
683+927752195+924036865+921491706+923019956+928998967+936277399+941533868
673+941649195+932255239+914204034+899624677+899921840+909068363+915719031
663+919037191+922136005+922149806+915428677+906156674+901294032+903026977
653+908852482+914615430+917192992+916479873+913945657+911775661+912602100
643+917739291+925785799+931489837+928299953+917007934+907155101+903348640
633+899929075+891441199+882125789+880847647+888863515+898749177+904981518
623+903991420+892693686+875459923+863300854+863564276+872183772+879229056
613+880268337+876134984+869395982+864013729+865017992+877493010+903011170
603+932219005+946381738+936095259
##END=
