##TITLE=<SNM>
##JCAMP-DX=4.24
##DATA TYPE=INFRARED SPECTRUM
##DATE=29/4/2025
##SAMPLING PROCEDURE=Instrument type and / or accessory
##ORIGIN=Admin
##XUNITS=1/CM
##YUNITS=ABSORBANCE
##RESOLUTION=4
##FIRSTX=4497.3318
##LASTX=599.83466
##DELTAX=-1.4281778
##MAXY=2.2341974
##MINY=0.69342959
##XFACTOR=1
##YFACTOR=2.0807585e-09
##NPOINTS=2730
##FIRSTY=0.71492273
##XYDATA=(X++(Y..Y))
4497+343587562+344693570+345441050+344861921+343209927+341839749+341838002
4487+342936906+343965427+344440400+344947944+345974632+347299893+348284673
4477+348254280+346954169+344884293+342755779+340740788+338774838+337164037
4467+336218101+335558965+334498904+333259408+333258090+335490273+338733646
4457+340375957+339592786+338382479+338626482+339728079+339856440+338387664
4447+336506161+336004891+337594495+339991934+341148072+340548232+339551507
4437+339609572+340936867+342529106+343098295+342490836+342010277+342704188
4427+343908623+344165975+342976494+341023463+339209564+338106593+337885506
4417+338025784+337785389+337499248+338216076+339806969+340902378+340920339
4407+340670377+340810225+341097541+341161592+340950589+340422220+339572877
4397+338833820+338898788+339962114+341316136+341999792+341698326+340691403
4387+339581557+339292236+340163607+340879089+339769787+337370801+335967652
4377+336651595+338377180+339664342+339928885+339201916+337901920+337031264
4367+337524113+339310712+341489384+343336082+344844361+346101589+346455764
4357+345022250+342405873+340716611+341053742+342258290+342602840+341733417
4347+340678197+340406494+340522422+339833982+338386518+337647117+338229225
4337+338977821+338756161+337829676+337074577+336844753+336926966+337084001
4327+337509245+338523788+339792560+340390337+339759962+338150908+336179286
4317+334476991+333753574+334603003+336767238+338902254+339786573+339506075
4307+338800619+338000575+337319783+337233789+337834660+338523788+339039753
4297+340009666+341584832+342348725+341005187+338727057+337981641+339226723
4287+340311304+339457063+337614805+336870104+337696101+338861405+339348725
4277+339246431+338798585+337738926+336042188+334554448+334262693+335183335
4267+336380923+337036564+337047105+336508081+335346901+333974947+333564598
4257+334769262+336716105+338097197+338789304+339651968+341066632+342318131
4247+342398683+341199147+339732003+339054706+339151185+339094982+338365492
4237+337422019+336881706+336906198+337299760+337701429+337853681+337885936
4227+338060244+338320318+338551746+338963785+339610976+339987494+339738735
4217+339261499+339061037+338990225+338513905+337566451+336792417+336690439
4207+336866695+336696798+336379519+336526987+337059079+337431845+337651356
4197+338214186+339121880+339679467+339539734+339215637+339229559+339454800
4187+339505245+339245772+338871718+338746422+338874067+338583686+337479826
4177+336452336+336722121+338222207+339804362+340684729+340995763+341160848
4167+341209230+340759121+339733121+338714253+338178493+338020427+338179582
4157+338870056+340000728+341074023+341590933+341198717+339961655+338749630
4147+338612962+339513666+340186524+339536697+337980695+336986892+337401423
4137+338724021+339825703+339922898+339165708+338619350+339141130+340196951
4127+340560750+340057532+339525039+339238067+338627857+337577422+337007145
4117+337889831+340060913+342038435+342190801+340412824+338216105+337029803
4107+336952575+337125108+336899695+336413321+336053073+335907697+336147031
4097+337310416+339438529+341428570+342119703+341596175+340850701+340539667
4087+340499878+340360174+340298786+340661612+340956862+340306119+338958514
4077+338145608+338418114+339321884+340450808+341539743+341862952+340843082
4067+339077966+337802663+337523711+337835806+338300209+338812078+339224976
4057+339295157+339166796+339463451+340521506+341650344+341620982+340192912
4047+338624162+338154030+338607376+339139669+339671876+340524370+341315018
4037+341280987+340380254+339374993+338903715+338850806+338612761+337833485
4027+336827193+336261528+336424836+336975921+337540240+338176975+338925142
4017+339459555+339656236+339844036+340219409+340498188+340204427+339030357
4007+337149972+335420119+334822543+335585548+337154269+338809499+339946187
3997+340044814+339065677+337872701+337602630+338543668+340021582+341227936
3987+341721299+341403104+340568972+339780042+339330306+339095526+339016636
3977+339255483+339840398+340572524+341187660+341435416+341254691+340904211
3967+340684328+340638666+340711827+340929563+341254490+341454437+341279956
3957+340852936+340698135+341183478+342088422+342946530+343574128+343952307
3947+343869521+343153123+342087935+341228824+340917388+341214501+342137549
3937+343610737+345272527+346623169+347244120+346807017+345294756+343221128
3927+341317969+340136050+339888638+340403285+341256438+342186104+343187985
3917+343988487+343950216+342990473+341957339+341677386+342168057+342906369
3907+343478938+343837381+344160762+344588957+345049865+345333027+345201801
3897+344446244+343169680+341932532+341339138+341432895+341556100+341195939
3887+340735174+340878774+341762664+342964377+344227391+345349183+345648501
3878+344875843+343867258+343496784+343735259+344076859+344370963+344698898
3868+345166137+346026652+347286802+348222369+347974097+346605752+344978566
3858+344164571+345204952+348498656+351764287+351185444+347712648+344704341
3848+343592203+344066116+345326696+346881037+348495619+349923089+350816575
3838+350749573+349654593+348168916+347051249+346461378+345962973+345281694
3828+344756333+344875957+345827594+347541032+349394605+350037958+349097779
3818+347969199+347625594+347432723+346612169+345464367+344791854+345339787
3808+347310177+349675247+351140901+351796886+352222932+352087094+351213546
3798+350340713+349916443+349709937+349745973+350480275+351916080+353574805
3788+355291252+357193752+358968377+360153905+361123818+362774666+365418085
3778+368686494+372162900+375459525+378269547+380825196+383697408+387014143
3768+390574537+394342584+397855140+399981620+400270196+399874371+400546913
3758+402621802+404769623+406222501+407786639+410209544+412562754+413996640
3748+416147898+421228832+428722959+434596660+436629011+436997079+438082433
3738+441029811+446243230+452748826+458385312+462157369+464841207+467015468
3728+468280173+468475422+468633574+469958635+472314395+474395472+474908400
3718+473603420+471656233+470915944+472314109+474658209+475521732+474015774
3708+471263730+468610429+467142053+467624446+469703661+471708454+472430782
3698+472640440+474080284+477554827+482089345+485700471+487118430+486890124
3688+486404294+486049890+485646159+485515535+485857965+486072864+485746533
3678+485744356+487072139+488808408+489298420+489052526+489394268+490179732
3668+490000181+488356437+486431049+485435442+485173048+484719244+484167930
3658+484446709+485533181+486145796+485616425+484994012+486092171+489047541
3648+490798764+488990880+485491358+483536351+484152633+485417911+484684353
3638+481712254+478733624+477606475+478245359+479962120+483062838+487829701
3628+492329701+494037095+493101987+491204901+489666688+489040781+488836480
3618+488127673+487182653+486858557+487112529+487690426+489363617+493049852
3608+497840663+501347117+502317345+501582413+500679158+500576607+501389226
3598+502676848+503979594+505195887+506355291+507018265+506533581+505272830
3588+504680381+505464870+506997469+508808560+510716245+512000600+512023861
3578+511260340+510633058+510276878+509610351+508193939+506352655+505456964
3568+507219529+511398068+514995215+515669361+514102044+512177860+510920832
3558+510382237+510325576+510468231+510603209+510911321+512049985+514653129
3548+518474685+521874177+522740536+520595093+516916077+513468976+511311501
3538+510591121+510619251+510667662+510727646+511041831+511514484+511816581
3528+511549661+510326951+508248939+506341254+505924346+507431564+510103686
3518+512571622+513548725+512508316+509996437+507287935+505496896+504862223
3508+504834437+505041144+505955971+507907884+509950719+510777375+510307586
3498+509260187+508160539+507835411+509449764+512684658+515111344+514893179
3488+513010359+511249512+509722299+507904676+506198198+504963514+503626278
3478+501986259+500948485+501195238+502188325+502694092+501966550+500568987
3468+499896445+500578669+501818395+502515458+502468537+502151544+501638844
3458+500536618+499007227+497861058+497365374+496903950+496188726+495918655
3448+496614859+497445009+497060184+495300883+493021035+490608041+487976481
3438+485819408+485439796+487114133+489530851+491014007+490800883+489216150
3428+487337684+486418044+486952629+488094272+488169897+486306613+483659813
3418+482327333+482867991+483678261+483232363+481995617+481380251+481884185
3408+483106380+484764504+486657464+487968460+487836805+486809802+486458263
3398+487144898+487385751+486019927+483929197+482747335+483020271+484346908
3388+486234025+488092152+489115088+488992084+488522811+488833387+489977035
3378+490818128+490384548+488846449+487191419+486680037+488261620+491680476
3368+495356513+497687408+498173869+497115642+495227207+493710306+493678223
3358+495321795+497940349+500514618+502199611+502915237+503335583+503820324
3348+503779132+502617437+500734845+499187065+498630537+498687542+498323972
3338+497006101+495515038+495425320+497369900+499969033+501150207+500332890
3328+498486564+496578708+494978047+493873471+493563010+494409489+496256215
3318+497850746+497756960+496068987+494235896+493241148+492973884+493096946
3308+493530411+494044199+494065512+493214278+491788127+490585927+490418006
3298+491648851+493809592+495746094+496692030+497086595+497791908+498862911
3288+499632733+499746170+499659718+500034803+500958854+502068701+503146006
3278+504208644+504965347+504886916+504224170+503831553+503819293+503520118
3268+502659316+501617074+500687981+499742274+498588428+497504707+497240708
3258+498006349+498802640+498676714+498040323+497634128+497014866+495218499
3248+492436836+490167414+489712235+490798305+491978677+492590835+493462292
3238+495026515+495964316+494856532+492268342+490067956+489300941+489362643
3228+489099276+488360734+488022142+488499608+489113140+489274529+489504955
3218+490665160+492502434+493540838+492638845+490257934+487847461+486552163
3208+486701636+487706181+488246839+487400303+485602159+483824468+482388864
3198+481267960+480718823+480954233+481849467+483112052+484177383+484276210
3188+483114802+481181851+479102007+477193950+475677765+474682071+474123510
3178+473885952+473898842+473922332+473785176+473775380+474047198+474044563
3168+473347471+472400246+471704701+471116864+470362052+469450519+468346259
3158+466928586+465422685+464343461+463947349+463971984+463918990+463554789
3148+463048592+462615757+462294210+462049032+461759052+461175655+460210498
3138+459113083+458177259+457551180+457321700+457353182+457204568+456700949
3128+456272382+456212197+456159661+455782771+455252024+454698791+454050856
3118+453613150+453852084+454427145+454384004+453459552+452390010+451742934
3108+451122269+450012050+448804093+448233615+448208664+447988208+447385790
3098+447006178+447211997+447516357+447219703+446338592+445616693+445707528
3088+446574145+447568664+447945898+447516271+446861575+446662717+446763063
3078+446315389+445034041+443633498+442803004+442465014+442231008+441952315
3068+441594416+441078594+440466609+440051849+440114755+440637795+441263989
3058+441531539+441244367+440644155+440157494+439981524+439921884+439602685
3048+438897917+438147516+437812333+437886525+437812161+437108052+435947502
3038+434915085+434314444+433936207+433526660+433288099+433666823+434642894
3028+435495704+435466084+434528999+433325740+432486193+432161180+432004947
3018+431566267+430813088+430050340+429258747+428054055+426541823+425563747
3008+425725365+426667291+427616378+428256637+428678788+428798326+428346412
2998+427366989+426284184+425443406+424884788+424544850+424406778+424439090
2988+424517093+424426372+424012614+423405871+422944103+422828232+422957309
2978+423087561+423055019+422812104+422317709+421608701+421052289+421125106
2968+421686159+422007534+421878629+421904496+422274712+422217278+421263178
2958+420090340+419500698+419487836+419783717+420385561+421013617+420900495
2948+419719866+418108262+416925484+416524531+416739717+417119157+417332739
2938+417543886+417991732+418281339+417720171+416274512+414656492+413611356
2928+413404191+413723905+413938460+413674205+413150820+412826781+412878916
2918+413181213+413568703+413816316+413555468+412694237+411758442+411255997
2908+410911620+410127932+408946529+407955104+407544497+407706631+408197417
2898+408601120+408536496+407983692+407307798+406957835+407096594+407471565
2888+407754498+407895177+407922534+407709897+407256838+406803979+406403026
2878+405845296+405165621+404702994+404609781+404789503+405277768+406188642
2868+407269213+407884893+407536305+406340693+405019241+404301382+404257697
2858+404363084+404224096+403954941+403772010+403614803+403354271+403060797
2848+402921235+402981620+403053864+402931433+402668180+402544373+402696138
2838+402887004+402771333+402297878+401684202+401081240+400441211+399677060
2828+398839490+398151365+397886393+398118651+398600213+398988533+399130415
2818+399019012+398635533+398053483+397589194+397569715+397918218+398179695
2808+397996793+397396867+396689893+396303750+396532571+397152062+397447971
2798+396919058+395845821+394963507+394704522+394879575+395021142+394919307
2788+394701743+394459659+394107948+393647870+393241159+392993203+392913883
2778+393022536+393262042+393402692+393214863+392678072+391978889+391391511
2768+391093081+391008289+390904764+390657896+390291748+389785264+389110946
2758+388489737+388260199+388397670+388477419+388214853+387791356+387597969
2748+387845067+388335136+388502742+387972511+387143965+386737884+386721069
2738+386309747+385147336+383842584+383213526+383494282+384289256+384942577
2728+385003105+384518936+383834535+383201180+382753391+382633939+382867430
2718+383242372+383473944+383427051+383167378+382841419+382497328+382067557
2708+381605131+381370523+381488944+381697055+381672391+381482155+381436408
2698+381549616+381470984+381030643+380537107+380326189+380301611+380242630
2688+380300523+380735306+381350844+381665516+381503210+381010877+380335299
2678+379672181+379325597+379316803+379180078+378508509+377534701+376894844
2668+376926411+377392103+377827860+377996325+377964815+377856306+377657935
2658+377303158+376871354+376557885+376414714+376330553+376292999+376365186
2648+376432961+376330610+376111701+375882822+375588689+375183066+374738658
2638+374335242+374102496+374211550+374563519+374778390+374725481+374695661
2628+374854243+374938118+374692624+374251740+373876396+373620877+373401423
2618+373119177+372678235+372138121+371815027+371988477+372562134+373150859
2608+373425886+373373951+373301191+373455992+373646056+373481401+372954264
2598+372491866+372473103+372854176+373204197+373126682+372733807+372549645
2588+372878325+373476589+373876911+373846977+373520273+373199070+373065094
2578+373096776+373231583+373451495+373686361+373813576+373819792+373843568
2568+373982614+374113639+373995619+373573955+373102935+372916080+373121984
2558+373531302+373825034+373789342+373446425+373021066+372759560+372693102
2548+372604959+372349526+372108817+372134140+372360326+372526957+372564053
2538+372608769+372717479+372791299+372790984+372820776+372921436+372947447
2528+372782362+372528332+372335261+372190171+371992258+371710729+371437249
2518+371367640+371633443+372088078+372441049+372606248+372685855+372697943
2508+372596681+372462046+372403409+372352878+372171379+371903456+371762749
2498+371907180+372317815+372792875+373004967+372784482+372424893+372418190
2488+372822953+373214710+373277272+373083685+372809375+372523061+372276337
2478+372169775+372276394+372552538+372861767+373126997+373377904+373566536
2468+373513484+373176612+372796341+372628993+372661735+372692873+372635753
2458+372652110+372927652+373366704+373663616+373676077+373514601+373257392
2448+372855723+372392953+372172095+372372357+372786143+373093654+373257020
2438+373416146+373556424+373573411+373544937+373640671+373823545+373886107
2428+373768889+373654593+373719704+373920367+374078433+374102295+374036296
2418+373966744+374003754+374261880+374687354+374987245+374905834+374527683
2408+374195250+374180211+374504996+375035169+375646209+376222903+376581689
2398+376635973+376654679+377104300+378216524+379962533+382448888+386062678
2388+391197179+398085967+406977486+418223991+431980884+447945325+465612434
2378+484612510+504412143+523916382+542076683+558718650+573896310+586881204
2368+596902764+604097688+608799353+611288258+612408875+612134106+607859547
2358+596980508+580724856+562565358+544479994+527531346+513879754+505773784
2348+504184353+508957861+518670392+530082183+539477435+545197567+548123948
2338+550219490+552765801+555578000+557816714+559210209+560088484+560667871
2328+560933874+560840260+560064250+558004228+554548877+550363062+545828401
2318+540435746+533959369+527401983+521824563+516829338+511194111+504591006
2308+497591044+490491110+483267884+476220657+469767741+463868173+458123778
2298+452315933+446659222+441579435+437258699+433439921+429764801+426179943
2288+422878190+419982603+417438585+415163921+413172047+411474048+409955486
2278+408515556+407240080+406239860+405452965+404796865+404321949+404043542
2268+403826523+403573869+403349401+403231124+403160426+402953490+402428444
2258+401592393+400701571+400046388+399711119+399583446+399479147+399212399
2248+398706947+398089719+397565476+397246793+397198754+397500164+398106678
2238+398764725+399190227+399284557+399156855+398995294+398890651+398742439
2228+398409605+397971212+397694266+397701771+397841734+397926496+397901890
2218+397739269+397400305+396960709+396547209+396142991+395663721+395189635
2208+394904439+394827898+394786333+394659061+394537202+394581517+394777482
2198+394929161+394907161+394795414+394742334+394773815+394847091+395016644
2188+395394595+395936341+396432082+396787833+397156846+397698277+398385514
2178+399120389+399817509+400313451+400438948+400281397+400180421+400384177
2168+400843138+401349020+401729090+401887214+401814396+401633127+401515680
2158+401492563+401452745+401383939+401450626+401733874+402076475+402341820
2148+402618938+402989297+403323563+403507124+403621420+403730618+403756570
2138+403717183+403834974+404249018+404792540+405192605+405393353+405574680
2128+405893535+406330409+406810367+407335986+407920328+408471126+408807426
2118+408792903+408501462+408253649+408386965+408966094+409793380+410641806
2108+411375077+411925045+412279363+412492887+412690399+413037154+413593051
2098+414182808+414590063+414889782+415351091+416012519+416610468+416940007
2088+417075702+417222940+417506074+417902185+418282370+418517723+418612082
2078+418718500+418949985+419217908+419364917+419381331+419358100+419355722
2068+419451972+419777443+420390030+421210212+422078261+422774636+423152243
2058+423400887+423918886+424755596+425502474+425871429+426059087+426432025
2048+427147163+428142541+429229041+430148309+430737606+431065398+431333207
2038+431714022+432296588+433073658+433981839+434975212+436005052+436961644
2028+437775294+438560042+439503600+440644699+441867696+443066916+444258804
2018+445560204+447035053+448536371+449819323+450891471+452085249+453613895
2008+455215931+456507992+457557081+458773232+460360372+462203403+464138530
1998+466008288+467644527+469070506+470503762+472022324+473489897+474830055
1988+476060814+477151984+478159938+479326130+480775026+482297312+483615986
1978+484739353+485969511+487615374+489650819+491637737+493158877+494337932
1968+495695391+497523498+499684467+501981905+504359721+506694627+508786216
1958+510690349+512751861+515181125+517823685+520421786+522919227+525428814
1948+528029666+530709751+533438821+536166974+538739810+540947414+542694340
1938+544068012+545385253+547145356+549584073+552310794+554727225+556682289
1928+558431277+560248384+562367187+564951596+567928393+571081819+574169360
1918+576731941+578304873+579086555+579804586+580998422+582877862+585393808
1908+588006061+589963875+591253158+592675814+594679577+596651084+597704842
1898+597830081+597921059+598756480+600175814+601484404+602440767+603335256
1888+604303536+605177628+605861056+606355480+606686165+607018970+607525425
1878+608161472+608889759+609892700+611286997+612923465+614511350+615581608
1868+615621884+614758619+613742501+613001037+612332735+611455090+610487326
1858+609845664+609726383+609737326+609255621+608206503+607104849+606363271
1848+606119955+606562931+607616919+608368122+607863328+606277621+604250999
1838+602069520+599956790+598371197+597683644+597828706+598248593+598064173
1828+596768760+594767920+592866251+591522083+590679901+590155743+589921021
1818+589841558+589415254+588220502+586507722+584911473+583746111+582909143
1808+582296699+581936681+581821124+581926712+582293434+582869669+583435249
1798+583864131+584321201+585043128+585991184+586780543+587089057+587076051
1788+587101260+587325211+587750198+588405896+589366614+590559017+591649212
1778+592358707+592987823+594353074+596969337+600136856+602302924+602910441
1768+602672453+602393330+602690271+604041199+606336001+608698177+610481711
1758+611924248+613305827+614596771+616128396+618467942+621280771+623130191
1748+623415043+623339934+624078705+625511789+626930263+628027620+628869859
1738+629630745+630812893+633053898+636067132+638432975+639629045+640207285
1728+640466414+640754875+641820837+643932650+646392565+648580633+650758676
1718+653282528+655544731+656655207+656694108+656354600+656400548+657379484
1708+659145773+660756976+661515627+662199169+664148046+667154577+669010413
1698+668775977+668251361+668595109+669437863+670656047+672496930+674512208
1688+676123582+678018605+681422623+685469449+687444337+687173005+686464771
1678+686334146+686783425+687565737+688867051+691241315+694666818+697677932
1668+698422031+697447048+697003213+698298167+700611703+702355363+703071217
1658+703556933+704738393+707115408+710035257+711345394+711067130+711745803
1648+714360634+717759667+719869876+720142984+719694050+719798721+721491506
1638+725025747+729023589+731243568+731828225+733037300+735620392+738814151
1628+741900259+744959556+748609468+753211905+758224948+762732396+766898960
1618+771788484+777440611+782206557+785145771+786991867+788562049+790112809
1608+791741886+793526566+795208352+796375260+797238811+798616666+800682532
1598+802412041+802966048+802912079+803296332+804403199+806001053+807826983
1588+809560387+811023148+812210567+812865348+812729855+812213775+812373675
1578+813941107+816379480+818043219+818227582+818253821+819896820+823994979
1568+829453806+834245533+837473953+839302690+840400105+842044765+845467288
1558+849608473+852185434+853706288+855519499+857720859+859406540+859635590
1548+858288444+856072818+853878334+852796732+854270320+858366589+861215053
1538+859695116+856675694+854956498+854576829+854578261+854726416+855704378
1528+857974659+860706307+862239478+862485831+863589948+866968758+870968147
1518+873850872+876321615+879237969+882094168+884484704+887168972+890883451
1508+894569857+895844875+895215186+896036342+898785750+901407570+902623348
1498+903976683+907752234+912611451+915458024+916796864+919253628+922800645
1488+924454873+923303491+921569456+920859732+921300473+922823103+925654151
1478+929894278+934843613+938968184+941224428+942453211+944376136+947083606
1468+949182873+949078259+945983958+941566285+938956840+939079443+940609292
1458+942570716+944400427+944026773+940489324+936233213+934244118+934996581
1448+936144985+935486250+933247135+930633794+928360877+927114162+927565445
1438+929537182+931752692+932733175+932075357+930533133+929033419+927976739
1428+927529810+928391585+931362310+935535806+938075070+937178404+934314758
1418+932478057+932621228+933450576+934045775+934554694+935092888+935001050
1408+933237224+929842487+926672217+925608089+926546864+927953937+929389657
1398+931894144+935327438+937636849+937549709+936049365+934584084+933540810
1388+932558265+931341226+930695153+932219387+936191104+940979107+945261228
1378+949460277+953932033+957400102+958358871+957312103+956451359+957471315
1368+960483346+964294648+967262908+968957011+970898269+974188391+977326807
1358+978280592+977590347+977898230+980623576+984370081+987066781+988712186
1348+991037982+995106006+1000093096+1003738540+1004425004+1002796900+1001307213
1338+1002743505+1007470493+1012840862+1016199505+1017163373+1016497649
1330+1014950670+1013697481+1013455597+1014135301+1016709168+1022374472
1321+1029067238+1033482562+1036945590+1043710428+1054218563+1063990849
1312+1068646108+1067694844+1063479697+1058475419+1055174640+1055130869
1304+1057267719+1059334903+1061366107+1065241059+1070386961+1073617730
1295+1073741823+1072039470+1069134803+1065788878+1063299229+1061169713
1287+1057951777+1053977023+1050468735+1047836431+1046492377+1046939708
1278+1048326958+1048558988+1045690185+1038798848+1029192935+1021174908
1270+1018328449+1019370577+1020776275+1021281126+1021369698+1020506090
1261+1017478934+1013458920+1011733651+1013579805+1016427524+1016844261
1253+1014630412+1012182356+1010138433+1006628770+1000760540+993523736+985507427
1243+977035882+969283915+962884595+956898345+950286933+942606408+933493029
1233+923792987+916129707+912188125+910489497+908040180+903359598+897183485
1223+891163777+886511153+883155718+879872528+875865118+872022994+869726416
1213+869020874+868854672+868404019+867621019+867138856+867883528+870221241
1203+873377818+876365156+879074517+881842087+884779066+887814071+890934440
1193+893913815+896123539+897132324+897582060+899060404+902573218+907443836
1183+912171110+915929646+918701340+920484875+921362520+922233175+924740356
1173+930163146+938550588+948756683+959236115+968632972+975249655+977629878
1163+976836738+977309391+982991768+991781508+997160013+996402049+992562388
1153+989418015+989513806+993665475+1000185450+1006668071+1012136752+1016169370
1143+1017475840+1015168377+1010856980+1007201224+1004784449+1003084961
1134+1002836661+1004797855+1007961708+1010897542+1013343192+1015377948
1125+1015761571+1013505899+1011202446+1012853924+1018726050+1025358660
1117+1030199314+1034803698+1041535995+1048831809+1052947957+1051835819
1108+1046279598+1039691675+1035678880+1035608526+1038560974+1042514645
1100+1046702636+1052100734+1059203591+1065414423+1066514988+1062149164
1091+1056915951+1054014606+1052240296+1050073769+1049618304+1053260653
1083+1059581255+1065189497+1066179147+1060525071+1052009068+1044671432
1074+1038298122+1032808473+1028751105+1026337653+1026020030+1026474579
1065+1026690797+1028526409+1032948149+1038044322+1040650845+1037980843
1057+1029098290+1016291859+1005485809+1002299956+1007786053+1017308206
1048+1024649509+1028049860+1026840441+1018970455+1007684189+1000143742
1040+998714325+999980347+1000357095+998888834+995772647+991771540+988840289
1030+988956361+991740717+994803508+996682433+998052725+999887879+1001631367
1020+1001688773+999881119+999348081+1003748967+1011902660+1017304654+1014025187
1010+1003329480+992566399+988044399+990045010+992496962+989234912+981142635
1000+973843269+970292585+968750877+965904762+960212072+952575146+945063287
990+939635169+936685986+934493392+931164998+926706535+922217134+917879612
980+914074956+912548774+913080036+912254927+908098044+902752998+899080800
970+897535941+896522688+894136449+889646647+884221851+880196051+879018429
960+879873845+880347128+878640536+875284528+872471699+871870427+873269594
950+875233482+876879804+878565656+881124399+885441067+892126557+899955924
940+905559526+907050359+907129593+910047437+916879478+925521980+933854422
930+940668359+944384271+943977560+941018753+939102016+941048773+947248834
920+955851118+963472060+966890171+965456744+960925062+955273450+950370807
910+948386066+949699583+950551447+946330684+938126117+932201512+932830799
900+938251355+943491616+945795527+946146149+946701302+948336910+950582670
890+953472786+957482372+962016060+965998948+968563649+969207030+967940664
880+965652909+963818328+963144125+963024042+962459609+961900904+963758172
870+969362633+975390821+976539396+973204700+971355338+974357286+979401438
860+981969577+981769401+981148478+980698971+979232888+975438029+970252825
850+967228419+970142138+979896320+992337234+1000815768+1002583433+1000919007
840+1000022055+1000394563+1000348959+1001015830+1005202675+1011187207
831+1014066207+1012741862+1010499253+1009589582+1009634613+1011866681
823+1018312178+1026147675+1029111238+1026068728+1021538020+1019263786
814+1019842313+1022523659+1026730213+1031773219+1036976298+1039900330
805+1037739532+1033176168+1033003951+1040746407+1053785785+1065531755
797+1070836468+1070071859+1065503224+1057998756+1048820007+1040518388
788+1033266803+1025380889+1017471715+1012944330+1012498833+1010713408
780+1002675328+991824592+985675864+986737012+991638395+995723491+996390591
770+994974351+995168454+997295220+996993753+993443986+992428212+996909421
760+1003128846+1006251564+1006021482+1005436538+1005866796+1004899261
751+1000510750+995934667+996014073+1001141756+1006957163+1009546041+1010239724
741+1012729029+1018605509+1026242664+1033470072+1038970492+1039145460
733+1031750761+1023165092+1021684456+1026015562+1027845330+1024438333
724+1020969691+1019389941+1014845254+1005222957+995200537+990301217+992165475
714+996442955+998171318+999797359+1007018579+1020163144+1032302705+1036210084
704+1031461899+1021555895+1012265772+1008315997+1011272685+1018665321
696+1026582631+1034916104+1043606043+1046218296+1034744688+1015267147+997959570
686+985358012+978813859+979137669+984591340+991739113+995036913+990544132
676+981410872+974539931+971638586+966898765+955655812+944268313+944158772
666+956809028+973098941+984786703+991649280+997298772+1002737318+1005031947
656+1002161082+997515791+994109711+990088322+984082135+975907817+964955331
646+953567947+948584466+952843040+958135264+953971162+941735638+934305534
636+941084580+955135665+960302879+951919390+935602264+919957222+913133317
626+917407188+930531643+945603257+954922255+957146817+955525876+953286933
616+949579099+942359082+929453594+913302899+903597243+904585173+914515068
606+929959705+942672408+941500515+928148499+918256073
##END=
