##TITLE=<SNM>
##JCAMP-DX=4.24
##DATA TYPE=INFRARED SPECTRUM
##DATE=29/4/2025
##SAMPLING PROCEDURE=Instrument type and / or accessory
##ORIGIN=Admin
##XUNITS=1/CM
##YUNITS=ABSORBANCE
##RESOLUTION=4
##FIRSTX=4497.3318
##LASTX=599.83466
##DELTAX=-1.4281778
##MAXY=2.2020922
##MINY=0.65470439
##XFACTOR=1
##YFACTOR=2.0508582e-09
##NPOINTS=2730
##FIRSTY=0.6677804
##XYDATA=(X++(Y..Y))
4497+325610232+326855564+328397720+329814670+330154914+328851862+326316528
4487+323519217+321287652+320141164+320613210+323035139+326492622+328740434
4477+328276351+326008138+323880183+323034180+323828567+325924348+327815030
4467+327991386+326932437+326242184+326123141+325498804+324081010+322825739
4457+322578410+323290489+324396027+325343548+325970036+326630963+327646812
4447+328430329+327799975+325437219+322411616+320207719+319682052+320921746
4437+323382998+326016944+327790791+328357351+328008650+327279627+326951502
4427+327518120+328195497+327470805+324939220+321788761+319641131+319425307
4417+320811334+322499184+323538254+324224815+325248249+326444871+327020033
4407+326776919+326439872+326421504+326101198+325014581+323877073+323601088
4397+324154133+325005164+325705211+325651357+324599848+323643928+324209761
4387+325998256+327205631+326785522+325424140+324384285+324268817+324723425
4377+324976450+324856040+324881558+325194453+325293617+324982640+324563199
4367+324083481+323441705+323073881+323570049+324644169+325151294+324316336
4357+322660281+321464444+321508562+322661676+324390505+326034353+326815922
4347+326331873+325050241+324031806+324149193+325425274+326845944+327142245
4337+326185133+325086454+324745658+324923322+324890074+324395998+323614545
4327+322673389+321795765+321516496+322138276+323238321+324194851+324893910
4317+325419461+325461312+324651551+323308450+322372439+322547574+323704176
4307+325101102+325974134+326002732+325546438+325202998+324891149+324047587
4297+322875175+322375665+322912754+323730943+324194328+324416110+324556921
4287+324702674+325305475+326653081+328033470+328244992+326931972+324908064
4277+323258374+322484478+322355873+322279582+321792859+320858446+319844893
4267+319234361+319311582+320022673+321029192+321935385+322671645+323528140
4257+324658032+325788565+326542960+326832256+326741055+326342162+325852475
4247+325671672+325862385+325821203+324954856+323574379+322509036+321999092
4237+321699450+321558900+321930677+322842479+323855363+324681225+325277836
4227+325369094+324617867+323273952+321995546+321062673+320339725+319951614
4217+320412005+321922568+323814936+324940091+324694013+323744835+323568014
4207+324990894+327287183+328938093+329095035+328009434+326499597+325328377
4197+324780679+324612955+324351328+323553483+322150453+320942119+321240657
4187+323408980+326089457+327498211+327252016+326307344+325537923+325090872
4177+324860836+324990720+325696376+326667060+327050695+326431909+325310852
4167+324316074+323681390+323569090+324031922+324653440+325061343+325602676
4157+326658864+327604612+327270733+325344652+322880842+321424685+321657163
4147+322840881+323650147+323548310+323138343+323188187+323709291+324132133
4137+324084585+323738064+323624426+324318050+326069112+328497784+330575547
4127+331058753+329492766+326900467+324916783+324427939+325292106+326659416
4117+327335254+326691473+325303121+324026749+323062691+322514151+322770547
4107+323657994+324226152+324033579+323700717+323766226+323891053+323613295
4097+323375935+324089322+325664726+326777152+326504451+325520863+325162542
4087+325941001+327261607+328046897+327573369+326220125+325248540+325418793
4077+326163771+326463007+326009387+325092441+323962461+322940044+322582711
4067+323120934+324080487+324814335+325200644+325590992+326151594+326622622
4057+326921247+327505041+328608457+329539761+329468585+328620228+327976680
4047+328050007+328541844+329043941+329432982+329431791+328539403+326770177
4037+324856825+323540695+323134536+323688046+325054746+326761545+328113365
4027+328618194+328428236+328172305+328104210+327850371+327277156+326898578
4017+327086588+327574503+328036492+328396848+328325120+327284219+325479128
4007+324099814+324047471+324924107+325761390+326120583+325938444+325060384
3997+323712546+322785021+322913335+323706937+324306716+324391697+324414860
3987+324992667+326190510+327312003+327352517+325969571+324136783+323454522
3977+324585665+326609282+328108773+328633772+328649146+328360751+327243036
3967+325126620+323257183+323238757+325041261+326941970+327586360+327159188
3957+326316383+325349506+324747954+325411411+327584820+330196155+331803412
3947+331916933+331099034+330155176+329548276+329281592+329138019+329042285
3937+329209835+330027007+331656788+333546510+334543788+333984872+332491252
3927+331287103+331012571+331298321+331484995+331648214+332295569+333150117
3917+333166944+332055943+330651751+329550049+328601657+327717784+327443776
3907+328674664+331914375+336465713+340411168+342229918+341855234+339670868
3897+336316705+333344259+332383398+333727720+335829198+336641836+336311619
3887+336622189+338040099+339447168+340393701+341191982+340577642+337247108
3878+333434472+332523367+335095757+339354020+343721503+346870044+347014866
3868+344734475+342941678+342638548+341906066+339256571+335770781+333257709
3858+333098268+336771284+345080909+353857464+354714569+348074338+340639692
3848+336209694+335533741+337663817+340885073+343905212+346513815+348639416
3838+349484604+348760522+347404459+345874220+343662418+340846361+338598637
3828+337621181+337539775+338528158+341874038+347137135+350157158+348728785
3818+346282995+345254678+343755711+339990564+335790718+334038523+335916853
3808+339941098+343239024+345493404+348834692+352877828+353954158+351263102
3798+347777631+344735288+341487875+338454251+337062294+337841771+340159276
3788+343294389+346788696+349814850+351662838+353030440+355266219+358362358
3778+361078205+362959499+364863376+368209023+373951489+380954139+386158150
3768+388192288+388369865+387868030+387546677+388878879+392453400+396677020
3758+399531352+401094666+403172225+407775004+415546609+423536655+427709065
3748+429393398+432752589+438654380+442942404+442838967+441440094+442823186
3738+448888981+458110088+465620502+467812803+466249315+464463116+463993453
3728+464808097+466851884+469933695+472977317+474349074+473023470+469426919
3718+465188128+462294560+462523143+466712584+473185149+477497295+476832327
3708+472963628+469419333+468805256+471621138+475707782+477970271+477702831
3698+476228974+474525837+473582792+475173512+480871657+489902167+497278716
3688+497104453+490250694+482710752+478945140+479887110+483906386+489530681
3678+497122297+505761064+510236749+508581422+506061927+505237460+502215984
3668+494331817+485069730+478601002+476159687+476484673+477941934+480025741
3658+482184706+482729236+481522674+481968941+487554233+498009599+507065365
3648+506923478+498651781+489142512+482653003+479575929+478337253+477904297
3638+478680839+480802080+483058930+484622098+486831952+491528315+497193270
3628+498803317+495155412+490485990+488810260+491507274+496842244+500821645
3618+501065660+498983800+496472152+494333502+493816002+496232031+500476373
3608+503095613+502384435+500281766+499034661+498948633+499621506+501196794
3598+503652640+506298792+508474411+509648683+509753892+510347248+513299611
3588+517129162+517502916+513454751+508288871+504756405+503478028+503988960
3578+505330986+506490087+507285316+508632282+511724266+516944785+523098293
3568+527339321+527092749+522875377+517665379+514115475+512944574+512893597
3558+512581400+512498744+514389135+518643707+522935771+524433924+523098932
3548+521044159+519510490+517995712+515899669+513821936+512697188+512402544
3538+511824592+510213382+508003237+506241538+505684744+506335238+507511196
3528+508642106+509882352+511271634+511750597+510170892+506923013+503657174
3518+501809447+501724059+502727440+504080626+505538846+506715385+506839602
3508+505656552+503898980+502690587+502849505+504281569+505973749+506976025
3498+506950217+505768969+503663975+501668432+500892617+501569210+502930418
3488+503586724+502756270+501390994+500956382+501271602+501056476+500083787
3478+499042043+498154276+497372125+496935769+496852241+496538939+495483826
3468+493884010+492368651+491358760+490886715+490895782+491323942+491852138
3458+492051164+491851906+491493381+490950712+489962968+488722838+487888315
3448+487718818+487623258+486947421+485826480+484828796+484227041+484057427
3438+484473817+485363792+485951975+485418693+483909495+482615308+482437877
3428+482940497+483274608+483491827+484130231+484958418+485063714+483915511
3418+481802931+479589880+478160054+477823705+478327575+479309564+480434109
3408+481362681+481834087+481631662+480668941+479370917+478499426+478326267
3398+478430865+478428628+478309178+477993085+477344044+476853660+477456955
3388+479176716+480809316+481452341+481340070+480882788+480143012+479398353
3378+478993792+478905091+479317818+480854481+483562015+486498539+488783057
3368+490406241+491684676+492550238+492764202+492394575+491741117+491071499
3358+490839574+491626840+493250489+494534969+494467368+493247873+491921774
3348+491249831+491208329+491442230+491777271+492081564+492095630+491872657
3338+492072031+493164868+494560254+495252657+495132045+494881984+494711732
3328+494175456+493287748+492617956+492221067+491570399+490563182+489753421
3318+489690470+490584922+492128239+493205150+492607493+490592536+488888382
3308+488687613+489355894+489574450+489209299+489108914+489335201+488940580
3298+487600414+486460785+486960092+489265565+492036283+493604770+493481542
3288+492569594+491938398+491891141+492250131+492899404+493753283+494667497
3278+495789688+497572139+499893538+501565606+501413606+499601336+497365150
3268+495834039+495409599+495712031+495889957+495412680+494516891+493728579
3258+493419288+493708235+494185221+494029152+493034723+492097607+492031924
3248+492404922+492207698+491249366+490304868+490323643+491747162+493904877
3238+495005852+493767117+491114745+488921514+487717249+487096021+487377005
3228+489090546+491272617+491969089+490460124+487907788+485968076+485523175
3218+486322125+487197917+486948583+485502250+483997586+483507172+483948673
3208+484341405+483843464+482336562+480209828+478128578+476888507+476785216
3198+477106103+476833054+475906023+475182377+475168833+475539215+475914974
3188+476262949+476406376+475958656+474909182+473615052+472285669+471067017
3178+470284547+469999262+469623735+468406362+466303053+464272635+463430789
3168+463748653+464032108+463452499+462328448+461168998+460100922+459383786
3158+459281222+459400062+459107220+458355702+457467703+456663842+456185780
3148+456163721+456101264+455322805+454122724+453600428+454239210+455250292
3138+455368260+454041725+451860061+449982516+449209694+449515731+450349934
3128+451224157+451908568+452219196+452019357+451605961+451622876+452127530
3118+452186151+451041698+449277063+448089422+447787425+447648328+447006437
3108+445921331+444797919+443835547+442989806+442179522+441421581+440884230
3098+440725951+440802272+440785328+440661809+440686222+440793204+440643005
3088+440312730+440328802+440900535+441607557+441916848+441669926+440956103
3078+439819294+438470990+437540007+437482752+437879378+437938203+437580143
3068+437283029+437032446+436341525+435225088+434295732+433919857+433956825
3058+434192470+434454766+434532656+434409718+434246848+433956011+433330134
3048+432533016+431895019+431455030+431029020+430355479+429193936+427750451
3038+426705452+426469981+426942318+427932852+429089716+429715157+429421822
3028+428593373+427727346+426858819+425875667+424933726+424363882+424375740
3018+424893008+425581052+426040223+426016071+425503046+424747518+424095948
3008+423717951+423427609+422843379+421834215+420810840+420383987+420615622
2998+420830980+420449554+419734685+419256187+419040421+418817913+418616010
2988+418453140+418016145+417285203+416801939+416815715+416922290+416806328
2978+416568968+416264647+415812102+415260888+414637336+413812259+412865871
2968+412237407+412257025+412727501+413067018+412774002+411810439+410656133
2958+409924291+409831782+410141074+410601349+411122598+411463511+411286602
2948+410735650+410388373+410395755+410241691+409601601+408831686+408322614
2938+407972925+407583942+407298366+407386195+407842692+408337146+408472144
2928+408134487+407623846+407329144+407280231+407106054+406388918+405067121
2918+403614858+402656671+402294107+402136846+401992546+402041663+402332122
2908+402620923+402763857+402861887+403022229+403253369+403518165+403686586
2898+403557778+403117004+402667628+402518272+402621040+402684281+402554078
2888+402291578+401925556+401383729+400731869+400277988+400266769+400488115
2878+400350762+399502929+398299099+397499539+397539240+398167646+398750975
2868+398869495+398601066+398252452+398007391+397891603+397877158+397814324
2858+397405868+396503686+395371120+394511428+394279154+394608267+394975801
2848+394857572+394375964+394103002+394152962+394059000+393654236+393430158
2838+393797373+394464317+394780089+394450977+393713990+392939105+392363333
2828+392152275+392306805+392482056+392304509+391823221+391319380+390952776
2818+390842626+391051824+391329145+391300024+390900055+390270748+389483134
2808+388656429+388019769+387679496+387578850+387656187+387822458+387862159
2798+387549380+386912458+386296114+386038875+386126210+386278152+386332355
2788+386393475+386581195+386786178+386771879+386471685+386008678+385371843
2778+384371893+383056925+381851700+381161535+381127414+381707139+382640739
2768+383422512+383595903+383090464+382220426+381399214+380834863+380434924
2758+380051666+379766352+379736853+379837557+379712963+379241441+378732630
2748+378528780+378598706+378700777+378751957+378771342+378608733+378062111
2738+377240289+376528355+376148091+375964179+375805784+375749779+375889690
2728+376031054+375867602+375350043+374738145+374381829+374428941+374638255
2718+374611487+374304289+374059605+374072218+374163651+374089976+373743251
2708+373136410+372462055+371994718+371761630+371585361+371475996+371572981
2698+371716204+371543307+371019703+370499936+370285303+370345813+370428789
2688+370369674+370298498+370389175+370425185+369986417+369127103+368425835
2678+368326497+368756372+369282359+369426774+369015878+368388285+368084807
2668+368285750+368719432+369051567+369153957+369045464+368754599+368258663
2658+367528420+366691514+366106296+366065084+366407420+366674018+366672041
2648+366617315+366706249+366873450+366992696+366993336+366781116+366313023
2638+365707315+365120760+364642873+364360291+364312307+364374648+364384529
2628+364353286+364404496+364548417+364645663+364564257+364318585+364106801
2618+364187480+364598028+365020259+365097945+364852913+364557601+364294549
2608+363964652+363635860+363538323+363738744+364065996+364316870+364405978
2598+364380984+364331721+364249065+364042803+363712499+363388996+363239872
2588+363420995+363982090+364706986+365215419+365323506+365142790+364820507
2578+364430275+364111364+364020861+364102645+364179604+364286790+364577713
2568+364921764+364976955+364643687+364115520+363566020+363073979+362741961
2558+362649627+362747483+362893090+362956273+362871292+362638001+362331878
2548+362100185+362047174+362106318+362129714+362113642+362216555+362527997
2538+362893060+363042591+362938777+362835370+362841764+362680492+362174384
2528+361678448+361668654+362162730+362798401+363228974+363315524+363165848
2518+363026664+363005157+362985482+362884196+362796512+362819036+362913230
2508+363023555+363193807+363433289+363542973+363265884+362637187+362026132
2498+361790051+361985734+362392068+362722139+362877279+363024310+363331044
2488+363691719+363864413+363786553+363580058+363332642+363028059+362650324
2478+362291625+362171042+362468969+363043637+363422274+363247632+362683369
2468+362232627+362238003+362685897+363349150+363941169+364248019+364270194
2458+364144641+363895860+363456946+362925669+362554880+362474404+362599667
2448+362782300+362905732+362896141+362758439+362572434+362436564+362445777
2438+362650760+362974205+363264373+363465403+363612231+363696108+363696660
2428+363677449+363675792+363617957+363517950+363552768+363776671+363992408
2418+364046059+364040362+364136881+364326316+364502991+364644268+364815741
2408+365054670+365319001+365512591+365521543+365313944+365072980+365118493
2398+365612075+366435728+367421467+368602772+370187767+372404655+375524016
2388+380052800+386753163+396322302+409063960+424895333+443518757+464434459
2378+486930128+510329810+534192499+557905918+580130543+599444830+615611100
2368+629499623+641790247+651987096+658910722+661728174+659835806+652343876
2358+639101546+621514024+601022035+578016655+554172858+533958714+521909082
2348+520481610+529950656+547177038+564595121+575051097+577851634+576814075
2338+575689443+576374755+578969989+582691657+586611362+589627199+590670396
2328+589608134+587259589+584093204+579544104+572955112+564742530+556071910
2318+547729705+539843910+532357967+525155914+517920729+510295632+502141699
2308+493499793+484513982+475614024+467441258+460311224+453928872+447782949
2298+441692654+435876774+430607109+425919639+421629436+417537937+413623231
2288+410080128+407140320+404818426+402949571+401469844+400428303+399713724
2278+399033644+398181829+397148542+396060123+395145908+394584900+394271482
2268+393920717+393470091+393162108+393112061+392999092+392433288+391516197
2258+390727710+390322277+390149409+390003947+389799662+389410940+388733098
2248+387963415+387501396+387480006+387632733+387686384+387648282+387595852
2238+387461376+387235903+387130462+387289205+387531361+387583006+387412753
2228+387168215+386911877+386587008+386175123+385734902+385307846+384923601
2218+384652992+384513808+384392266+384169118+383818702+383361421+382915445
2208+382744524+382972583+383319860+383410741+383271150+383267895+383608488
2198+384087305+384337889+384251193+384085242+384184434+384678597+385431539
2188+386163353+386635718+386808732+386814399+386810010+386930361+387260985
2178+387743232+388243324+388740887+389260509+389689396+389903941+389970205
2168+390031296+390153275+390390663+390796910+391280145+391603677+391615273
2158+391432727+391329727+391393346+391408430+391214665+391008258+391069756
2148+391366579+391656543+391839642+392004169+392214616+392421837+392586393
2138+392786785+393127639+393566639+393944084+394207833+394511806+395033288
2128+395750221+396485580+397138341+397750530+398342025+398830579+399171026
2118+399460409+399860872+400478205+401301887+402203342+402994270+403516944
2108+403700915+403587684+403336141+403161442+403196580+403411037+403730530
2098+404199698+404880535+405628332+406175826+406433007+406523016+406568529
2088+406593407+406562571+406444778+406318265+406367208+406656300+407023369
2078+407318304+407599229+407971123+408374870+408654429+408775129+408925125
2068+409355377+410055918+410685051+410942261+410904304+410888494+411132509
2058+411662303+412313727+412859245+413218206+413528282+413985825+414674275
2048+415515802+416329748+417010381+417641548+418336218+419053355+419713527
2038+420376111+421139080+421945295+422637960+423236867+424027214+425211629
2028+426572662+427730833+428672338+429748871+431224645+433041681+434938989
2018+436653403+438067389+439226229+440223244+441134232+442025981+442959028
2008+444042652+445446204+447234148+449303278+451564372+453914660+455950048
1998+457166840+457727558+458614743+460626444+463366413+465542671+466358564
1988+466250362+466209441+466859789+468158830+469621265+470854797+472024943
1978+473632723+475773436+477920398+479589473+480980441+482756468+485266285
1968+488112044+490540048+492276462+493780486+495606183+497836556+500249738
1958+502707909+505098712+507155287+508780273+510448097+512857966+516166063
1948+519876280+523501575+526911045+529846319+531724213+532504795+533115530
1938+534398732+536340216+538618079+541191980+544054248+546955401+549657530
1928+552265261+555242909+558886281+562621434+565490037+567645311+570090636
1918+572662794+573938323+573662454+573455465+574748316+577348432+579924601
1908+581433856+581969027+582280934+582945030+584202307+586068344+588288022
1898+590515082+592509694+593983202+594845335+595719849+597215328+598725456
1888+599129028+598485451+597756080+597524678+597831993+598429534+598892918
1878+599058056+599187039+599469766+600037139+601524772+604590133+608380914
1868+610307169+608818723+605468425+602816983+601869927+601859232+601572726
1858+600574170+599277774+598174242+597237881+596211192+595290526+595176133
1848+596414868+598716679+600549932+599845554+596469274+592633620+590041234
1838+588620738+587470588+586254697+585820841+587172573+589682419+591060309
1828+590193061+588338766+586349560+583560300+579920183+576857903+575474258
1818+575205714+574622298+573253941+571982655+571577978+571660053+571408365
1808+570726599+570219212+570546000+572087225+574583818+576832501+577494911
1798+576720666+576186425+577367963+580171987+582589005+582299128+579713776
1788+577392841+576903009+577859365+579218770+580610203+581920608+582805236
1778+583617496+585688835+590011648+596022223+601246288+602996827+601264656
1768+598047642+595401955+595115333+597920636+602296634+605341419+606087240
1758+605801142+605359787+605437328+607618293+612962273+619898339+624686164
1748+625433962+623873962+622506361+622581809+624112455+626218263+627779717
1738+629137378+632388221+638478488+643949823+644097697+640476413+636844725
1728+634406607+633359806+633764193+635114647+637268991+641470551+648872792
1718+657602294+662287642+660418873+655533628+651368804+649450686+650368504
1708+654088370+659017559+662518811+664382929+667547106+673758798+680105693
1698+682794627+681806127+677608635+671515056+667026815+666186479+668309668
1688+672441941+679478508+689588573+696876072+694965104+687945452+682396112
1678+681096867+684029932+688579206+691559179+693442421+696379497+698986414
1668+697980418+694794793+693671265+695843396+698850282+699942073+699673877
1658+700754449+705600343+715499990+727633092+732045826+727321475+723431647
1648+723858761+724965258+722426407+717677875+714268289+713500553+715944716
1638+722287717+731137483+736990302+736392645+733764686+733784391+736951474
1628+741378682+745675163+750219438+755003717+758331869+759848448+762230125
1618+767965122+775785467+781289585+783511007+785355711+788060048+790301582
1608+791079315+791246778+791780728+792457612+792736328+792741967+792989528
1598+793670829+794508374+795251987+796232814+798090248+800731227+803109940
1588+804505325+805527771+807261802+809750374+811988129+813417984+814894282
1578+817796773+821894229+824376813+823850477+823068908+825149664+830402327
1568+836192428+840383468+843208301+845991284+851371186+863151343+880803792
1558+890753428+884853875+874687369+868089309+865528486+865506398+866260357
1548+866934683+868544091+872367306+878004418+883909319+888073562+887368545
1538+882132332+877391125+875516951+874464511+870923384+865245468+860805356
1528+859613238+861788799+866982347+874777174+883382925+888924012+889269167
1518+886774957+884354335+883404373+884561731+887949636+893557394+901830138
1508+912150040+918389459+913629477+903887876+897994949+898185081+903092065
1498+909793939+914773349+916308820+916118165+916695419+918439099+920013573
1488+920444523+920049670+919727707+920439001+922575849+925509612+928451396
1478+931076856+933758756+937670440+942563416+944693579+941703782+937199208
1468+934858859+934463773+934232197+933686272+933642794+934927623+937978278
1458+941464068+941231795+935679838+928980696+924616904+923467685+924936019
1448+926844720+926665865+924140325+921081358+919096452+918846160+920451150
1438+923422346+925668588+924286455+919632612+915370657+914713072+918095920
1428+922821085+925894758+926836524+927467779+929675018+933275492+936080795
1418+935746626+932475787+928463428+925235196+922877293+920656394+918737289
1408+918828663+921879551+926140924+929010341+930202574+930993967+931654285
1398+931546169+930706066+930072313+930419386+931361327+931966482+931959158
1388+931632313+931098944+930183916+929227618+929589921+932496422+937083710
1378+940771491+942676762+944632139+947591478+950197697+951651907+952677841
1368+953915355+956028313+960068630+965487361+969147066+969157006+968289583
1358+969960198+974045099+978847339+983594766+987269410+988148632+986402976
1348+984900870+985835661+988015755+989249316+990379180+994371776+1001666191
1338+1008777276+1012561198+1013415658+1012603746+1010412841+1007850390
1330+1007180889+1010695685+1019446170+1031657394+1042335704+1046888059
1321+1045399671+1041623422+1039091546+1039387061+1041720144+1043822349
1312+1044120073+1043160287+1043018459+1045446986+1050456447+1055843964
1304+1059605448+1062541769+1066144568+1069699936+1071956524+1073184041
1295+1073741823+1073174740+1071578586+1069659712+1066360566+1059487451
1287+1049763579+1040229664+1032757148+1028238740+1028100166+1032884329
1278+1039731287+1043556362+1041429977+1034742751+1026850329+1020106604
1270+1015904985+1015164685+1016977420+1018090776+1015652948+1009896793
1261+1003334772+998691624+997321930+997809379+996647197+991958594+985390528
1251+979487080+975140145+971695682+968468671+965176209+960774286+953815958
1241+944998278+937326854+932217298+927516489+920792352+912390917+904372767
1231+898159273+893560475+888976267+882615131+874632788+867482061+863315783
1221+861930220+861594133+860820527+858717915+855087971+851291262+849506544
1211+850370770+852401014+854133940+855657495+857518358+859321153+860168289
1201+860181484+861077737+864414665+869536892+874311174+877407749+879152359
1191+880685795+882972958+886376209+890413446+893768859+895146051+894830249
1181+894653545+896026494+899091215+903660717+909665363+916577655+923536448
1171+930407703+937682239+945195269+952455565+959610302+966730222+972829150
1161+976596912+977390572+976005416+974764008+975852079+979813170+984389472
1151+986285560+985742309+985906110+987819403+989863946+991075652+991985914
1141+993102757+994692983+996878541+999178492+1001063884+1002412188+1002707354
1131+1001760705+1001780701+1005252018+1011267766+1017143197+1021674626
1123+1025044221+1026705361+1023963881+1017018108+1011584672+1011584091
1114+1014542615+1016390225+1016208987+1015168057+1014548660+1014961940
1105+1016539727+1019203085+1022195672+1023550950+1022859942+1022087673
1097+1023087100+1024986443+1025656642+1026992971+1032515342+1040049006
1088+1043017877+1039811966+1035401789+1033102536+1030348384+1023966323
1080+1016429403+1012665942+1013791620+1016789206+1018299217+1016413011
1071+1011474929+1006731803+1006006500+1008849469+1009490373+1004035894
1063+995504197+988294878+982621263+977709919+976555642+983024196+995599873
1053+1006521734+1009597442+1006868517+1003561000+1002457526+1003612501
1044+1005253762+1005144949+1002323486+997780665+993591020+991436734+992150528
1034+994753667+996183464+994315742+991089719+990818965+994983034+999201161
1024+997484103+989954972+981710188+976041687+972727196+970618190+969903467
1014+971447598+974159143+975586789+975604343+975961240+976815817+976834766
1004+975131426+971140632+965465621+959533169+953982433+948826027+943219257
994+935883572+927323276+919914177+914930116+910954029+906079944+900682662
984+896521150+894084428+892208219+889656580+886284311+883030562+881008746
974+880429341+880301695+879487226+877774760+875632855+873434974+871144788
964+868396973+864856136+860751530+856777186+853451767+850918147+849467367
954+849953072+852956820+857718255+862546478+866166425+868435045+870170762
944+872898524+877857183+884378225+889943900+892626730+893444454+895878910
934+902477086+911771346+919205323+921999815+922224416+923825860+928498885
924+935491683+943416190+950290235+953262942+951509439+947565379+943640152
914+939967543+936761166+934414423+932209568+929734656+928592411+930525293
904+934830319+938569425+939220210+937303080+935697509+936233494+938110167
894+939825481+940849729+940747484+938856454+935918971+934871996+938477469
884+945994625+953241377+956565867+956015350+954239120+954320148+957959044
874+962441995+961712739+955445361+951448406+955434027+964700095+972397386
864+974743896+972031712+967317184+964174515+964016062+966903265+973046659
854+982045229+991391512+998222426+1001097249+998660584+991697257+984367035
844+979705054+977113425+976123181+978129244+982956769+988410899+993403387
834+998095711+1001134799+1000252089+996091740+992355482+991360240+992441510
824+993783768+994561268+995239837+995824358+996821926+1001240473+1010813798
814+1020679499+1023125580+1018594268+1014334522+1012958551+1010933190
805+1007254942+1006396994+1010643952+1014684677+1013125025+1009257053
797+1009127082+1012865548+1015624234+1015521350+1015161547+1015061918
788+1013244766+1010026532+1008045928+1008591388+1010044667+1010978296
780+1010759507+1007495818+1000256390+991757360+985409361+981399676+977591108
770+972465743+966078798+959993473+956117827+955366309+957486824+961216978
760+964661673+965750906+964050589+962463037+965081986+972901866+981984661
750+987057597+987451113+985815084+983588954+980001965+973247486+964644061
740+958532113+958742066+966800672+980064276+991502068+995611150+993645659
730+990679810+989145967+988751055+989942068+994007439+1000873694+1007477916
720+1010555832+1011202897+1011856355+1011248468+1007454200+1002215022+999196860
710+999178376+999051660+994225297+983276349+972431797+969607777+975693044
700+983744035+985176971+977588435+967615141+964210553+968388573+972923257
690+973983136+973765510+975091725+977164808+974790107+966995686+959344548
680+957328313+962046037+970214560+979158781+985306360+982873300+974795047
670+965996956+959787240+956838480+954036955+949388169+944510422+942924033
660+945224391+949287494+955019236+965147611+979666807+990640052+989344062
650+977185618+962275579+950740367+946220389+949735417+959405174+972239107
640+979834444+971783337+950117483+928811722+917504308+914545086+913170800
630+911086034+907877507+900369999+889352172+879692238+877254818+879964910
620+878079285+870372519+866169912+871010167+881845303+889913790+887652726
610+878144154+872807731+879937765+897898633+917136600+925320526+916195182
600+897994135
##END=
