##TITLE=<SNM>
##JCAMP-DX=4.24
##DATA TYPE=INFRARED SPECTRUM
##DATE=29/4/2025
##SAMPLING PROCEDURE=Instrument type and / or accessory
##ORIGIN=Admin
##XUNITS=1/CM
##YUNITS=ABSORBANCE
##RESOLUTION=4
##FIRSTX=4497.3318
##LASTX=599.83466
##DELTAX=-1.4281778
##MAXY=2.0643778
##MINY=0.4087728
##XFACTOR=1
##YFACTOR=1.9226016e-09
##NPOINTS=2730
##FIRSTY=0.41909611
##XYDATA=(X++(Y..Y))
4497+217983853+219411437+220791665+221088525+220340290+219275803+218559608
4487+218316614+218299857+218549904+219485253+221087734+222446680+222520914
4477+221238250+219623925+218815654+219055843+219748088+220319146+220644746
4467+220739566+220592306+220379725+220409053+220741131+221140748+221406839
4457+221577629+221855439+222396255+223046337+223323883+222871269+221871777
4447+220802205+219923250+219261759+218932935+219134092+219813177+220638638
4437+221318963+221704660+221585612+220705029+219181401+217749369+217235556
4427+217689690+218236675+217988085+216976208+215991799+215713710+216137106
4417+216732826+217046211+217156067+217505150+218255757+218984166+219167900
4407+218905049+218878015+219432053+220011249+219951710+219480153+219239065
4397+219158212+218603600+217442417+216202148+215279588+214690580+214605045
4387+215402605+216852680+217794430+217320610+216023948+215353141+215895274
4377+216920652+217470784+217302102+216780786+216314205+215942645+215300375
4367+214181789+213064908+212614402+212927693+213771415+215073424+216477803
4357+217008419+216127650+214650572+213815484+213989530+214708360+215349343
4347+215515142+215312466+215375230+216158218+217275611+217990766+218056181
4337+217499027+216195049+214435944+213247960+213343989+214298698+215247424
4327+215750029+215667161+215018814+214290855+214241251+215183807+216671985
4317+217822735+218003958+217409462+216757318+216384781+216157180+216170573
4307+216705203+217430667+217540058+216923690+216453373+216728532+217220752
4297+217127498+216484221+215916076+215823675+216214487+216817694+217150176
4287+217000033+216857176+217339893+218383268+219409003+219998880+220038128
4277+219467519+218284976+216830808+215878440+216060779+217050985+217749989
4267+217573851+217054705+216944462+217342622+217884429+218266747+218368728
4257+218134740+217546042+216746591+216171007+216348400+217382940+218648150
4247+219244087+218882231+218166998+217937613+218405946+219021865+219160320
4237+218808942+218459115+218378432+218283969+217904906+217521380+217533904
4227+217821077+217936699+217704710+217350481+217218675+217460011+217907479
4217+218344438+218841153+219489112+219988354+219987269+219546125+218849167
4207+218017800+217526247+217980939+219153577+220065394+220263870+220205338
4197+220299739+220350009+220050064+219512627+219181370+219487376+220510739
4187+221805076+222740440+223078502+222923879+222284647+221285745+220572666
4177+220721553+221523143+222576361+224023104+225792331+226846727+226340401
4167+224960669+224077962+224099183+224424504+224616282+224809053+224996895
4157+224726138+223834937+222945829+222792632+223378881+224113863+224483671
4147+224379737+224002922+223616279+223451271+223626045+223939399+224018934
4137+223814398+223578100+223389019+223170966+223028620+223127950+223434297
4127+223743868+223706449+222993525+221866724+221228856+221631309+222587227
4117+223238271+223344221+223275195+223314195+223448527+223643484+223717269
4107+223208137+222075244+221236544+221654390+223175879+224827128+225873122
4097+226173904+225905163+225342785+224828848+224705770+225078957+225667780
4087+226181453+226701854+227234718+227242189+226330077+225111463+224682456
4077+225444379+226893897+228283394+229093664+229093106+228460354+227823478
4067+227700896+227938078+228067589+228017520+227985402+227856713+227317416
4057+226395926+225439868+224742755+224503729+224837637+225488588+225980668
4047+226368504+227148052+228082237+228036184+226561616+224732912+223894771
4037+224324630+225330353+226120612+226408234+226368861+226161783+225748943
4027+225276952+225203477+225766661+226588991+227016138+226782692+226279621
4017+226077860+226163829+225940970+225140078+224374032+224478525+225480992
4007+226544333+226981539+226998684+227198135+227655153+227824982+227268681
3997+226241427+225496493+225483550+225866906+226052686+225982156+226016646
3987+226283047+226558811+226599175+226369217+226223833+226789838+228214523
3977+229715024+230355759+229960049+228948172+227840607+227164405+227257411
3967+227987169+229006130+230095016+230985768+231255486+230732915+229789956
3957+229072490+228983235+229359740+229701150+229801085+229965117+230479845
3947+231089966+231227165+230741316+230194610+230222419+230678553+230843081
3937+230447866+230009714+230159221+230946891+231823614+232235694+232188431
3927+232076746+232105609+232092278+231805447+231342571+231131757+231578605
3917+232572315+233392738+233477761+233114138+232889590+232810147+232586545
3907+232560658+233438048+235030779+236189435+236447264+236505750+236694785
3897+236452597+235513730+234573235+234578878+235537524+236225925+235913811
3887+235520814+236110086+237312641+238258499+239063111+239880713+239919605
3878+238710354+237016989+235737627+235217458+235732341+237319694+238897250
3868+239277676+238920315+238910503+239203395+239004083+238064751+236709650
3858+235523232+235675251+238706494+243988985+247111266+245936814+242755815
3848+239967426+238659138+238900412+240025385+241287355+242666746+244569002
3838+246641305+247772912+247608756+246773188+245797429+244825328+244066614
3828+243809374+243913619+244095508+244804479+246564126+248233185+248373639
3818+247986051+248534835+249031907+247782306+245506102+244222957+245143734
3808+247736469+249880232+250338334+250411762+251617340+253172296+253677165
3798+253616773+253646550+253279145+252380503+252020228+252929782+254583712
3788+256344971+258356851+260717892+263011580+265296805+268269626+271935342
3778+275360638+278082310+280553021+283491646+287635693+293396251+300141187
3768+306497326+311576211+315445952+319001642+323387103+328932569+334753240
3758+339785156+344121199+349006445+356171459+366824145+379465893+389955105
3748+396791280+402415894+408904319+414637223+417086294+417584714+419251727
3738+423907619+430987036+437977509+442747271+445020096+445489746+445105258
3728+445046881+445846890+446434193+445514982+443661864+442433561+442219926
3718+442072635+441257652+440444530+441311286+444529240+448107934+449679739
3708+449540230+449308861+449907728+451497019+453867034+456475611+458712287
3698+460506842+462774210+466710823+472033291+476688904+479029437+479675334
3688+480199114+480601862+479902486+478017498+475986645+475123206+476049641
3678+478274784+480304707+480715609+479910175+478994404+477926135+476101073
3668+473725787+471610298+470347243+470015366+470047081+469944030+470161199
3658+471477020+473468160+474964413+476118652+478257392+481836892+484934774
3648+485286059+483843346+482837670+482694161+482404633+481363490+480305947
3638+480372044+481778856+483742837+485381421+486572056+488055784+490643466
3628+493961246+496567746+497731812+498035601+498821504+501225064+504834171
3618+507924210+509745520+511110293+512861229+515082961+517283582+518756460
3608+519046174+518391007+517639641+517947987+520269113+524194720+527738320
3598+529719662+531138441+532932904+534404324+535007191+535886782+538279522
3588+541506466+543702281+544292499+544103820+543911483+543576537+542172763
3578+539838864+538579002+539798190+542114603+542989109+542030773+541188013
3568+541879421+543283815+543961831+544151501+545250525+547493835+549196469
3558+548669806+546503505+545070093+546148283+549363447+552880260+555492371
3548+557334515+558844750+560027851+560999394+562295405+563512671+562836577
3538+559432239+555302329+553027396+552917339+553598826+553906863+553459069
3528+552461608+551462535+550844726+550416339+550019637+550031541+550856755
3518+552182528+552745525+551290846+548361645+546275206+546670668+548887999
3508+551007301+552001351+552196168+552244284+552507553+553182717+554586181
3498+556796009+559017246+559876437+558902786+557209638+556025421+555556112
3488+555622766+556412017+558014142+559582971+559435836+556501675+551600557
3478+546866601+544395984+545352770+548844782+551435935+550025155+545887618
3468+543345199+544269309+546577662+548161496+549065269+549441076+548683757
3458+547204090+546579522+547308753+548198327+548053113+546700802+544569843
3448+542005228+539119616+536404206+534757996+534473831+534878160+535388950
3438+536337428+538277414+540882642+542709099+542311714+539780704+536885048
3428+535462921+535893478+537140444+537824163+537301344+536102804+535289372
3418+535328248+535832156+536079924+535434461+533914057+532728228+533488771
3408+536448787+539835578+541310161+540293479+538443275+537591276+538017306
3398+538745669+538592705+536905696+534128654+531715142+530866119+531402951
3388+532277520+532994102+534124375+536352681+539117384+540666620+539939001
3378+537988660+536942650+537860436+539859388+540989661+540238171+538749699
3368+538372528+539409734+540843704+542281270+544120003+545950676+546793374
3358+547077849+548368032+550869528+552881314+553250673+552987093+553369101
3348+553715642+552448091+549786067+547904427+548342114+550346336+552013070
3338+552337910+551801016+551421117+551705406+552231387+552000173+550485722
3328+548598253+548232925+550312792+553603663+555910465+555977058+553921744
3318+550715075+547721205+545992281+545568730+545728763+545864056+545786985
3308+545568420+545503130+545888238+546869205+548663482+551349874+554150415
3298+555587548+555133987+554151655+554220604+555235054+555988033+556106088
3288+556466395+557731961+559267060+560136855+560616147+561469572+562396906
3278+562612742+562251878+561782445+561070141+560359573+560790316+562683985
3268+564537723+564724914+563299934+561420465+559895286+558673122+557233758
3258+555453743+554085373+553899423+554515372+554834135+554418397+553742552
3248+553605709+554642666+556693268+558484444+558653839+557266062+555745906
3238+555386468+556214968+557007567+556395648+554317765+552166220+551255627
3228+551618290+552422980+552942016+552909278+552533905+552396318+552963036
3218+553994847+554556605+553865692+552222024+550835921+550561181+551046549
3208+551375791+551161629+550614690+549912059+548846518+547000158+544472559
3198+542417803+542030339+543013415+543990601+544341854+544667438+545494821
3188+546297155+545924696+543860826+540961946+538731036+537803578+537504284
3178+536890381+535794891+534677577+533780500+532843122+531727233+530914978
3168+531024788+532009476+532924657+532664488+531180976+529577363+528776951
3158+528627893+528364499+527496069+526215435+525087084+524300623+523412042
3148+522143251+521036910+520750699+521035608+520978627+519933423+517864902
3138+515362414+513640838+513801553+515502420+516866945+516441628+514745721
3128+513197539+512338069+511761895+511136459+510615345+510448554+510622600
3118+510863083+510834933+510326747+509350243+508289476+507765975+507913328
3108+508013062+507366606+506309498+505752979+505800195+505543157+504367248
3098+502774672+501770669+501782853+502156056+501722182+500108338+498337840
3088+497724650+498272612+498652822+497942750+496881456+496861552+498079655
3078+499482809+500243941+500315618+499790536+498800453+497749793+496782156
3068+495569727+494233475+493665517+494334449+495442742+495808629+495160934
3058+494080542+492999779+491822413+490517318+489461853+488931872+488775281
3048+488827922+489118102+489436090+489303277+488712594+488351141+488626192
3038+488973880+488610195+487508598+486277288+485456694+485097194+484751521
3028+483906745+482578554+481323342+480591910+480202493+479573988+478532287
3018+477653812+477428892+477430845+476930038+475920114+474893325+474112290
3008+473584418+473229351+472852428+472380421+472067765+472099139+472145208
2998+471678348+470654318+469626506+469188757+469374584+469636923+469367143
2988+468359948+466935185+465794092+465590625+466342580+467306280+467673810
2978+467287400+466461318+465420765+464198942+462823721+461490104+460702527
2968+460943476+461924505+462618549+462406805+461709258+461234151+461174224
2958+461229532+460950203+460041873+458634317+457292733+456658927+456931776
2948+457587780+457794533+457278999+456546916+456170334+456175728+456061703
2938+455212091+453500187+451603387+450451691+450290139+450574459+450745683
2928+450686469+450455876+450039673+449478969+448932341+448410297+447738544
2918+447002089+446646961+446953757+447645848+448131216+448003457+447199449
2908+445891099+444467391+443444198+443084295+443142362+443133588+442818483
2898+442387027+442145459+442080355+441816031+440987810+439637887+438282693
2888+437517097+437462781+437696754+437780956+437676603+437591502+437693034
2878+437963620+438084652+437600647+436422382+434961503+433710445+432996808
2868+432971944+433405043+433754127+433826083+433988285+434417633+434606560
2858+433980039+432619575+431100845+429998070+429675710+430132991+430854099
2848+431091482+430519742+429527706+428756034+428388132+428046396+427479709
2838+427027234+427001285+426983831+426372098+425364562+424743125+424828691
2828+425155452+425104020+424522948+423698510+422903338+422188089+421632500
2818+421451913+421677236+421985366+421999534+421608629+420931791+420110298
2808+419193226+418176792+417173100+416500293+416413890+416716563+416829752
2798+416374951+415570261+414922504+414627643+414424610+413972135+413220118
2788+412407429+411806082+411485861+411247735+410802607+410064819+409189290
2778+408339895+407586792+407010526+406708131+406686926+406860321+407060501
2768+407043481+406647987+405964330+405243159+404653066+404200559+403848221
2758+403607769+403457874+403226381+402691440+401835287+400899613+400196579
2748+399917002+400028052+400295879+400425374+400183279+399494289+398589431
2738+397941302+397772310+397744594+397428900+396888037+396432245+396024350
2728+395385026+394536127+393793906+393307297+392942155+392538260+392062037
2718+391623637+391436508+391558749+391639045+391166294+390040856+388755324
2708+387965732+387903418+388221996+388442823+388425617+388264499+387965825
2698+387496144+386959963+386495955+386109142+385743349+385412990+385150372
2688+384898108+384577236+384269355+384195322+384423497+384682767+384551691
2678+383866855+382957099+382373516+382310736+382428854+382304970+381846449
2668+381244792+380786922+380689855+380884176+381022538+380850632+380443357
2658+379969088+379407702+378677727+377919788+377431971+377348389+377525535
2648+377685041+377566768+377081213+376414947+375839642+375425299+375116921
2638+374953106+374973041+375032100+374892528+374448672+373817748+373223718
2628+372747960+372262064+371733417+371443299+371682232+372340902+372967020
2618+373135796+372727064+372014358+371511690+371521611+371786151+371774370
2608+371342108+370862506+370652095+370554315+370250556+369786362+369546902
2598+369734651+370078991+370152900+369836555+369350349+368946485+368709660
2588+368595262+368522997+368433370+368336612+368295689+368306850+368260378
2578+368104438+367945800+367847523+367676144+367351893+367094390+367172763
2568+367506934+367725313+367616372+367354187+367156518+366877716+366272835
2558+365573986+365323737+365641632+366100618+366307929+366229742+366025407
2548+365878116+365885526+365967619+366017347+366088682+366220751+366249924
2538+366063943+365867111+365950847+366327119+366751693+367018373+367102450
2528+367042802+366829570+366536352+366462350+366860665+367506996+367817048
2518+367471096+366731418+366146005+366088000+366492298+366939534+367076750
2508+366924498+366701284+366532539+366450756+366482409+366625142+366839925
2498+367042740+367046678+366676389+366053743+365606414+365646686+366023702
2488+366315959+366329104+366220565+366130752+365980702+365732779+365564406
2478+365631247+365846742+366001753+366010340+365986066+366080157+366311215
2468+366641729+367073432+367460927+367469081+367025565+366535422+366342434
2458+366301543+366156267+366009658+366119375+366409182+366470690+366102075
2448+365669317+365717216+366288429+366863858+366960461+366590482+366138813
2438+365925053+365952180+366058734+366169753+366272308+366320020+366354990
2428+366529687+366838840+367066767+367120556+367145481+367257926+367386398
2418+367385809+367208539+367011428+367072378+367485946+368010346+368331869
2408+368401871+368435137+368631566+368971442+369302265+369575052+369885569
2398+370260849+370551556+370639911+370628069+370714750+371024647+371660996
2388+372734288+374212560+375979275+378161542+381132534+385108550+390050777
2378+395970159+402955454+410907487+419627007+429086485+439167089+449219916
2368+458265113+465453317+470171771+472213041+472137303+471068103+469529997
2358+466400120+459866432+449845817+438559759+428640830+421567086+417814595
2348+417757303+421973988+430280964+440211487+447917798+451684674+453029048
2338+454151541+455581976+456517526+456533802+456024748+455198326+453628101
2328+451011154+447651521+443998732+440283753+436700254+433419397+430310416
2318+427025157+423392922+419515400+415573516+411744760+408259072+405335855
2308+402966739+400859403+398744008+396699142+395038794+393903560+393089229
2298+392294490+391455047+390768630+390418710+390370688+390459726+390573317
2288+390700829+390833735+390843500+390565195+390078400+389707274+389568726
2278+389420474+389194128+389253001+389782764+390347033+390404790+389975008
2268+389516084+389360547+389454111+389546218+389524021+389502474+389619569
2258+389938178+390554995+391502635+392483696+393058692+393210974+393378385
2248+393830147+394339171+394564091+394502830+394431309+394483206+394421605
2238+393936733+393121936+392423924+392115702+392052395+391947019+391664590
2228+391225384+390712609+390253190+389971133+389847652+389693819+389400075
2218+389163746+389308432+389916352+390781620+391680308+392577229+393586781
2208+394777199+396060964+397347395+398714804+400275634+401963759+403608265
2198+405131831+406627030+408317511+410338785+412488035+414422378+416087934
2188+417598820+418828270+419584503+420028112+420503653+421125709+421787480
2178+422407490+423050535+423861953+424797503+425439835+425350983+424618342
2168+423786804+423257691+422960722+422591891+421971043+421091917+419989886
2158+418710307+417329567+415930040+414586224+413292477+411872581+410167157
2148+408294322+406501689+404971519+404037426+404213456+405677808+408049560
2138+410837329+413774497+416687452+419406179+421877014+424212400+426621510
2128+429278760+432208518+435318895+438541002+441908107+445546759+449548166
2118+453793529+458068591+462371214+466859819+471589527+476635890+482340272
2108+489108491+497128046+506508097+517449133+530022491+543932999+558544712
2098+572865129+585643504+596070556+604296152+610823453+615767106+618994113
2088+620380463+619678080+616677141+611536811+604582983+596002724+586023465
2078+575332461+565098799+556175099+548349803+540951467+533986850+527971021
2068+523017013+518808791+515096447+511743139+508553211+505242096+501559204
2058+497585017+493754245+490357038+487307921+484496963+481969736+479791282
2048+478063691+476941075+476459178+476523880+477084800+478275621+480568256
2038+484733106+491330627+500238609+510883017+522913466+536435952+551402887
2028+566895059+581478623+594334812+605429154+614720972+622204440+628478640
2018+634201748+639236175+642956610+645069340+645814196+645635810+644767380
2008+642947248+639560209+634285577+627538161+620014329+611966500+603303341
1998+594230149+585324554+577040427+569428115+562268371+555362411+548734786
1988+542540695+536885420+531867920+527652878+524318790+521731667+519706208
1978+518177992+517117721+516409912+515927582+515699190+515911926+516633592
1968+517522794+518054728+518216558+518678086+520034272+522154659+524408634
1958+526316316+527861832+529362642+531167893+533391300+535948476+538826709
1948+542039082+545303167+548193056+550653071+552929864+555075331+557032245
1938+559037273+561433237+564228385+567171412+570141783+573156363+576051771
1928+578517118+580548436+582561463+584868948+587344650+589789970+592182338
1918+594291161+595631257+596188302+596660340+597769904+599647452+601821504
1908+603707670+605121303+606206934+606954084+607216671+607271049+607809617
1898+609144381+610786437+612018087+612726919+613461792+614676019+616120592
1888+617105962+617264259+616811690+616254211+616027276+616198965+616510164
1878+616747082+616827191+616559705+615814477+614970973+614685072+615039364
1868+615184763+614221777+612236590+610077667+608524897+607726780+607168122
1858+606279727+605082674+603959965+602943469+601693155+600060710+598316905
1848+596991938+596555863+596862908+596821799+595388387+592840574+590148478
1838+587864121+585971072+584368140+583335213+583265024+583841167+583854994
1828+582412467+579875195+577125683+574758798+573026216+571956459+571373247
1818+570930972+570345157+569633969+569003635+568568986+568300012+568114743
1808+567946092+567864804+568115611+568840812+569764116+570307148+570158400
1798+569658647+569500784+570186054+571685438+573270451+574059267+574215332
1788+574712171+576028519+577820564+579619676+581381710+583176544+584910243
1778+586603204+588511506+590899348+593741990+596337050+597686075+597816469
1768+597599207+597576389+597992003+599208649+601188131+603032011+604090856
1758+604820025+605737004+606769559+607970766+609801067+612282783+614525163
1748+615807533+616552451+617600507+619309652+621526238+623861501+625829327
1738+627381973+629374972+632670803+636324150+637958641+637432846+636526283
1728+636386278+637326013+639183285+641346858+643275746+645300615+648271358
1718+652220217+655653821+657213288+657420940+657514690+658210376+659643850
1708+661640260+663935964+666354312+669063026+672457815+676273241+679055305
1698+680132255+680730533+681700961+682746599+683702579+684933175+686776807
1688+689571272+693894450+699681111+704578634+706109082+705544224+705246170
1678+706423381+709387242+713431835+717312055+720876550+724677714+727911479
1668+728924069+728209347+728016824+729741594+732862387+735536564+736804177
1658+737420064+738665294+741640935+746585642+750783200+751516151+750643256
1648+750125708+749568848+747782323+745293290+743451952+742681241+742957903
1638+744484322+746867203+747812643+745526735+741917288+739496149+738905312
1628+739539986+740682661+741823599+742151601+741127603+739820307+740068262
1618+742588421+745957788+747416870+746297819+744269725+742844994+742683411
1608+743577015+744494366+744490336+743867752+743866760+745157439+747282507
1598+749504798+751502572+753384274+755482433+757848635+759943321+761305429
1588+762221788+763240082+764521398+766083841+767924744+769691801+771001887
1578+771993705+772771547+772498543+770788344+769047020+768679459+769245433
1568+768812644+766649753+763721359+761020892+759449520+760261713+763705238
1558+766165190+764581914+761541107+759477422+758833819+759542093+761364085
1548+763591088+765596178+767402545+769096127+770433370+771488061+772607174
1538+773466924+773879685+774654799+776723568+779946110+783172000+785828506
1528+788176107+790466789+792887927+796017463+800500983+806176472+812187340
1518+817768706+822013759+824299914+825653279+827751747+830868324+834386006
1508+838783465+845237229+852227143+857019569+860143710+863584878+868158429
1498+872665325+875277994+876369267+878070661+881454972+886060021+890900003
1488+895596074+900287990+904592814+908199038+912024818+917325678+923864016
1478+930311208+936086709+941188039+944833449+946055613+945277647+943623190
1468+942023049+941930848+944739327+949284355+952193900+952164882+951132389
1458+951957230+955185105+957276071+955725967+951668911+946879524+942756868
1448+940238259+939116976+938417073+938132660+939222817+941462593+943105517
1438+943339645+943749430+946087979+949460447+951822185+952432740+952132454
1428+952002431+952300175+953095813+954756408+956961152+958051247+956924693
1418+955280839+955457737+956568541+956060479+953662159+951789509+952272211
1408+954498843+957030286+959100481+960187042+960178485+960020933+960615738
1398+961401889+960909948+959029858+957785807+959040027+962224622+964936498
1388+965212106+963407662+961681404+961644511+963451685+966717691+971017990
1378+975274265+978336588+980589447+983413178+986685075+988725570+989118552
1368+989297372+990521024+992545460+994443531+996074117+997782517+998791883
1358+997869509+996172517+996942051+1001490799+1007583576+1012511666+1015611068
1348+1017302417+1018012055+1018400697+1019626519+1023044374+1028957648
1340+1035237739+1038739982+1039233845+1039449061+1040851223+1042145250
1331+1042107303+1041710105+1042578907+1044839826+1047671308+1051081041
1322+1055276366+1059405222+1062407463+1063857989+1064244275+1065087407
1314+1067591755+1070821055+1072179070+1070961433+1069810388+1070517359
1305+1071179439+1069877972+1068316955+1069165916+1071967388+1073741823
1297+1073155512+1071939486+1071514014+1070139382+1065116301+1057010002
1288+1049114269+1043507481+1039942180+1037589060+1035831863+1033753669
1280+1030460009+1026261893+1022202977+1018717414+1016238116+1016180452
1271+1019168618+1022556587+1022022235+1016256841+1007999872+1000248608
1263+993832108+988215648+982597947+976464745+970241511+965229220+962200627
1253+959924826+955914583+949468756+942579908+936713757+930570819+922280368
1243+912251320+902483991+894272905+887368122+880640857+873482664+866578191
1233+860894270+856615053+853648403+852072815+851479187+850877809+849583534
1223+847406940+844201698+840146068+836345399+834530786+835857798+839842620
1213+844544519+847977937+849538023+850342837+852179772+855793994+860297418
1203+864458703+867856531+870618072+873092286+875983291+879927314+884473086
1193+888264082+890793604+893278792+897021177+901650531+906036643+909994492
1183+913747604+917083241+920207817+923810134+927672187+931054824+934650073
1173+940345712+949161091+960530793+972898204+984155554+991975580+995130971
1163+994880847+994031576+994328824+995023332+994455622+992880779+992903286
1153+996807378+1003862086+1010465901+1012669963+1009466394+1003926075
1144+1000430528+1001365303+1005915230+1011236923+1014622969+1015533562
1135+1016509942+1020689332+1027295751+1031305249+1029558220+1024752774
1127+1021080702+1019663535+1019363869+1019134144+1019049880+1019445157
1118+1019566003+1019238311+1020894008+1026346715+1032329186+1033842025
1110+1032744428+1036617145+1048283909+1060871249+1063838519+1055237055
1101+1043143021+1034898948+1032328132+1034283929+1038965367+1043866981
1093+1045597021+1041911246+1033566913+1023750043+1017132402+1016218894
1084+1018643505+1020828655+1022057888+1022774904+1023210359+1024464083
1075+1026787193+1027590270+1023694921+1014596742+1003516723+995349040+993147644
1065+995224288+997095635+997682380+999417629+1001727841+1000405045+994268928
1055+987702378+984862401+985047670+985076440+984078111+983983802+985361659
1045+985517165+982611712+979689147+981245327+987010473+991983516+992503607
1035+990571868+989609997+989190229+987848769+987014999+987483069+986158474
1025+981462899+977472312+978233165+982410199+985810259+986732261+986494847
1015+986452188+986749312+986921435+987092691+987608937+987020146+982510026
1005+973772338+963700817+954296399+945247761+936535867+929629224+925759731
995+923915727+921144452+915429405+907856651+900917890+895622735+891619127
985+888967147+887986986+887714105+886096541+882339461+877928052+874457617
975+871686899+868502862+864693017+861129824+858638249+856851227+854449186
965+850882459+847001619+843826138+841640306+840436433+840343427+841424283
955+843652155+846788077+850182618+853450361+856934251+861101798+866057728
945+871732410+877913977+883942021+888869677+892261180+894708732+897550382
935+902072594+908598283+916103886+923147496+929644725+936873976+944995404
925+952004973+955488057+954348110+949657434+944466942+941351606+940085729
915+939344097+939751216+942572281+946361479+947855779+945926830+942387757
905+938907526+935245932+931320821+928702510+928609380+930414383+933135311
895+937325924+944437738+953865966+961210172+961988882+957492465+953609455
885+954106046+957992467+962622565+966396200+968459884+968320747+966171993
875+962671114+959076485+957012739+957145118+958965870+961674087+964316270
865+966223828+967890004+970515508+974124708+977297212+978969774+979261628
855+979399835+980418067+982059503+983402637+984268711+985972028+989628599
845+994038892+996218524+994754110+991616390+989730967+989933039+990250562
835+988595857+987032919+990658736+1000599862+1011484691+1018369199+1021102528
825+1020406903+1016737063+1013507267+1014037650+1016803036+1018729567
817+1019495008+1020234407+1022440081+1028182968+1038019121+1048646261
808+1054777852+1054104983+1048659158+1041557698+1035174805+1031675352
800+1032623830+1037192606+1040957250+1039434986+1033912958+1028980714
791+1025683891+1021967734+1017849418+1014775252+1010745788+1001885456+989490577
781+979881049+977477210+980494085+982626593+979790461+974665756+972083965
771+972771839+974606170+976755482+978840248+978447389+973833412+968079551
761+966790794+971885986+979229076+984249056+988683779+996088191+1003940832
751+1007236477+1007267913+1009241443+1013824542+1016750580+1015337691
743+1011298741+1006557469+1001041889+996403607+997495996+1006683151+1018844894
733+1026055482+1025830841+1022770129+1022159512+1023559938+1023210979
724+1019511997+1014524755+1011831542+1013704998+1018152370+1020577600
716+1018913099+1014842588+1009834141+1003145814+995766018+992014084+994926730
706+1003495704+1013909612+1020397850+1017814385+1007281740+996717472+991951398
696+991340905+991061763+991297564+992748152+992999330+989763892+984124304
686+978031776+972127678+967901847+966411639+966417591+965135345+961537554
676+959045111+962025341+970123084+975674564+969338483+954446573+947339409
666+953401741+964442697+973542117+976103322+969539872+956830819+945131999
656+940501281+945382868+957578403+968664126+969313991+962952551+962164106
646+971141998+982892777+988921131+987563798+982678739+977535680+970402598
636+962061861+958170667+959599614+963981572+964351179+953085768+935332118
626+921470717+915775636+915565070+915062650+907621841+894376390+888311577
616+899268208+921545370+938053853+940460110+937485523+940046294+952139274
606+970440793+983033651+980530109+968838667+957420230
##END=
