##TITLE=<SNM>
##JCAMP-DX=4.24
##DATA TYPE=INFRARED SPECTRUM
##DATE=29/4/2025
##SAMPLING PROCEDURE=Instrument type and / or accessory
##ORIGIN=Admin
##XUNITS=1/CM
##YUNITS=ABSORBANCE
##RESOLUTION=4
##FIRSTX=4497.3318
##LASTX=599.83466
##DELTAX=-1.4281778
##MAXY=2.0904312
##MINY=0.38296357
##XFACTOR=1
##YFACTOR=1.9468658e-09
##NPOINTS=2730
##FIRSTY=0.38935941
##XYDATA=(X++(Y..Y))
4497+199992942+199906391+200572941+201080564+201044009+200742552+200564169
4487+200406437+199839190+198990630+198630849+199149311+200088662+200765467
4477+200874214+200596775+200451993+200826255+201498009+201873158+201694776
4467+201308176+201258946+201833664+202961592+204242507+205051909+204911154
4457+203832088+202332593+201237944+201096484+201494060+201545203+201292180
4447+201542325+202213238+202259789+201325061+200115971+199212027+198724977
4437+198784341+199331092+199800752+199700347+199287816+199273794+199929521
4427+200766386+201156736+201050729+200938905+201268621+201968419+202414367
4417+201923261+200441416+198698954+197613612+197582063+198237269+198907095
4407+199388971+199928863+200465617+200571762+200177126+199634447+199092748
4397+198448395+197810471+197513361+197689095+198148193+198646770+199060832
4387+199358814+199539079+199604000+199606755+199604719+199439869+198878056
4377+198175089+197988042+198340659+198321998+197461789+196707740+197248061
4367+198935552+200513255+201011970+200430256+199370877+198545830+198448120
4357+199055673+199840276+200244495+200170252+199991993+200094035+200404799
4347+200550009+200409881+200155526+199878332+199666823+199754736+200042600
4337+199933593+199173926+198366116+198338868+199375209+201015246+202343140
4327+202697149+202202568+201407325+200650199+199982517+199317957+198546013
4317+197810563+197574470+198036813+198588998+198381286+197536048+197285565
4307+198575986+200892783+202824526+203486024+203064782+202349477+202078972
4297+202457245+203137893+203731118+204164330+204533494+204851331+204924915
4287+204394958+203115758+201550423+200583717+200796420+201867648+202841395
4277+203140036+203025242+202905290+202779261+202602945+202562639+202766356
4267+203121268+203558874+204047960+204459434+204692588+204922298+205495653
4257+206392157+206950098+206509951+205306555+204296100+204071518+204385957
4247+204789900+205233782+205820838+206360745+206576923+206578163+206702508
4237+206975493+207037995+206576280+205613937+204418593+203345391+202791063
4227+203032697+203933105+204964731+205711096+206183113+206550394+206864129
4217+207131863+207424090+207821864+208325722+208753438+208731166+207966707
4207+206685348+205727353+205929156+207232145+208606468+209114474+208857501
4197+208565029+208506462+208330238+207903133+207720036+208221001+209053840
4187+209391607+208938801+208335197+208348867+208821023+208932724+208618301
4177+208891393+210330254+212096182+213048009+213175033+213261278+213611322
4167+213837649+213737520+213652011+213803803+213966158+214029533+214156986
4157+214205297+213809788+213077829+212468454+212168068+212151673+212471393
4147+213061036+213597224+213773892+213562674+213197061+212944895+212884643
4137+212999054+213368081+213994631+214600944+214871127+214780122+214536284
4127+214324989+214194061+214090244+213956315+213838736+213923786+214441390
4117+215444697+216640301+217520058+217760361+217447346+216893248+216412934
4107+216293808+216668529+217249094+217464185+217100225+216591622+216514103
4097+216993070+217651094+217942984+217611293+216954158+216561542+216813249
4087+217707442+218964430+220109120+220689303+220651477+220379870+220273618
4077+220427110+220694079+220811276+220490026+219717347+218997863+218932789
4067+219502241+220090031+220260637+220187144+220210458+220288100+220069810
4057+219439708+218766041+218522676+218801157+219340697+219953317+220689655
4047+221578903+222407165+222826493+222617311+221894796+221125163+220805934
4037+221004002+221332187+221528296+221831207+222509375+223329600+223831790
4027+223848490+223584246+223374896+223345260+223282284+223035292+222896128
4017+223223333+223849455+224289953+224366508+224305537+224431429+224908299
4007+225566337+225940384+225697801+225107944+224886684+225391062+226116822
3997+226244536+225588947+224736468+224337347+224533608+224992614+225368299
3987+225771034+226596494+227804497+228760579+228952815+228514644+227973603
3977+227779714+228044708+228528558+228893329+229018364+228965827+228759431
3967+228465169+228343012+228634397+229196486+229545826+229379491+228918510
3957+228592622+228577834+228827612+229344375+230160038+231082948+231701370
3947+231851616+231982238+232687195+233787630+234316317+233804132+232969977
3937+232701661+233202258+234361919+236055472+237597279+237824080+236552610
3927+235044986+234465722+234692599+235008875+235334580+236088124+237273135
3917+238197147+237990017+236477923+234496782+233042169+232333446+232250294
3907+233471998+237110826+242828184+248206320+251113066+251381596+249361772
3897+245543628+241737224+240309217+241959632+244439963+244591541+242902871
3887+242715074+245112850+247545925+248146650+248221552+248325201+246913573
3878+244425344+243666166+245639837+248674526+251309007+253106653+253049937
3868+251233080+250135109+251122327+252020117+250266787+246906286+244595536
3858+244812035+248592690+256950897+266348568+267711578+260487408+251774533
3848+246046399+244552337+246735007+250931056+255359646+259173903+262066075
3838+263091333+261455904+258211100+255228198+253287301+251981189+251026118
3828+250663169+250988996+252482384+256553857+263046665+267557153+266784015
3818+263574204+260796840+257798278+253897456+250520591+249371799+251225533
3808+255228137+258835048+260943061+263307725+266401472+267511688+265694157
3798+263272180+261095435+258294528+255352100+253806803+253869780+254516123
3788+255241057+256284638+257538871+258776664+260582990+263386806+265869799
3778+266180763+264693789+263679247+265012897+268928368+273872344+277775783
3768+280258348+282181534+283538820+284224091+285633576+289144645+293728794
3758+297132157+299567390+303744136+311965705+323709885+334032394+338164349
3748+338812851+341248084+345992813+348351599+346528312+345067790+348159485
3738+356565881+367479549+375890445+378555847+376436354+372968330+371439781
3728+373571980+378838155+384787794+389194648+391656302+393000729+394546760
3718+397489235+402325106+409533479+420041856+432850115+442985318+446642087
3708+446129519+445810289+448237777+453869258+460846758+465883682+467708102
3698+468017841+468877438+471269472+475646904+482360803+490427977+496110341
3688+495724033+490218933+483418422+478700299+477905975+480983709+486893671
3678+494634328+501695317+504261555+503682460+505185568+509039624+509286050
3668+503328052+496581731+493975325+495452012+498125466+500513460+503951265
3658+509496655+515171121+518467023+521241049+528044346+540492564+552462872
3648+554053479+545981713+536788372+531821649+531542618+533742539+536409349
3638+539242464+542612946+546107788+549183563+552447074+556848937+561832498
3628+564748214+563712975+560060707+556880961+557055348+561352934+567699873
3618+573410741+577751495+580565445+580775591+578524296+576467718+576867559
3608+578600591+578707623+576641186+574411874+573780823+575226068+578473413
3598+583243032+589352883+595978058+601418344+604827585+607395630+609941324
3588+610223172+606340062+601264286+598501954+598143628+599099695+600897265
3578+602661525+603110718+602154039+600994990+601057201+603410875+607848681
3568+611652252+611495806+608086687+605140294+604435092+605248612+606811421
3558+609415898+613350504+617646498+620649836+621862218+622406994+623410025
3548+624922930+626764097+629295463+632428918+635215803+637253523+638647639
3538+638765326+636859193+633578844+630650697+629277400+628969590+628357888
3528+626939647+625390554+624556766+624544336+624948341+625552878+626162008
3518+626397933+626281532+626254406+626441101+626730970+627343774+628230772
3508+628518559+627863935+627443704+628363522+630238304+632233713+633936006
3498+634692336+633981195+632733238+632551442+633756292+635444319+637043989
3488+638666559+639942254+640017201+638972900+637934783+638181362+640357954
3478+643431463+644803842+643198784+641228970+642326482+645900129+648258089
3468+647764502+646460458+646197530+646055841+644686646+642812353+641746927
3458+641553558+641808587+642257658+642180384+640614085+637580804+634421571
3448+632960835+634265921+637411071+639987137+640773531+640907873+641540516
3438+641739579+639802402+636041815+633334530+634336766+638378160+641732844
3428+641922661+640598655+640512992+642250616+644599758+645967300+645455467
3418+643922906+643105896+642700850+640158646+634408406+627790702+623672463
3408+623812989+627825114+633149244+635700144+633504937+629583741+628362113
3398+630685232+634475026+637913842+639959032+639687715+637463240+635454055
3388+635102954+635663650+636506684+638567977+642207019+645571623+646832561
3378+647112572+648835929+651979916+654026269+653283532+650856014+649347089
3368+650331445+653033708+655096226+654909654+653400729+652724245+653998225
3358+656649421+658545696+657180726+652865261+649389461+649584973+651878517
3348+652291339+649277285+645424423+644639926+648379755+653717234+655827880
3338+654168081+653331844+656235987+660334755+661524970+659236080+656179654
3328+654740594+654902857+654994215+654060865+653106941+653556747+655066529
3318+655855373+655169275+654281542+654666872+655955609+656430152+655514926
3308+654224230+653224689+652371062+651729296+651834063+652350121+651811713
3298+650241373+650298073+653933075+659020974+661698745+661837251+662870102
3288+666249217+670096875+673289479+676294348+677962352+676065588+671353526
3278+667404469+666354045+667257392+668401194+669509115+670938194+671849439
3268+670526841+666591439+662377618+661289352+664144878+667875951+668378967
3258+664492795+659114230+656735574+659678354+666239542+672192580+674156026
3248+672587584+670631670+669713872+668643486+666988035+666425441+667653865
3238+668600257+667091026+663834557+661529134+661750853+663634208+665381507
3228+665901606+664629585+661651781+658924963+659413774+663827332+669115519
3218+671135359+668669571+664135020+660544840+658534368+656740901+654275787
3208+651729663+650219636+650273214+651656247+653674066+655370788+656044455
3198+655719684+654778496+653338273+651665493+650855708+651847595+653728133
3188+654200411+652248599+649445671+648095213+648767595+649796221+649215747
3178+647068791+644940327+643844408+643823589+644783024+646404370+647824693
3168+648071578+646401369+642743468+638472395+635579640+634275228+632485557
3158+628768261+624635142+622559888+623113175+624964445+626486535+626631592
3148+625473890+624533315+625081152+625988540+625149915+622836960+621061311
3138+620509555+620536069+621004060+622076711+623178999+623647909+623549204
3128+623189959+622476859+621063883+618985506+616873574+615187201+613404572
3118+610882390+608481752+608037763+610077932+613028611+614756561+614386478
3108+612487938+609962266+607431695+605765038+605923994+607511112+608679162
3098+608300691+607118802+606025026+604511203+601811205+598716387+597112920
3088+597720397+599065099+599172744+597800426+596183918+595184989+594867994
3078+595349089+596842768+598922369+600318200+599677842+596762738+592961371
3068+590242453+589483367+590128991+591244994+592050799+591690698+590106948
3058+588816925+589129083+590220471+590388000+589527944+588901608+589104957
3048+589524821+589266547+588041797+586309928+584774306+583847814+583532350
3038+583552557+583430094+582727709+581387170+579678263+577980990+576717113
3028+576063223+575521570+574313475+572501883+571208615+571313566+572379359
3018+573390351+573836483+573491995+572181460+570177601+568060832+566168599
3008+564672104+563852889+563796250+564120531+564249056+563885464+563302113
2998+562974525+562739274+561896118+560490490+559647517+560146186+561339463
2988+561957655+561686033+561275231+561200774+561044879+560393071+559414226
2978+558278077+556983830+555809779+555032447+554462444+553885705+553520521
2968+553630187+554078890+554351860+553789082+552131549+550036823+548672832
2958+548565249+548961355+548556432+546931902+544936187+543528600+542891977
2948+542933431+543861576+545623509+547168561+547007400+544752187+541657675
2938+539319922+538283152+538107663+538191489+538076435+537555723+536971086
2928+536809251+536789719+535966463+533963033+531516104+529488794+527974114
2918+526802574+526234530+526520909+527231132+527449912+526501315+524490354
2908+522361155+521209821+521281891+521793907+521830952+521296770+520938260
2898+521424376+522446328+522998941+522419937+520737788+518436774+516438427
2888+515689628+516185051+516873843+516808877+515925981+514662594+513378939
2878+512239760+511291714+510520536+509847266+509133400+508322023+507602677
2868+507371191+507881524+508809088+509282223+508657265+507310603+506196192
2858+505629771+505091210+504203967+503268229+502675050+502381660+502156298
2848+501895238+501574049+501158043+500636259+500049173+499446503+498764783
2838+497829321+496679946+495605948+494605152+493324558+491731746+490284940
2828+489330741+488866271+488824970+488966966+488726908+487849217+486872424
2818+486443375+486530446+486719835+486844135+486905550+486752777+486257201
2808+485610475+485071578+484560724+483815967+482778830+481634660+480571959
2798+479609187+478633434+477536842+476325899+475125886+474099526+473413734
2788+473226764+473434124+473437798+472669191+471447135+470688540+470668119
2778+470795327+470599601+470112414+469380698+468473831+467772395+467492721
2768+467196697+466356266+465164520+464317598+464115473+464111921+463643501
2758+462557012+461355805+460651491+460572013+460684740+460414740+459597638
2748+458669155+458160843+458002621+457605046+456629324+455291540+453884076
2738+452523637+451463262+451032438+451095139+451080382+450667132+450014620
2728+449315020+448520206+447546933+446536493+445815340+445576661+445623074
2718+445499693+444872071+443755302+442512918+441616337+441220323+441035925
2708+440770089+440456339+440140599+439610642+438766169+437920288+437402607
2698+437128046+436795192+436267347+435570840+434716142+433707906+432653317
2688+431753767+431147362+430755573+430402299+430118981+430078691+430110470
2678+429636600+428398655+426961217+426146442+426157831+426491358+426574816
2668+426238472+425592757+424783676+424032275+423583510+423403735+423223408
2658+422992444+422896035+422836702+422419685+421581764+420758478+420311427
2648+420134040+419903810+419502530+419076268+418742496+418364973+417743383
2638+416929679+416171267+415656771+415461289+415557576+415749077+415751893
2628+415487282+415195882+415111750+415075379+414660658+413748586+412770323
2618+412214587+412073816+411971743+411699019+411396046+411253132+411235405
2608+411178644+411042220+410879682+410602763+410058079+409389953+409040934
2598+409243610+409685057+409821297+409459542+408903898+408566084+408558553
2588+408660197+408568442+408136730+407456878+406826684+406570798+406745338
2578+407041147+407111043+406961516+406885099+407057312+407326394+407364326
2568+406982426+406320637+405699568+405301686+405154516+405318065+405736857
2558+406087285+406170437+406199124+406334017+406293451+405792272+405015766
2548+404352630+403972322+403853441+403936410+404082263+404071456+403801609
2538+403404860+403077150+402877719+402796036+402907447+403304471+403913662
2528+404518598+404953371+405201665+405359978+405524905+405628631+405425557
2518+404787893+403986222+403480328+403443742+403696138+404031502+404360927
2508+404586810+404548387+404067353+403087926+401988976+401584420+402375163
2498+403873464+405059485+405437895+405293450+405039126+404742184+404309523
2488+403867341+403805987+404381807+405277438+405778525+405539233+404941247
2478+404544039+404489237+404607322+404767014+404894252+404861738+404548540
2468+404000856+403480297+403260936+403356610+403589779+403892997+404272876
2458+404580472+404690168+404776351+405031717+405305850+405373939+405291062
2448+405172978+404952790+404635948+404464775+404583013+404813580+404926583
2438+404883812+404749838+404613415+404608394+404796803+405051158+405179315
2428+405109603+404916724+404768820+404838501+405159139+405598475+406026635
2418+406393227+406590239+406462327+406091142+405838685+405906621+406064537
2408+406043443+405983283+406202492+406707436+407229954+407656951+408176010
2398+408951536+409774424+410196676+410046292+409642103+409441724+409618560
2388+409968038+410081194+409640450+408614304+407117503+405136147+402519638
2378+399231237+395560171+392040958+389026108+386366186+383748361+381294023
2368+379465440+378434701+377918245+377637928+377743521+378635418+380314658
2358+382267143+384351276+387368666+392116364+397898567+402539691+404116859
2348+402291184+398398949+394761836+392966899+392530809+392212436+391781184
2338+391679050+392022711+392537085+392983003+393322133+393664722+394234878
2328+395202304+396364690+397236165+397673296+398128919+399066708+400412605
2318+401711476+402572726+402974373+403321494+404068639+405205614+406365183
2308+407400973+408512660+409807153+411078990+412110065+412953987+413818390
2298+414783856+415727707+416456024+416845394+416931608+416907085+416980348
2288+417256165+417717758+418176565+418340267+418156481+417909810+417785970
2278+417657843+417466648+417382363+417446472+417476384+417361207+417105750
2268+416678753+416125252+415694948+415621930+415903196+416420693+417097361
2258+417819004+418419286+418872612+419298293+419716136+420031631+420210824
2248+420193465+419835751+419270892+419004688+419290088+419747976+419888931
2238+419645505+419187587+418593948+417908922+417259073+416758415+416405998
2228+416121945+415828035+415517347+415306496+415373086+415757802+416249643
2218+416564771+416661149+416788388+417178983+417784041+418407376+418953193
2208+419363351+419529870+419519920+419682765+420313724+421345044+422419685
2198+423127979+423300958+423257790+423572397+424470753+425646763+426672205
2188+427375417+427850970+428279988+428730314+429073210+429147943+429030624
2178+429061699+429513249+430239944+430790506+430907457+430771340+430714640
2168+430880363+431213369+431625273+432092132+432621508+433144546+433544081
2158+433886364+434463225+435408577+436448775+437279287+437999797+438858659
2148+439759036+440440266+441019423+441905533+443246684+444831750+446418653
2138+447823975+448904954+449810321+451037765+452929999+455296531+457716150
2128+460017073+462368480+465052191+468102922+471113547+473599602+475520155
2118+477141103+478554660+479713403+480721517+481781462+483084772+484892966
2108+487441263+490748401+494773507+499629370+505346392+511508535+517367307
2098+522329376+526180034+528851498+530250023+530342605+529047928+525996156
2088+520865823+514027870+506489367+499228182+492725532+486972261+481798638
2078+477220459+473382690+470227682+467522969+465228568+463554257+462569533
2068+461967629+461364837+460695026+460072518+459413852+458615119+457982201
2058+457939522+458351671+458644234+458617017+458705374+459350446+460412321
2048+461392605+462139138+463061528+464582883+466674026+469134579+472151082
2038+476322654+482084527+489186358+496882010+504680745+512660297+520892949
2028+528908076+535993466+541758095+546166387+549302781+551337439+552502305
2018+552838281+552038232+549784427+546245253+542033758+537707577+533482367
2008+529375394+525427194+521733472+518332558+515121095+511948146+508835662
1998+506079393+504120356+503266453+503392131+503859755+503933692+503420910
1988+502768857+502537126+502912291+503698992+504665713+505777430+507060473
1978+508439036+509862237+511399757+513074803+514836430+516739195+518814143
1968+520754321+522152662+523114913+524212119+525777376+527640770+529586458
1958+531686083+534057697+536603759+539108184+541443978+543673412+546029290
1948+548750719+551953855+555641393+559411654+562248198+563542201+564129594
1938+565217920+566910539+568654838+570450326+572749136+575558615+578313538
1928+580573833+582592755+584975758+587803484+590534771+592797883+594573961
1918+595634917+595682739+595060628+594704629+595447672+597325271+599395075
1908+600706897+601346948+601919952+602581189+603153274+603591385+604043640
1898+604766844+605773978+606538635+606784234+607271575+608701817+610336695
1888+610897146+610359780+609522624+608653567+607687520+606918698+606712961
1878+606914290+606883674+606174982+605323927+605681396+607913157+610571334
1868+610893472+608019945+604004635+601051078+599575402+598588842+597012623
1858+594614313+591862207+589201397+586830701+585068584+584398836+585070360
1848+587041337+590024163+592710751+592585655+588814659+583929619+580556137
1838+578990022+577895389+576370360+575268869+576055631+578425714+579824177
1828+578536665+575687263+572624469+569318525+565961943+563610045+562725129
1818+562619873+562567642+562731865+563691361+565367019+566675227+566531211
1808+565173528+563896118+563791780+565237820+567905121+570655818+572084530
1798+572032300+572119861+574256163+578604877+582488110+582710380+580097882
1788+578128191+578513948+580647250+583528125+586887095+590348934+593034665
1778+594836644+596997867+600846872+606252501+610933212+612418930+611196874
1768+609216406+607490354+606854956+608187657+610833282+612748538+613479764
1758+614405092+615859766+617361711+619831908+624660982+630879458+635232030
1748+636249022+635721085+635674365+636890114+639460853+642660377+644789576
1738+645629486+647941461+653865781+660220191+661179074+657734931+654283686
1728+652398861+652243946+653910113+656834095+660446502+665673642+674069934
1718+684676312+692166381+692310091+687686264+683079582+681284522+683284462
1708+688970041+696833314+703994325+709231629+714703817+722005108+728394420
1698+730803997+730140065+727305787+723293906+721039551+722339126+726314083
1688+731923919+740539298+752909507+762391004+761387176+755041706+751280079
1678+752584797+757710599+763480861+767552197+771096882+775893014+780017805
1668+779939490+777343340+776936948+779897730+783264477+784513352+785267784
1658+788611201+796398793+809108408+822560943+825965898+820887183+819511559
1648+824190739+827838660+822970581+813322229+806668337+805744600+809703760
1638+816306341+821812879+821393077+815422527+810131829+808803047+809762971
1628+809482470+807163821+805690043+806565346+807184273+805341881+802752712
1618+801241705+799457239+795453686+790569075+787001306+785191245+784417464
1608+783554224+781688075+779017835+776766541+775765959+775645333+775640190
1598+775360546+774583519+773349217+772400008+772527063+773471558+774077503
1588+773389936+771569282+769908871+769647413+770692449+772161022+774153124
1578+777635475+781652867+782365539+779171526+776493265+776953725+778412257
1568+777388407+774536065+772658650+773155052+777335931+786982691+799210109
1558+802316377+794245101+785379286+779367834+775418103+773285965+773012567
1548+774387334+777544853+782853002+790851841+802548261+815749625+820104830
1538+811791016+802589041+800066063+802352749+803673816+802242594+801627831
1528+804346688+809699719+816183388+823650005+831953776+839087539+843515609
1518+846305862+848146478+848427346+848152662+850092411+856026896+865865432
1508+877682233+885374180+882969808+875884540+871869047+872746064+877184421
1498+882890023+887308970+889306950+891019714+895573798+903466585+911688368
1488+916739284+918249495+917693147+916539731+916292356+918062617+922060965
1478+927924115+935292088+943596717+950463143+951540387+946729682+942793974
1468+944971607+952090429+957499671+955982785+951677607+951618396+957487547
1458+965523248+969137124+966325869+961736209+959202638+959966867+963208456
1448+966297335+967209376+966316255+965269995+965453444+967844591+973197622
1438+980810337+986810523+987385424+985000400+984223741+985640085+987276983
1428+988756211+991801493+996706127+1000986139+1002571971+1002200113+1000762584
1418+997567652+993368649+990887553+991843865+995472131+999459212+1002532661
1408+1004804222+1006109369+1006324353+1006617957+1008829145+1013326529
1400+1018311438+1021244115+1020682623+1016874031+1011349245+1006201094
1391+1002942666+1001648234+1001063842+1000491941+1001652153+1006357602
1382+1013039293+1018040121+1019711554+1019498286+1019771316+1021949929
1374+1025449180+1028214818+1029700781+1031740766+1035960711+1041630002
1365+1046256524+1048307163+1048666346+1048784767+1048265280+1046208641
1357+1044015822+1044557597+1049144808+1056051341+1061899061+1064687660
1348+1064789672+1063228149+1061109788+1060227199+1061423415+1062994245
1340+1063219454+1063617948+1066296944+1069837465+1071039927+1069632707
1331+1068408569+1068886786+1069900533+1070612042+1071789032+1073085545
1322+1072522829+1070193097+1069047090+1070439982+1072091637+1072300926
1314+1072428777+1073228826+1072772898+1070284454+1068210792+1067813155
1305+1066902155+1064618591+1064208096+1067803236+1072403060+1073741823
1297+1071924353+1069768396+1067239172+1061677403+1052954380+1044190821
1288+1037756505+1033774506+1031427139+1029867331+1028023654+1024727507
1280+1019804626+1014192341+1008779548+1003518057+997784167+991325113+984290361
1270+976822092+969756479+964584938+961442727+958191708+952378584+943697994
1260+933974205+925234527+918257578+912510094+907432787+903280626+899989377
1250+896253344+890801792+883769000+876160082+868783292+861707025+854199016
1240+845709713+837057596+829647068+823878704+819455348+816445458+814919327
1230+814232617+813584055+812716834+811595933+810130727+808642743+808098947
1220+809305450+811813488+814169427+815519028+816348407+817485963+819163520
1210+821275451+823863335+827158930+831423941+836475408+841564716+846152845
1200+850287127+854055000+857293038+859981096+862435066+864969985+867689760
1190+870513507+873137149+875187666+876715940+878114159+879701460+882098914
1180+886385417+893233657+902467350+913603196+925731481+936728821+944161393
1170+947683912+949234229+950765259+952919073+955219597+956440123+955536164
1160+953504078+953661259+958565648+966833171+974035145+977197134+977206196
1150+976414168+976064292+976301686+976561674+975723111+973179559+970422616
1140+970372467+974137279+979405811+983550564+987222487+992089954+996570622
1130+997687850+996203417+995519830+997247841+1000234218+1002203481+1002042871
1120+1000801404+1000208256+1000373091+999814354+997965473+996410134+996925335
1110+999456273+1001871484+1001865606+999676461+997828253+998050339+999534649
1100+1000053953+998303899+995516707+994271016+995334544+997037756+998624445
1090+1002277081+1009584189+1016855172+1016999861+1008611468+998392317+992349514
1080+989670028+986025720+980665892+976722101+975164680+972990538+967978198
1070+962284107+959258787+958443369+956114923+950864944+946108918+945246413
1060+946983180+947811518+947188673+947666155+950977916+956241672+960636371
1050+961614236+959300424+955857016+952599935+949456438+946923786+945927490
1040+946409013+947260619+946953850+944537843+941232634+940049338+942428790
1030+946351701+949066700+950335966+951157569+951389084+950796548+950338354
1020+950491555+950623141+950983671+952903459+956220118+958816635+958940200
1010+956204688+950784363+943240412+934861876+926631888+918429270+909986748
1000+901300403+892399992+884225112+878210170+874108463+869653267+863354823
990+856502357+851366820+848733748+848002155+848449940+849240376+849013881
980+847153243+844861230+843529203+842675515+840821673+837684483+833929652
970+829767204+824881000+819162907+813218809+808190366+804959798+803626117
960+803967359+806039123+809651101+813759176+817331048+820563208+824321284
950+828658058+832655978+835592390+837996641+841361918+846527703+852581344
940+858243227+864113725+871743278+880399253+887107825+891007590+895321709
930+903576434+915400766+926103033+929948976+925268388+916486521+909847386
920+907676978+907751252+907673182+907826076+909208497+910932773+911198027
910+908990391+904486088+899467380+896615895+896969078+899135812+901827115
900+905635034+910866337+915565234+917812242+918346363+918795495+919146412
890+918830581+918178589+917035583+914831988+913621872+917083772+925109370
880+932618052+935522257+935328092+935152297+935185423+934511265+933708889
870+933531869+933369973+932511081+931554953+931718134+933642208+936906515
860+939869195+941447679+943341566+947550244+952738869+955684527+955637685
850+955553125+958495293+963816668+967562498+966683215+962583161+959228049
840+958154173+957826952+958045303+961519572+969269016+978081376+983441939
830+983261858+979002725+974033431+971088017+970615617+971657836+974538345
820+980476809+988405110+994771644+996654876+994978667+993696053+995505012
810+999632558+1003213247+1003359835+999140932+993033530+989124824+988505530
800+988249093+987128926+988535778+994135756+998389378+994493592+983585404
790+971759358+962735444+957703449+957038231+958963835+959271707+954819818
780+946392236+936866102+928672730+923158170+920403432+919302736+918148831
770+916640273+916686686+919380500+923593648+928796050+936411214+946679227
760+956563198+962575569+964634352+965401091+966443617+967166269+967186231
750+967401092+967574805+965372435+959834607+954205851+953356816+958488496
740+965066829+967526984+966226184+966096924+969127082+971849001+970134767
730+964573120+960075859+960091044+962955571+964878359+965638301+968700605
720+975374520+982990909+988179963+988869857+985521357+982392127+983969448
710+988518143+988804829+981741666+972678013+968351035+968739426+967368455
700+960352808+951547796+946185519+944637344+943852603+942496634+943450068
690+950021359+959959458+966064717+963557047+954103839+944090181+939329379
680+939359505+937735404+929070918+915239360+903281422+897933962+897342100
670+898058262+901930963+911321899+920697587+925106798+926235292+928117484
660+931703623+934544330+935639086+936578314+937034488+932535145+920650072
650+908156603+902673516+903428071+906187831+910211590+917585257+928220414
640+936163227+933929077+924220902+917691677+918268293+917865452+907604602
630+891704220+880957683+879640902+883507603+885467926+883701461+883533994
620+887491439+890057953+886343657+880363677+878850221+881579978+882406050
610+877034466+867257773+859480775+859186190+865237933+871667412+873231078
600+870033636
##END=
