##TITLE=<SNM>
##JCAMP-DX=4.24
##DATA TYPE=INFRARED SPECTRUM
##DATE=29/4/2025
##SAMPLING PROCEDURE=Instrument type and / or accessory
##ORIGIN=Admin
##XUNITS=1/CM
##YUNITS=ABSORBANCE
##RESOLUTION=4
##FIRSTX=4497.3318
##LASTX=599.83466
##DELTAX=-1.4281778
##MAXY=2.0318449
##MINY=0.53753871
##XFACTOR=1
##YFACTOR=1.892303e-09
##NPOINTS=2730
##FIRSTY=0.55182242
##XYDATA=(X++(Y..Y))
4497+291614202+291228220+291829116+292797442+293399881+293260312+292250345
4487+290763775+289683692+289586645+290203417+290680587+290270918+289154864
4477+288604366+289650997+291727754+293326742+293560870+292281623+289569006
4467+286241130+284065877+284320732+286457997+288770867+290110622+290624394
4457+290945615+291046127+290325537+288759023+287324866+286992621+287804179
4447+289325145+291307438+293274423+294229110+293713291+292598844+291993916
4437+291900775+291618013+290995666+290563570+290481611+290145932+289383732
4427+289241800+290519315+292146872+292235730+290516228+288569875+287700864
4417+287687918+287733244+287772208+288320092+289384299+290087062+289561604
4407+288031503+286823600+287225867+289270149+291715910+293188306+293066376
4397+291559300+289681613+288881300+289851800+291672222+292607884+291877876
4387+290330639+289276008+289008932+288822839+288195169+287373815+287006291
4377+287668168+289338973+291114416+292038329+292098333+291593161+290222033
4367+288008856+286221633+286013207+286979013+288086594+289098073+290128262
4357+290956734+291575648+292266787+292827082+292842264+292583599+292530020
4347+292468094+291991175+291259813+290536797+289559021+288024542+286350524
4337+285331895+285163316+285401602+285900506+286956271+288372757+289374598
4327+289631814+289477629+289170740+288730076+288351937+288422966+289046951
4317+289759226+289878510+289270464+288673757+288942092+289993606+290854207
4307+290731804+289790346+288780631+288158190+287822259+287620165+287733150
4297+288356410+289227468+289816773+290037987+290302133+290686792+290727866
4287+290362390+290227702+290541648+290598282+289826569+288542534+287410700
4277+286973092+287664798+289385307+291194768+292204924+292528602+292777724
4267+293043697+292937421+292307735+291375065+290322166+289268007+288491318
4257+288221155+288337322+288520013+288625186+288813925+289345147+290299015
4247+291372672+292082112+292340021+292554967+293067100+293695432+293889809
4237+293165407+291418659+289167023+287437127+287001881+287649647+288541589
4227+289279598+290129049+291183933+291941030+291853055+290921992+289805591
4217+289500749+290542687+292286757+293471761+293661508+293547137+293774997
4207+294130677+294022134+293305260+292436564+292008248+292229934+292769881
4197+293175455+293434782+293747688+293873461+293291275+292080852+291014030
4187+290651042+290887564+291268664+291417651+291365206+291510414+292015240
4177+292487623+292654785+292828846+293281384+293740348+293882092+293926662
4167+294317463+294961859+295277726+295129777+295102185+295505743+295899537
4157+295943792+295876039+295939792+296077913+296142926+295920420+295198759
4147+294150143+293386684+293431695+294217802+295144424+295668307+295707995
4137+295373638+294749244+294168602+294181390+294987152+296188472+297087218
4127+297101487+296215719+295151763+294726565+294979246+295322516+295643328
4117+296662020+298744951+300836071+301395453+300274233+298720414+297649056
4107+296927993+296297426+296042004+296503489+297418299+298098445+298215462
4097+298052646+297909045+297724810+297495533+297510432+297923912+298513847
4087+298936997+298974638+298616784+298076207+297634284+297517897+298052993
4077+299582999+301818320+303610771+303892746+302741099+301196288+300145215
4067+299595945+298897089+297594343+296199812+295828350+296873029+298509059
4057+299625900+299855713+299670187+299779109+300496612+301565576+302576362
4047+303319001+303573099+303071927+301939179+300655648+299558525+298842722
4037+298812389+299548004+300513212+300971578+300737607+300336474+300474941
4027+301356457+302418901+302836917+302349762+301416651+300707306+300674894
4017+301310092+302064480+302279331+301888656+301477412+301619848+302475126
4007+303793903+304874301+304984608+304328464+303976689+304419116+304914272
3997+304699201+304164546+304197084+304842519+305393900+305522413+305515736
3987+305582449+305679717+305853651+306091465+306075054+305608688+305010910
3977+304811430+305362212+306665304+308115430+308664574+307843535+306343641
3967+305191522+304792468+305047826+305760258+306471210+306507118+305793584
3957+305118697+305120934+305517153+305763881+306000088+306698755+307670294
3947+308194082+308153795+308190113+308590774+308775449+308181325+307129339
3937+306370006+306298914+306960255+308270182+309782361+310742749+310960907
3927+311131346+311869481+312743626+312773644+311991726+311629746+312486693
3917+313802951+314030527+312495198+309905488+307489020+306122176+306266092
3907+308423076+312868927+318431556+322666368+324483231+324600342+322903866
3897+318803616+313836213+310964467+311807019+315034825+317423574+317788011
3887+317894791+318835209+319265447+318368591+317598611+317377996+316067439
3878+313739041+312871289+314828321+318490081+322258809+325110114+325863273
3868+324570608+323190849+322927994+322744831+321231707+318917830+317550796
3858+318685308+323494715+331893025+339124695+338229824+331072742+323709629
3848+319112837+317908209+319487039+322545508+326052390+329777242+333216370
3838+334721871+333426843+330741662+328185561+325879621+323512637+321481018
3828+320543088+321010745+323007685+326832639+331660913+334724769+335014744
3818+334628636+333925495+330799902+325427618+320879365+319556839+322102356
3808+327191217+331659653+333832606+335273913+336937032+337126401+335265220
3798+333002370+330726416+327743480+324654016+322921443+323111252+324778246
3788+327083209+328962723+329653516+329773021+330902902+333547766+336256823
3778+337220739+336371729+335264275+335679141+338500049+342830301+346376115
3768+347825549+347881805+347755969+348474512+350969190+355278464+359803912
3758+362699692+364190042+366086439+370149111+376775948+383348009+386706565
3748+388285142+391313467+395950766+398858421+398760398+398393063+400290625
3738+405485321+413085838+419794477+422390360+421008428+418485589+417442360
3728+418946538+423054442+429399052+436806358+443014171+446285791+447505285
3718+449322243+453563638+460405136+468774216+476498712+481381132+483435178
3708+484593188+486876701+491784666+499081223+505978852+509875496+511397628
3698+512541463+514353948+517343751+522041937+528422140+534980562+538777892
3688+538332251+536087797+535052757+535831525+536959485+536768793+536269165
3678+539006256+546236792+553217671+555331030+554629244+553825844+552299239
3668+549679763+547702038+547731331+549513704+552036794+555172655+559974282
3658+566862556+574065310+579574959+584181232+589959122+597029709+602123894
3648+601555031+596728332+592171071+590229505+589809190+588844958+587474397
3638+588129376+592874494+601291578+610361499+616910408+620560703+622825191
3628+623785831+623059728+621793742+621363347+622469132+624958393+627385161
3618+627646850+625756312+624089728+624518107+627214754+631208256+634594845
3608+635523672+634743581+634848219+636727417+638798568+639309851+638625515
3598+638553573+639684242+640798090+641240581+642431727+645945192+651281978
3588+656071383+658327051+658116515+656656750+655418797+655834451+658648524
3578+662633206+665295772+665619324+664674307+664609609+667349850+672907377
3568+678067960+678138894+672281250+665028287+662275888+667202248+677190349
3558+685127018+686884003+684941681+683255001+682854278+683001565+683446890
3548+684995922+688626750+693545929+696366995+694028863+687919546+683354159
3538+684660904+690828745+696072673+696466278+693981994+691708056+689562381
3528+686561648+683941731+683538362+685186802+687550825+689899540+691572172
3518+691424003+689519417+688034075+688924726+691869895+695133641+697289270
3508+698521616+700453291+703788097+706991428+708517340+708857964+708852231
3498+708401551+707486521+706431700+706054159+708192023+713227117+717616302
3488+717574598+713777710+709376933+706354592+705423056+706590137+708975138
3478+711674872+713803034+713511548+710442967+707562747+707981740+712082840
3468+717498246+720411413+718209166+711826821+704492402+698472478+694906915
3458+695421411+699969789+704177292+703132928+697890953+694128020+694847823
3448+697690434+699220567+699907107+702630843+707592356+711779888+713185980
3438+712774169+712148798+712326197+714482267+718419765+720712223+718567808
3428+714443146+711650051+708876989+704014382+699307629+698008191+699587587
3418+701852327+704696701+708578699+712164232+714084694+714349785+713522383
3408+712284745+710892261+709144852+707582465+707383143+708689636+710398365
3398+710876827+709036119+706140843+705608771+708723214+711453249+709100061
3388+703687554+701631145+704928845+708989250+709276831+706889310+705836442
3378+708093118+712491249+716827139+719740874+720705735+720104240+719453041
3368+719873608+720309799+719165775+716438322+713409997+711881691+712687548
3358+714928475+717109366+718874288+720297389+719888161+716413250+712186281
3348+710497144+711215687+712048507+712481296+713411446+714209176+713887702
3338+713517721+714344367+715775721+717303837+719476917+721229491+719711517
3328+714446359+709168917+707952257+711153005+715767594+719084194+720846596
3318+721625742+721080378+718478163+714165393+710309413+709773939+713468458
3308+719335992+724692811+728046075+728574556+727084489+726500760+728308835
3298+729838967+728871965+728408370+731723269+736513304+738476099+737251628
3288+734615584+730834697+726116605+722792445+722922723+725187400+726301123
3278+724753540+722241033+721695480+724246981+728352177+731931789+734528144
3268+736610193+738270603+739605256+741116553+743086530+745470397+747959091
3258+748751971+745433229+738704148+732194297+728011237+725370784+723767008
3248+724516545+728001536+731821733+733507594+733426895+733508854+734477180
3238+735305716+735111244+734509119+734481464+734841428+735067650+735552979
3228+736271711+736620840+736580018+735481792+732543174+729123637+727759187
3218+728588730+729065554+727984212+726798861+726377790+725806093+724359179
3208+722187675+719493674+716506170+713917878+712709282+713371442+715108520
3198+716189358+715681729+714592764+714876880+717694985+721872186+724346076
3188+723452842+720773834+719002739+719119472+719781192+718841907+715630198
3178+711820332+710216115+712154216+716130267+719332780+720169253+719213085
3168+717924231+717000633+715731056+712916731+708608370+704394820+701852768
3158+700876693+700097673+698913016+697988851+697807609+697857061+697650431
3148+697449849+697605640+698267738+699545757+700799081+700492601+698057328
3138+695382856+695082739+697587686+700784592+702102362+700513138+697015737
3128+693441417+690776709+688797157+686848284+684955100+684193845+685207087
3118+687042818+688315671+688282157+686781381+684480418+682601093+681751390
3108+681088600+679640363+678167873+678024366+678700701+678660257+677808223
3098+677005516+676263790+675125814+673859764+672970626+672285408+671411325
3088+670510847+670343464+671391229+672890178+673474538+672630442+671008775
3078+669707132+669565326+670299493+670227928+668131075+665132169+663285666
3068+663139954+663925778+664890387+665589086+666041530+666814250+668007790
3058+668328318+666087139+661542729+657381656+656046310+657230085+658578976
3048+658671770+658429043+659012332+659571618+658345824+655360525+652468777
3038+651057330+651197625+652528561+654561913+656116614+655825821+653731235
3028+650999940+648604671+647144213+646856191+647392169+648086899+648563723
3018+648862391+648895339+648120980+646253562+644171702+643268137+643848906
3008+644796758+644756314+643400872+641555818+640084587+638982960+638066732
2998+637703429+637950944+637862118+636573453+634424816+632642066+632366266
2988+633640127+635024169+634652361+631840871+627596012+623943827+622518837
2978+623279714+624996191+626832615+628526350+629522836+629320427+628018406
2968+625710450+622565202+619737144+618691269+619655878+621766905+624104532
2958+625825609+626101094+624831202+622723199+620074429+616313827+611511634
2948+607585476+606688904+608759487+611617280+613413322+614112021+614416234
2938+614212754+612829656+610636985+609258486+609520868+610275193+609993156
2928+608381946+605974833+603637710+602576968+603192574+603982303+603157484
2918+600840520+598308106+596236893+594635700+593400771+592483787+591951085
2908+591753464+591389531+590423788+589221932+588389743+587855151+587326732
2898+587207353+588046850+589395048+590130159+589765218+588711720+587440946
2888+586092685+584877978+583996903+583064234+581720257+580600234+580568421
2878+581423478+582248171+582467464+581928777+580721441+579407325+578461300
2868+577394383+575370922+572667534+570597770+570001945+570562996+571508832
2858+572241927+572367984+571811658+570958238+570346916+570218276+570402480
2848+570377911+569429492+567309960+564844638+563305686+563037004+563196008
2838+562949690+562268378+561377601+560310496+559326547+558847456+558611343
2828+557823755+556395615+555111674+554598501+554927156+555900522+556939152
2818+557065335+555885781+554241246+553121538+552291175+550674863+548042851
2808+545466402+543929655+543321168+543084929+543052549+543200151+543354304
2798+543524711+543844672+544024907+543605662+542697246+541792736+541052774
2788+540197717+538909807+537215946+535629305+534815006+534855955+534981129
2778+534342970+532885536+531149026+529567677+528385665+527883548+528036410
2768+528131095+527375320+525873725+524526252+523934648+523779203+523405726
2758+522751408+522294775+522147142+521822707+521107692+520413025+519965967
2748+519470087+518830164+518392493+518210558+517820544+516967313+515934352
2738+515052049+514427938+514068352+513724735+512910657+511609046+510503670
2728+510059038+509913861+509495215+508689925+507683990+506626996+505635550
2718+504828497+504291479+504080691+504111434+504019269+503418688+502404910
2708+501552057+501285738+501444049+501563050+501372390+500807717+499804963
2698+498466279+497222656+496414689+495869923+495233780+494520276+493962754
2688+493563353+493207483+492953259+492774442+492376995+491706361+491144428
2678+490819175+490326413+489512524+488871341+488764876+488829984+488520448
2668+487825529+487141414+486697978+486295176+485530299+484297764+483013886
2658+482158230+481705219+481330860+480961950+480644351+480187749+479507666
2648+478944190+478748868+478696171+478532725+478312141+478098204+477791881
2638+477297576+476637714+476006989+475722369+475865561+476035684+475749646
2628+475045404+474427278+474166565+473876212+473031077+471789281+470861336
2618+470544714+470348195+469694444+468642616+467779180+467585118+468001590
2608+468573036+468941599+469021826+468741489+468070918+467326137+466905066
2598+466693679+466203248+465270862+464228798+463476993+463234203+463531674
2588+464103497+464390259+463927767+462726699+461238491+460111130+459840747
2578+460378867+461135775+461535742+461502921+461312607+461095299+460584174
2568+459422857+457822734+456702554+456843258+458018686+459255285+459843204
2558+459807390+459525164+459239473+458945655+458542569+457995283+457317467
2548+456503232+455661751+455098495+455017890+455261122+455519598+455629087
2538+455537836+455272303+455046743+455131064+455541867+456012171+456184877
2528+455818392+455020946+454274117+454008396+454187685+454452745+454552469
2518+454503552+454447201+454443358+454399859+454251029+454102450+454036430
2508+453961054+453870716+453964991+454289425+454596252+454692291+454595842
2498+454347823+453959258+453503224+453096074+452800902+452545702+452173421
2488+451699936+451393740+451402874+451537467+451570320+451491164+451455351
2478+451722174+452461506+453379025+453817452+453435313+452506832+451494503
2468+450652612+450075781+449882349+450210846+450976731+451696534+451820323
2458+451347311+450871842+450906364+451366651+451787785+451841238+451532490
2448+451066502+450671606+450488253+450469543+450428658+450315012+450309310
2438+450487749+450614436+450514901+450399805+450524287+450775992+450872818
2428+450736367+450476662+450258787+450299766+450771550+451621442+452565451
2418+453213469+453211642+452520503+451635081+451253949+451598480+452231851
2408+452626369+452730377+452861001+453206413+453633911+453940863+454087930
2398+454135807+454129697+454157604+454375353+454845058+455391998+455700305
2388+455604927+455258350+454919962+454577227+453869047+452418668+450218626
2378+447703820+445453822+443758826+442498289+441490999+440730343+440077758
2368+439169720+438036310+437212877+436853228+436576451+436510462+437502411
2358+439958126+443285310+446776600+450348935+454044241+457315074+459246339
2348+459215471+457370574+454854886+453115540+452465506+452065318+451364131
2338+450698190+450551093+450886362+451441775+452227693+453319871+454414474
2328+455013355+454965445+454639310+454668919+455498935+457028658+458708912
2318+459970489+460535823+460512641+460337131+460463723+460996142+461720890
2308+462486366+463368418+464415521+465410243+466072215+466404807+466647818
2298+467014869+467629625+468501565+469428943+470145345+470595836+470864959
2288+470945091+470835948+470754493+470968651+471436593+471803739+471837064
2278+471712173+471741561+471977768+472234543+472342331+472242607+471926299
2268+471370666+470603238+469897137+469729628+470320728+471358288+472362585
2258+473171969+473936280+474780565+475624535+476293908+476664582+476681214
2248+476427714+476223352+476407964+476942493+477414592+477447823+476957896
2238+476121612+475222268+474471880+473984283+473833059+473944501+474086527
2228+474178944+474383085+474739207+475041277+475169508+475231245+475338182
2218+475473499+475570074+475621605+475725015+475999650+476468032+477078693
2208+477805520+478612385+479340881+479783183+479956582+480198522+480807828
2198+481676430+482444677+482946574+483380150+484059509+484998542+485763671
2188+485929731+485688295+485698627+486297601+487187465+487940372+488473736
2178+488949363+489475482+489998136+490330256+490310286+490061164+489943675
2168+490120035+490403899+490667037+491056169+491660940+492295099+492734030
2158+492948030+493066654+493231013+493473299+493731492+493980015+494253169
2148+494559209+494914826+495379303+495891562+496188656+496082411+495766419
2138+495692114+496127643+496933280+497791550+498508896+499017218+499312012
2128+499541164+499926862+500465014+500921710+501197353+501483359+502021133
2118+502837321+503685795+504177864+504077510+503590544+503297419+503675873
2108+504662689+505753859+506486418+506657550+506239974+505491004+505027346
2098+505292154+505997814+506520689+506713050+506892087+507175542+507285251
2088+507039878+506728768+506790694+507233090+507605590+507536955+507091756
2078+506631595+506510168+506807734+507232838+507452791+507511820+507637026
2068+507782486+507752247+507587699+507458052+507391999+507474714+508032710
2058+509205177+510505686+511193581+511031175+510434531+510002309+510077496
2048+510582322+511171658+511724330+512528423+513659313+514559822+514771271
2038+514643703+514768122+515225952+515859795+516729815+517865618+518964347
2028+519696372+520155336+520797117+521959411+523542020+525183940+526620302
2018+527776359+528712178+529633824+530810102+532357118+534124938+535743707
2008+536834562+537359075+537683950+538130787+538641818+539033470+539299317
1998+539530264+539816648+540274825+540942340+541746685+542748526+544128222
1988+545759779+547175131+548105722+548770025+549563660+550745168+552430714
1978+554596548+557005362+559343304+561505359+563590306+565592222+567308826
1968+568639006+569790968+571108990+572770723+574621636+576296410+577675728
1958+579104561+580846364+582633713+584188477+585789481+587883058+590534221
1948+593575461+596906991+600380831+603548317+605757620+606780312+607282524
1938+608263449+610131119+612590834+615248675+617971214+620634535+622935687
1928+624751637+626456271+628495167+630748945+632780911+634602405+636471839
1918+638028241+638516530+637974946+637375656+637589531+638650651+639878965
1908+640726715+641421508+642432987+643637299+644489333+644813263+645063613
1898+645771069+646927503+648067622+649027947+650272704+651891410+652779730
1888+651922845+650055490+648725625+648504317+648923561+649332663+649341168
1878+648993866+648701497+648704458+648981455+649798526+651356314+652533475
1868+651308940+647464993+643111527+640068712+638483898+637505556+636415016
1858+635187772+634156890+633314054+632267360+630915257+629687258+629062580
1848+629309276+630453742+631731130+631462386+628972684+625743965+623359972
1838+621946950+620684051+619237704+618525965+619502921+621238802+621324919
1828+619147304+616530726+614448362+612161510+609414277+607092651+605774062
1818+605226052+605143022+605602836+606755869+608254314+609186039+608982748
1808+608208138+607854284+608323737+609478975+610988759+612216570+612450981
1798+611846400+611724753+613598533+617711981+621878032+622939467+620951851
1788+618946091+619006694+620981837+623648372+626099897+627962213+629222592
1778+630556112+633210236+638115303+644731997+650122015+651095696+648433823
1768+645348422+643757246+644152362+646330229+649045649+650703918+651596395
1758+653149963+655287575+657286719+660050899+664909664+670791436+674450172
1748+674455085+672772437+672055280+673594799+676967592+680416107+682281888
1738+683399012+686808847+693937392+700911657+701941026+698330735+694576055
1728+692493817+692449971+694362180+697361653+700782135+705471186+712682445
1718+721421821+727481307+728037948+725459610+723501098+724120484+727446974
1708+732606045+738306638+743312374+747846012+753900710+762430747+770262589
1698+773696741+773851210+772841747+771641151+771641025+773791363+777466730
1688+782054230+789012430+799316776+807617567+807233664+802293129+800194827
1678+803938546+812578450+821815943+827307575+829926042+832754227+835068041
1668+834327386+832203759+832198846+834564885+836779542+837540356+838484491
1658+841436464+847123828+856029705+866642168+872205869+870958403+870065800
1648+872328209+873748160+869496686+862365999+858043150+858419871+862821152
1638+869701930+875362267+873973059+865963502+858540258+855023958+854186603
1628+854249222+854771530+855669551+855497821+852790906+848995089+847027064
1618+847586981+847915699+844682633+838946007+833970949+831167964+830076920
1608+829511711+828541433+827178242+826459951+827454420+829883078+832061449
1598+832471496+831179744+829667755+829341494+830163352+830991761+831267184
1588+831560120+832222848+832784528+833267589+834760175+837954435+842223863
1578+846360872+849018083+849241407+848120439+847731181+848288074+847869018
1568+845416233+842650730+841282563+841841157+845355441+853356367+863928008
1558+867981924+862157983+853554618+846359927+841921730+840666768+841529826
1548+843256887+846040847+850685611+857393903+866005143+874257616+875444856
1538+868463851+861762111+859886062+860755042+860457318+859066220+859905276
1528+864024772+868830871+871481719+872616735+874561135+877793823+881396996
1518+885009933+888115367+889890873+890895800+892959201+897594831+905318885
1508+914709838+920049396+916246586+908332722+902633263+900982806+903530213
1498+908977243+913828448+915532011+915933554+918127863+922526120+926599628
1488+927756567+926511054+925357265+925947736+928154455+930973442+934231455
1478+939065147+946582445+956658994+967297286+974149589+974343116+971714254
1468+972032388+976273468+980000178+978972635+975785116+975705739+980151181
1458+985981359+987623563+983802484+978693936+975005592+973790255+976020157
1448+981034209+985597833+987257740+987492403+988992423+991982258+995113457
1438+997867558+999805973+999601863+997939878+997641588+1000065773+1003658740
1428+1005846371+1006109321+1005024261+1002428725+998843254+996441118+997125328
1418+1000180868+1002995508+1004116287+1003845589+1003283530+1003259906
1410+1003609917+1004222751+1005972176+1009083658+1011669682+1011706724
1401+1009675325+1008174234+1009901925+1015189447+1020660605+1021956578
1392+1018765594+1014448540+1011228704+1008747947+1006086201+1003958101
1384+1004207002+1007586851+1012917337+1017945437+1021169620+1023044031
1375+1024626010+1025211819+1023649117+1021789006+1022796453+1026985623
1367+1032195029+1037516065+1043931736+1051076029+1056089074+1057022562
1358+1055239560+1053087522+1051073888+1048399416+1045503699+1044425443
1350+1046223942+1050040927+1055000550+1060573322+1065052278+1066226415
1341+1064292409+1062371380+1063029320+1065469569+1067044619+1066608554
1332+1065816430+1067420962+1071538316+1073741823+1069892458+1062768891
1324+1059141023+1061788658+1067667028+1071399471+1069952179+1065189863
1315+1061369981+1060204285+1059809169+1058961734+1059565245+1063125453
1307+1067837120+1070912379+1071407409+1069518130+1066024446+1063580291
1298+1065133418+1069452866+1071407661+1068417574+1062856960+1057694992
1290+1053650336+1049753787+1044911275+1039363135+1034735443+1031791092
1281+1028812093+1023703357+1016854267+1010401617+1005837804+1003028707
1273+1000474497+996782561+992208102+987790127+983540290+978925954+974233438
1263+970102540+966429630+962513173+958108931+953693854+949300763+943794579
1253+936508542+928363731+920380445+912358604+903702699+894486184+885442344
1243+877406329+870933016+865829319+861083067+856184047+851871025+848780143
1233+846342288+843802503+841333590+839411617+838029653+837150342+836926136
1223+837014961+836788928+836346753+836478606+837658790+839691071+842222162
1213+845018785+847944552+851066869+854744189+859269070+864046758+867424968
1203+868332817+868083097+869371322+873734993+880453554+887372696+892431917
1193+894991482+896225655+897818092+900281020+902978990+905607852+908821704
1183+913252278+918704285+924625682+930711564+937059954+944268316+952927370
1173+962251484+970138574+975514985+979371405+982994800+986485901+989083013
1163+990417477+991277637+992737339+994504592+994924719+993654196+993431124
1153+997168103+1004131154+1010455857+1013610807+1014203230+1012573184
1144+1008297393+1003947140+1003607397+1007288875+1010869495+1011936411
1135+1012072989+1012772507+1013102233+1012132080+1010816893+1010725736
1127+1012565940+1016371899+1021855027+1028007560+1032598461+1033553999
1118+1032375137+1032965481+1036816673+1041838285+1044406985+1042409919
1110+1037566967+1034209797+1033698829+1032106581+1026936549+1022231559
1101+1022304510+1024910693+1024908614+1022242521+1020536690+1021381731
1093+1023804467+1026007785+1026955826+1026529840+1023799364+1017180528
1084+1007902906+1000838430+999453253+1001545319+1001963618+998993691+995124545
1074+991773486+987922483+983950085+982642710+985979721+992289872+996675656
1064+995594691+990695545+985818764+982068745+978213207+974318106+972489368
1054+973969355+976704367+977123423+974875062+973302469+974312499+976177020
1044+976757221+975692384+973339764+970182105+967725792+967554125+969562467
1034+972311024+973692924+972825394+971233902+970427667+970325927+970054032
1024+969083754+967990568+968645358+972331750+977136652+979711841+980335195
1014+981369227+981261124+976005794+966032686+955858240+947975811+941953052
1004+937346338+934017769+930719061+926131246+920376224+913765199+906150445
994+898494112+892396513+887703367+883136908+878869433+876255501+875356220
984+874417376+872309310+869832900+868176144+867345592+866027507+863245059
974+859654485+855987308+851605367+845810027+839211035+833115325+828395532
964+825339865+823948893+824023670+825218722+826998512+828919414+831393871
954+835280845+840136775+843917977+845319029+845580718+847253223+852015162
944+859730082+868493081+875953556+881423958+886255382+892211365+899743845
934+907942519+915911883+923513786+930478223+935759445+938549139+939116300
924+937989474+935187307+930946228+926441569+923401715+922990912+924897199
914+927300217+928295128+927794302+927266325+927411218+927424888+926724362
904+925583991+924462646+923998800+924645085+925832199+926639820+927293035
894+928633169+930619840+932556618+933975498+934464795+933763388+933149293
884+935030571+939969342+945585708+949190455+950825037+953107479+957424281
874+961417215+962277124+960835439+960344126+963060365+967772535+970389050
864+968400741+963305360+958479794+956513156+957967251+961447832+965313450
854+969036821+971937200+972960207+972967956+974160488+976216015+976028536
844+972399030+968151714+967118375+971047746+978009096+983536826+985055934
834+984161629+984020768+985767799+988090622+990419241+994248321+1000276308
824+1006100564+1008516182+1007720089+1005663743+1002429481+999049821+1000091916
814+1008341428+1020059488+1028282352+1029413462+1024308379+1015717046
805+1008413056+1007906560+1015575177+1025640576+1029484712+1024764792
797+1016661496+1011297244+1010564590+1012093652+1012383626+1009488980
788+1003922319+997449447+991806307+986585058+979850056+971162463+962141554
778+955284401+951998355+952248011+954087018+954319288+952004276+949325017
768+948375779+948974565+950329377+952687919+956596816+961757840+966647914
758+969386265+970312068+972357704+977474819+983604043+986284815+984350116
748+980933477+979082060+979495320+981461959+984061338+986739590+989529283
738+991955169+993254103+993814146+994433217+994869155+993894089+991408923
728+989303376+990346416+995012221+999623786+999340993+992709872+983851495
718+979772129+984056298+994374125+1004988038+1011357280+1012636811+1008813401
708+999923778+989320511+980928500+975243531+972260500+972629158+974442588
698+973771419+970454630+968482637+969935472+972235931+972224403+970956778
688+970039039+967808948+962749916+957047118+952172793+947167561+943256396
678+942609228+943963725+943195100+938237556+930519360+921119021+911097594
668+906153028+913446498+927657410+936653309+937101532+935263093+937377270
658+942555429+946491981+948195797+950443338+953982317+955168927+951164464
648+944429336+939855002+938451242+936649907+933489225+934111068+941796757
638+951989283+956345017+952374383+945825663+940296044+933259790+925246202
628+920895633+918883574+911627650+898866424+890263247+889925710+892471920
618+892491449+890247309+889039028+890866506+894183736+893688454+887132048
608+881304075+882605025+886312836+884545457+880715873+883982138+895273457
##END=
