##TITLE=<SNM>
##JCAMP-DX=4.24
##DATA TYPE=INFRARED SPECTRUM
##DATE=29/4/2025
##SAMPLING PROCEDURE=Instrument type and / or accessory
##ORIGIN=Admin
##XUNITS=1/CM
##YUNITS=ABSORBANCE
##RESOLUTION=4
##FIRSTX=4497.3318
##LASTX=599.83466
##DELTAX=-1.4281778
##MAXY=2.2215343
##MINY=0.68506807
##XFACTOR=1
##YFACTOR=2.068965e-09
##NPOINTS=2730
##FIRSTY=0.69993013
##XYDATA=(X++(Y..Y))
4497+338299648+339285518+339956218+339618232+338466163+337251868+336491456
4487+336323327+336619454+337216260+338273547+339957169+341617946+342245375
4477+342049762+342430386+344099114+346282743+347762398+347725033+345765105
4467+342114583+337975922+334941507+333691172+333420281+332856433+331742508
4457+331116317+332330872+335770455+340034751+342612199+342395297+340981873
4447+340312959+340476421+340794990+341238619+341664328+341207044+339329163
4437+336644230+334622132+334640800+336493473+337926198+337093246+335144351
4427+334663847+336356371+338650137+339952992+340264128+340387834+340453316
4417+340082229+339456384+339148704+339119665+338869632+338214085+337254518
4407+336457173+336735986+338292935+339868092+340225985+339598440+338907775
4397+338680156+339083625+339939797+340607559+340483422+339604490+338591137
4387+338105332+338420040+339211796+339666170+339047355+337432154+335831444
4377+335198368+335394182+335584926+335385222+335024938+334803628+334916242
4367+335566027+336744226+337822716+337804192+336411972+334717144+334223964
4357+335484325+337679968+339220467+338977147+337530219+336794670+337839454
4347+339573175+340048666+338684910+336620635+335351804+335607944+337109379
4337+338812360+339466351+338436289+336384229+334905756+335002237+336211318
4327+337315967+337497636+336781072+335671871+334623486+333902715+333677545
4317+334088562+335269555+336923964+337984190+337598295+336550831+336533402
4307+337788059+338726596+338227424+337024479+336283312+336127628+336018500
4297+335434831+334235689+333218561+333711223+335925851+338485149+339929714
4287+339906725+338837280+337330573+336055030+335552026+336119274+337706127
4277+339525208+340245834+339328040+337819893+337102349+337250802+337408819
4267+337429849+337888314+338505545+338131663+336713919+335751038+336089428
4257+336767215+336739414+336323270+336321772+336892649+337785466+338819937
4247+339726698+340062754+339584554+338510097+337476491+337229713+338001562
4237+339089963+339544481+339314154+339081810+339176447+339478941+340061140
4227+341074638+342002228+341828510+340299160+338319180+336973717+336626656
4217+337043060+337926227+338828263+339032979+338279510+337328730+337175121
4207+337935388+338983370+339789098+340171392+340083496+339539094+338691766
4197+337738825+336706716+335462142+334101094+333243884+333536641+334883400
4187+336608017+338101817+338855458+338376856+336890517+335687630+335775699
4177+336657107+337204794+337230059+337383956+337966732+338720604+339485798
4167+340264675+340773902+340639364+340056906+339756544+340193028+340992504
4157+341322193+340756386+339570323+338300397+337354139+337003477+337302542
4147+337943426+338483650+338544207+337727215+336007956+334312551+333933599
4137+335213492+337224989+338628819+338616143+337452550+336496901+337116754
4127+339113125+340697097+340422836+338778942+337328672+336745320+336351185
4117+335324464+333749596+332437955+332274234+333545542+335473551+336880895
4107+337618634+338521880+339833752+340648065+340014787+338111699+336208610
4097+335582708+336443460+337899521+338954359+339256882+339006964+338562126
4087+338107694+337637792+337382833+337731939+338386651+338482210+338009513
4077+338032532+339086794+340297287+340341221+338860529+336873088+336012681
4067+337010045+338688021+339112203+337897965+336323673+335311731+334770699
4057+334775856+335686189+336995007+337651390+337565712+337549953+337942878
4047+338451471+338973316+339590604+340004502+339714972+338758142+337904303
4037+337926313+338753014+339599737+339909001+339786419+339531892+339234353
4027+338933847+338858512+339218047+339785929+340010523+339609157+338881819
4017+338414279+338541816+339089905+339511581+339511581+339530278+340227195
4007+341574127+342771599+343034624+342275711+340886862+339035428+336735151
3997+334578602+333519874+333741616+334528042+335376176+336413384+337717333
3987+338994317+339987908+340635245+340779664+340313823+339647531+339463067
3977+339811770+339910326+339215858+338200286+337712032+337990874+338500014
3967+338645960+338444297+338481346+339190276+340246007+341031281+341455895
3957+341824765+342167015+342252837+342100207+342005253+342044174+341859566
3947+341217819+340624009+340868654+341933547+342878278+342939123+342147482
3937+340944854+339976183+339970075+340947015+341763258+341297158+339944061
3927+339089329+339451371+340438163+341045397+341060723+340948513+340998698
3917+341019498+340608337+339699819+338984148+339362034+340628244+341442442
3907+341272411+341330548+342805881+344931605+346046597+346019084+345860433
3897+345862767+345490066+344592178+343736208+343245189+342643341+341843548
3887+341789071+342961680+344283520+344781511+344898446+344910891+344186405
3878+342815504+342107553+342855231+344679527+346972861+349070237+349761305
3868+348587774+346811012+345750182+345318941+344666995+343637105+342790008
3858+342761948+344249093+347669461+351224395+351425107+348739453+346165289
3848+345088700+345285667+346033085+346742995+347146204+347527548+348498092
3838+349841596+350284677+349359017+348079584+347326087+346976894+346707848
3828+346495612+346168862+345731658+346186522+348536868+351580646+352957568
3818+352490979+351261270+349566067+347402172+345201890+343603946+343281545
3808+344547381+346632455+348362776+349633710+350875461+351814027+351990827
3798+351497417+350384269+348824871+347683260+347711637+348610619+349694958
3788+351080667+353292501+356038999+358518640+360664328+362847555+364787461
3778+366099477+367489882+370019074+373859476+378517331+383466933+388106437
3768+391805531+394224126+395217342+395157276+395229183+396556669+398990418
3758+401239760+402702274+404304108+407428579+412547261+417877314+420530357
3748+420611569+420885196+423420064+427624726+431579787+435279025+439851951
3738+445387210+450968045+455960372+459943608+461973369+462002437+461841856
3728+463224483+465775196+467796055+468987275+470341294+471397631+470303612
3718+466855732+463358415+462330427+464553438+468407611+470859855+470853056
3708+470096994+470114914+471139474+473084393+475714618+477872925+478322171
3698+477589704+477569077+479425870+482535130+485404873+487000484+487099356
3688+486226618+485313721+484812907+484303162+483013387+481118480+480301574
3678+482273170+486528651+489605616+489314416+487697141+487077864+487112723
3668+486119968+484042614+482276599+481691201+482059034+482899908+484111698
3658+485487497+486377808+486735384+487923118+491039033+494824698+496144780
3648+493615933+488929644+484204405+480915464+479716350+480087985+481026119
3638+482220364+483786157+485216751+485876244+486249435+487428238+488967960
3628+488834632+487287075+487026354+489290677+492680796+494846881+494603215
3618+492569478+490390083+489455061+490094331+491780114+493837128+495500382
3608+495802530+494457615+492776038+492616264+494735563+498180706+501015216
3598+502079360+501912729+502011832+503437066+505864736+507898416+508310671
3588+507008911+505066153+503909072+504351116+506358233+509144689+511524998
3578+512810797+513182548+512770695+511110552+508530771+507028674+508428039
3568+512038373+515080882+515967045+515432524+514433719+513061953+511196288
3558+509412670+508872906+510108924+512237154+513719776+513984069+513634905
3548+513201273+512853434+513044149+513958660+514487707+513454216+511735360
3538+511085028+511524479+511837229+511585151+510979184+509920744+508640533
3528+508110046+508819725+510020826+510453018+509543347+507903198+506535639
3518+505600732+504547477+503529025+503674913+505550201+508125545+509715279
3508+509507855+507993543+506465806+506130988+507103520+508425561+509252204
3498+509373087+508675219+507358479+506451171+506777173+507939958+509188998
3488+510257693+510683547+509841059+507997288+506046924+504355380+502819979
3478+501772372+501826417+502768700+503246812+502110819+499802130+497874986
3468+497267406+497412545+497186799+496339010+495596316+495628928+496101279
3458+495854098+494258314+492213745+491413837+492572013+494734123+496251719
3448+495990480+493815406+490484577+487106328+484701071+484058517+485257198
3438+487189412+488466281+489018145+489635866+490007674+488915470+486360753
3428+483892693+482872684+483386520+484524299+485130266+484611936+483464823
3418+482918317+483847924+485962095+488096317+489263021+489088323+487539556
3408+485205285+483399138+482977606+483417230+483614687+483194336+482591307
3398+482204231+482034373+482220911+483120614+484388436+484940761+484487482
3388+483994215+484148458+484581283+484749527+484484774+483847405+483459522
3378+484310134+486361905+488320162+489341554+489708580+489666691+489125833
3368+488553688+488819824+490162666+492130142+494101248+495528212+496308069
3358+496850253+497275415+497114315+496346154+495789739+496086817+497237099
3348+499007465+500875262+501884842+501470339+500388680+500154290+501395494
3338+503132671+503705969+502331783+499606921+496666625+494216023+492451016
3328+491517952+491557133+492403539+493480070+494171254+494210146+493744824
3318+493387824+493972588+495826269+498213837+499793948+499802879+498590196
3308+497129930+496329618+496419271+496590742+495685912+493782564+492428026
3298+492812741+494494259+496259901+497443717+497888642+497531123+496783186
3288+496641907+497673439+499272103+500379173+500545919+500018946+499318774
3278+499065313+499639532+500706500+501331538+500853252+499581223+498414174
3268+497776402+497404825+497166690+497456162+498623672+500362694+501792711
3258+501963029+500632691+498681117+497081531+495817626+494545309+493567131
3248+493452644+494208475+495350461+496499303+497440490+497858507+497522019
3238+496742680+496248550+496380091+496695549+496636779+496160164+495259655
3228+493642149+491494214+489753349+489224647+490071687+491943864+493809241
3218+494457154+493795586+492662877+491438440+490043512+488902621+488525282
3208+488520327+488185798+487482630+486635186+485570063+484362278+483492882
3198+483280705+483608925+484071654+484132383+483574066+482732874+481889954
3188+480883169+479684689+478705416+478142260+477702463+477104649+476254642
3178+475080419+473784277+472986587+472884545+472629327+471312846+469170183
3168+467271675+466537941+467243068+468740354+469656564+469161050+467860299
3158+466823783+466355234+466234266+466312857+466254576+465354182+463253234
3148+460502847+458113665+456838842+456956901+458268859+459982932+461006023
3138+460891738+460266671+459919552+459798008+459219985+457909554+456423389
3128+455374024+454628305+453803333+453172158+453218079+453611206+453541171
3118+452832962+451893186+450902735+449912170+449311936+449383699+449733641
3108+449866824+449999662+450536055+451029927+450630808+449359442+448025070
3098+447114190+446499753+445979694+445540877+445273530+445300928+445621830
3088+446065660+446606116+447412967+448388696+448991869+448768398+447863798
3078+446754338+445624365+444395780+443305795+442821949+442905783+442944329
3068+442554516+442018641+441764316+441777885+441679618+441244833+440717630
3058+440443830+440298403+439835011+438894170+437738183+436722726+436066632
3048+435856413+436117307+436794720+437570602+437933680+437682236+437142472
3038+436662141+436153232+435368880+434448291+433823109+433532196+433129332
3028+432515846+432212488+432423802+432600228+432388770+432254060+432635979
3018+433179921+433310713+433090181+433017294+433216133+433243819+432639206
3008+431383598+429879571+428625375+427806337+427258708+426951634+427110775
2998+427583731+427636825+426855960+425790519+425284116+425514674+425906879
2988+425792795+425047970+424055762+423127164+422208879+421222548+420423274
2978+420193119+420547440+421090632+421514440+421857122+422183844+422320888
2968+422020642+421230356+420154631+419082305+418179808+417560445+417407671
2958+417687031+417936430+417808807+417597465+417798781+418380635+418783355
2948+418562131+417865445+417143868+416517130+415867691+415451603+415665250
2938+416184445+416123053+415194340+414125298+413750955+414069611+414387431
2928+414213886+413663117+413014830+412388149+411860197+411461827+411176590
2918+411167487+411577841+412018963+411831071+410918491+409839914+409101686
2908+408711123+408377948+408021034+407959556+408458642+409250973+409793013
2898+409845906+409520481+408962049+408285875+407648420+407136456+406715846
2888+406363311+406079774+405820926+405641994+405807357+406403500+407013759
2878+407172813+406941766+406707463+406637630+406575374+406299989+405746829
2868+405055847+404492777+404297856+404520434+404883340+404946230+404603259
2858+404220014+404137966+404307737+404456766+404324936+403771690+402983334
2848+402469844+402579404+403052014+403228498+402770954+402064704+401729944
2838+401796118+401677627+400997708+400065912+399432347+399267588+399345862
2828+399432174+399394002+399048871+398361519+397770792+397770072+398157696
2818+398258873+397854453+397336671+397033975+396900215+396792009+396677522
2808+396585939+396503689+396324412+395911609+395286484+394742082+394663030
2798+395164248+395902476+396322913+396147237+395540262+394847321+394336481
2788+394118772+394111253+394087745+393890865+393574888+393282939+393031610
2778+392715893+392311243+391915437+391563075+391187954+390822484+390584062
2768+390414204+390163739+389968185+390116061+390505212+390637675+390201998
2758+389372791+388559630+388041588+387739642+387275991+386436528+385552469
2748+385197428+385528586+386143484+386584433+386737264+386636318+386203579
2738+385486669+384876525+384709001+384827031+384850568+384716434+384651412
2728+384735246+384762816+384544358+384177794+383945651+383999236+384184045
2718+384138383+383617806+382807843+382209050+382079957+382155177+382073821
2708+381847181+381655688+381461170+381157927+380892741+380847281+380817147
2698+380407513+379647620+379054243+379005008+379320178+379573235+379597809
2688+379489113+379250460+378770100+378167590+377792844+377780629+377945416
2678+378122994+378233044+378122303+377769221+377433049+377243141+377024769
2668+376792512+376884153+377386667+377901367+377983645+377457249+376405666
2658+375255758+374654228+374850647+375381682+375668590+375699790+375823985
2648+376143879+376423498+376430874+376180639+375875150+375642085+375368141
2638+374907141+374375127+374019653+373864460+373717189+373493545+373338928
2628+373399167+373598035+373729778+373714221+373649805+373644273+373714596
2618+373852879+374064423+374283601+374367291+374292503+374240099+374298121
2608+374231802+373816695+373249476+372917194+372881327+372865712+372699542
2598+372545213+372602111+372746098+372673614+372339373+372006227+371882205
2588+371952239+372128204+372362795+372670359+373101024+373589536+373891684
2578+373847088+373611085+373454682+373430828+373397323+373292632+373172873
2568+372985125+372576211+372001934+371549087+371376550+371408010+371567294
2558+371815685+371994617+371931727+371692584+371505153+371450647+371400404
2548+371283210+371244778+371418496+371687802+371849362+371871516+371832077
2538+371771089+371732427+371789526+371946852+372107202+372163639+372069491
2528+371828130+371495848+371240227+371298305+371705635+372113454+372092999
2518+371623011+371119172+371008228+371350536+371825393+372111869+372299876
2508+372698995+373228215+373417893+373116436+372695711+372432138+372197720
2498+371871833+371575735+371421147+371383205+371387930+371304442+371044153
2488+370801899+370892128+371289115+371660952+371815425+371785752+371630443
2478+371465455+371502705+371812775+372206968+372449020+372414276+372078624
2468+371617451+371453989+371860915+372518190+372818264+372606490+372234883
2458+371965722+371804161+371804910+372017952+372226558+372186427+371984937
2448+371849737+371837061+371944201+372255309+372753588+373175725+373212111
2438+372779170+372079661+371501552+371435292+372003749+372874269+373478161
2428+373538401+373266876+372985039+372764478+372556477+372454062+372601419
2418+372913967+373108629+373065156+372989274+373127067+373485479+373939507
2408+374409006+374797898+374972969+374943239+374898066+374997860+375247403
2398+375548744+375778294+375943945+376381841+377662657+380255863+384417109
2388+390338840+398193073+408055864+419933436+433805881+449562400+466947258
2378+485548053+504742226+523789819+542214332+559920985+576601003+591208220
2368+602464671+609586351+612321355+611390423+608838011+606350533+603211629
2358+596896368+585665096+569826874+550955534+531792994+516150615+507115447
2348+505916938+511915416+522202505+532288104+539415776+543993341+547626260
2338+551707389+556546539+561040096+563975091+565240782+565306928+564511802
2328+563222372+561713534+559707050+556741921+552897947+548603574+543913943
2318+538670144+533126271+527682019+522288874+516654080+510694436+504399284
2308+497669463+490616176+483612094+476850640+470201023+463586323+457235800
2298+451463126+446341419+441709435+437430734+433489098+429825353+426301013
2288+422888885+419717686+416908845+414558700+412789919+411560844+410531415
2278+409373815+408087093+406839811+405732972+404866947+404355704+404106190
2268+403808537+403280037+402675539+402258991+402042262+401740114+401124438
2258+400353483+399788972+399530643+399359489+399117724+398864609+398651567
2248+398432418+398241703+398206412+398305025+398332163+398197625+398046695
2238+397964993+397822504+397592724+397559796+397946210+398523540+398836607
2228+398695904+398277080+397850939+397546745+397284065+396883189+396319341
2218+395821062+395620235+395675923+395724552+395519029+394981397+394243226
2208+393572728+393177239+393091302+393289997+393763875+394380587+394842020
2198+394951263+394851296+394869187+395137657+395464494+395613148+395660135
2188+395951048+396659978+397520183+398086999+398211626+398168442+398313610
2178+398703884+399131264+399442257+399638705+399733140+399780963+400002994
2168+400551170+401194329+401550349+401573137+401542513+401661552+401898015
2158+402135804+402294513+402321247+402197830+402020367+401971219+402088010
2148+402162741+402045892+401923799+402092764+402595278+403237861+403816718
2138+404214598+404432451+404605939+404883657+405262177+405606386+405809143
2128+405869843+405858205+405890816+406116390+406595483+407186469+407666627
2118+407957770+408140332+408324162+408621470+409127066+409804767+410501021
2108+411109206+411588443+411870943+411966560+412107003+412548730+413265295
2098+414024381+414688628+415262329+415738396+416080156+416295186+416417855
2088+416464698+416458216+416467319+416597046+416896342+417291168+417700629
2078+418157913+418663884+419037075+419110048+418976519+418915012+419188149
2068+419917130+420955317+421926177+422558332+422931004+423318599+423877492
2058+424498872+424917667+424966239+424703040+424334574+424147979+424412848
2048+425132092+426038391+426990324+428085467+429260842+430182698+430703823
2038+431101328+431730544+432653150+433644609+434459440+435108620+435904438
2028+437158058+438805121+440393732+441481960+442040536+442474196+443286089
2018+444673844+446355853+447859851+449058273+450253469+451687116+453236171
2008+454710583+456181250+457792129+459449247+460981680+462457273+464008201
1998+465512833+466866017+468379752+470361489+472432101+473898677+474763463
1988+475651700+476865938+478226929+479645912+481152446+482503757+483447364
1978+484282362+485575018+487421151+489440772+491361290+493229663+495143901
1968+497081358+498973413+500824270+502709641+504623014+506466785+508278463
1958+510288692+512662143+515300406+517885315+520078193+521855069+523632522
1948+525835137+528494891+531490443+534771433+538024824+540667351+542564418
1938+544204510+546007545+547985392+550090345+552433605+555030383+557597431
1928+559764898+561520744+563352473+565744708+568558590+571187923+573301460
1918+575067793+576752654+578473871+580292117+582228019+584201315+586101378
1908+587907985+589700361+591528921+593287072+594812561+596124520+597403578
1898+598754140+600110867+601280452+602087390+602678376+603486178+604612376
1888+605578109+606076330+606503221+607334473+608386921+609065544+609257526
1878+609584911+610567007+611952082+613309328+614742802+616306550+617166323
1868+616352356+614266475+612222828+610947745+610373641+610202920+610262842
1858+610544766+611036131+611448790+611289419+610446816+609436487+608760284
1848+608397061+608165322+608089497+608117096+607915319+607185646+605809387
1838+603857755+601790485+600336153+599957719+600517188+601211656+600919534
1828+599314416+597233548+595499539+594140392+592786373+591297182+589822741
1818+588532448+587423304+586391311+585512409+585024328+584855335+584553590
1808+583952233+583419441+583300229+583611596+584217678+584822723+584975871
1798+584614780+584352446+584878267+586245077+587653199+588201375+588084930
1788+588144622+588672517+589340883+589910724+590549072+591362578+592196135
1778+593080396+594402092+596436117+598879805+600876493+601847642+602198765
1768+602654234+603664044+605518071+608144292+610668529+612037068+612484759
1758+613122127+614361084+615975651+618020969+620621665+623187157+624788818
1748+625315502+625310490+625283294+625884133+627768639+630650972+633038943
1738+633980015+634441246+635859855+638093468+639622415+640069702+640132563
1728+640230283+640751033+642091742+644035365+646076534+648415761+651633487
1718+655261740+657535570+657714589+657035447+656618352+656623191+656891345
1708+657452139+658295434+659105022+659949066+661761723+665160426+668868999
1698+671138277+672201902+672693498+672664574+672553832+672968969+674123284
1688+676146247+679411680+683662436+686852217+687549278+687324626+687625621
1678+688480094+689689435+691350327+693462020+695825677+698149174+699514140
1668+698841683+696717716+695016089+695151548+697178832+699802345+701973039
1658+703976411+706706056+710956236+716401352+719791298+719379791+718501811
1648+719754480+722388537+723526662+722670000+721869861+722196324+723511336
1638+725929268+729725535+733494145+734953028+734723709+735215881+737720356
1628+741762765+746059328+750213804+754720729+759554750+764214766+768912521
1618+774031175+778578835+781110333+782502379+784656249+788151175+792311471
1608+795959890+798158010+798999404+799589410+800702299+801818990+802050671
1598+801435428+800662485+800288660+800547825+801185021+801638531+801987810
1588+803178598+805601313+808297367+810419201+812470166+815224875+818577253
1578+821997218+824640551+825316754+824569797+824589156+826597368+829918345
1568+832838763+834900099+837082605+839962748+843487519+848288122+855462810
1558+862369115+863738979+860561355+857063779+855952504+857508589+859813821
1548+860537328+859468806+858618827+859563587+861823128+863912697+864529611
1538+863400416+861952134+861814255+863011323+863695132+862783099+861662720
1528+862099809+864618342+868222280+871018877+871841141+871945545+873643370
1518+876535497+878432392+879082321+879980295+881604772+883515092+886121204
1508+890033109+893958382+896064026+897073894+897649381+896875458+894628478
1498+893593719+897330524+905400421+913202740+917389079+918332571+918149231
1488+917872262+917532144+918284864+921593395+926495406+929738483+929692562
1478+928636312+929884199+934092721+939262424+943426004+946332651+948433685
1468+949692001+949873152+948955357+947735184+947707124+949662732+952861789
1458+954990538+953716838+950321591+947460578+945440093+943106859+939265477
1448+934181049+929953225+928273089+928897205+930364213+931088642+930519724
1438+929229833+927913496+926950183+926559822+926860645+927827818+928936097
1428+929118285+928024353+926777042+926849237+928764915+932173067+936102373
1418+938926051+939671165+939085249+937728637+935341760+932913629+932421227
1408+934102401+936021478+936595697+936221239+936018655+936330310+936913633
1398+937313097+936760139+934907379+932896805+932358885+933234042+933949656
1388+933110625+931270138+930949956+933693775+938202428+942002325+943985704
1378+945191126+948029900+954203824+962181013+967760610+968954912+968207839
1368+968881853+971596229+973900251+973329489+970899168+970159355+972638536
1358+976597457+979818871+981830770+983700930+986236691+988568600+989546836
1348+990088674+992179971+995856450+998790350+999191716+997885174+997437714
1338+999911132+1004916394+1010386516+1015219616+1019021702+1021134087
1330+1021697589+1021983950+1022710511+1023382911+1024192672+1026160782
1321+1029279175+1033052337+1038264446+1046084224+1055237048+1062248678
1312+1065542459+1066640079+1067342671+1068639994+1071031826+1073517344
1304+1073741823+1070693494+1066514933+1064178414+1064030106+1063948173
1295+1062641055+1061808362+1063865204+1067905482+1070000121+1068397884
1287+1065785376+1064801263+1064120912+1060576147+1053812274+1046403196
1278+1039814251+1033145447+1026297797+1022079250+1023453205+1029719951
1270+1036009630+1037373329+1033429503+1027181540+1021691021+1019316014
1261+1020049373+1020247003+1016520396+1010358284+1005621060+1003240406
1253+1001444458+999169706+997161955+996054425+994942516+991826313+985022338
1243+974709782+963682304+955943998+953643951+954145745+951048671+941261878
1233+928932928+919685323+914493783+910154584+903998636+896647637+890032764
1223+884766897+880495802+877296341+875251426+873508775+871081623+867893398
1213+864458683+861477594+860058351+860970384+863347177+865344500+866407952
1203+867751543+870459466+874359617+878901919+883999542+889465689+894589413
1193+898584864+901149780+902875549+904919369+908096071+912298486+916747793
1183+920561921+922932203+923491557+923345150+924685572+928434880+933173313
1173+937116332+940280416+943289565+946310180+950909524+959215827+969645174
1163+977207976+979841687+980586801+982431955+985638387+989035766+991265345
1153+991988795+992784497+995432959+999064957+1000345110+997033467+991482565
1143+989359002+993625487+1001192553+1005425505+1001609361+992504705+986263311
1133+988310127+997339994+1008075004+1017019943+1024763895+1033270939+1042284212
1123+1048990007+1051392094+1050762331+1050546149+1052847406+1055612716
1114+1055569848+1052495591+1047899531+1043525761+1040500710+1038256610
1105+1036763041+1037043294+1039799731+1046644154+1057106631+1062798006
1097+1056276013+1044794737+1039107971+1039845825+1040245463+1036797265
1088+1032046905+1028266253+1025401494+1023098164+1021704503+1022535237
1080+1025459688+1026733043+1024668019+1024198895+1029385192+1035893587
1071+1034904059+1024640708+1013276627+1010070771+1017368070+1028541782
1063+1033195229+1027413279+1016908740+1008801795+1004245953+1001454369
1054+1000401691+1001242335+1002463142+1002581258+1003090946+1006194588
1045+1009779340+1009303531+1005094894+1002743395+1004648241+1006512523
1037+1004779609+1002173324+1001423716+1000033858+995211245+990173603+990928396
1027+997821103+1003280163+1000497567+992984547+988812900+990077727+992775509
1017+992759376+990459733+989986575+993390061+997433796+997821910+995293178
1007+994012449+995021452+994728984+990614149+985289800+982209780+980506828
997+976820323+970787044+965404501+962365390+960116163+955945438+948454255
987+938434743+928146675+919536035+912967602+907960439+904444656+902416047
977+900998302+898967158+896259523+894126223+893378055+892952144+890853587
967+886596321+882016913+879437247+879590164+881076532+881597800+880245683
957+878196965+877050140+877137949+877525199+877324804+876875039+877731125
947+881033088+885799524+889492539+890889310+892051866+895664907+900997265
937+905174443+908019670+912282468+918870203+925407408+930023346+933558085
927+937775192+943737313+951219162+958602024+963882353+965513860+963054039
917+958096139+953529004+950718463+949066387+947973261+947637004+948332797
907+949715625+951179521+951504889+949005427+944146803+940457245+940944749
897+944121509+945500361+944051618+943788247+947685460+953860191+958594188
887+960792020+961673227+961987245+962185853+963792354+967826640+972370843
877+973931595+971986417+970486855+973275443+980353334+988510291+993663054
867+994083895+990914222+985586992+980032748+977090781+977276311+977694616
857+976142161+975097204+978582046+986281287+992670645+992666266+987492875
847+982331008+980017191+979873492+981512028+985797874+992169369+998192853
837+1001957488+1002140251+996768656+986342823+976850284+975557571+983378385
827+993279665+997687430+995998881+992452042+990480706+991222478+995462920
817+1003866712+1015141486+1024962792+1028457199+1025582530+1020285146
808+1015270089+1012249416+1012243424+1013512284+1014216028+1014973011
800+1016095522+1016620882+1016881429+1019052239+1023942035+1029310749
791+1032023512+1030596895+1025751811+1019116886+1013054453+1010538397
783+1011399899+1012468134+1011313933+1007557711+1004083816+1004494747
774+1008175144+1009161215+1003643386+994091270+986402400+984108980+985204410
764+985072926+981565613+978478334+981457407+990996846+999976356+999810877
754+991032454+981623692+976892691+976492593+977031089+976624307+977438908
744+981606061+987714819+993090563+996663676+999399486+1002412669+1005045573
734+1007395920+1011103743+1013915494+1010615605+1004347591+1004062382
726+1012801510+1023418634+1025877994+1019973664+1013805559+1010803900
717+1006417339+997883215+988762196+983530266+982767060+986209035+995760113
707+1009863116+1021028992+1022795785+1015036161+1003634858+996880204+995615723
697+992548034+986235884+984535467+991338290+999372867+999350511+993029488
687+989307261+992661887+1000423355+1006081657+1003443336+990353601+969719731
677+951865346+947675723+957589736+969392577+969447314+956760212+938000190
667+924898297+926024610+937088791+951239559+965606163+980495880+993790159
657+999399140+988218629+961723758+936104621+924298034+929775416+947232872
647+961034361+957613417+944324612+938368080+947335317+964063331+970763882
637+957496510+936532548+929453851+943610439+965822230+977644719+975602397
627+972435836+977117401+983630521+980444831+965912978+947566537+931894082
617+922978009+920774070+921500746+925135106+932873585+941917454+951367989
607+959742684+962678255+961161523+951287094+922683986+882107661
##END=
