##TITLE=<SNM>
##JCAMP-DX=4.24
##DATA TYPE=INFRARED SPECTRUM
##DATE=29/4/2025
##SAMPLING PROCEDURE=Instrument type and / or accessory
##ORIGIN=Admin
##XUNITS=1/CM
##YUNITS=ABSORBANCE
##RESOLUTION=4
##FIRSTX=4497.3318
##LASTX=599.83466
##DELTAX=-1.4281778
##MAXY=2.0986865
##MINY=0.3796078
##XFACTOR=1
##YFACTOR=1.9545541e-09
##NPOINTS=2730
##FIRSTY=0.39277142
##XYDATA=(X++(Y..Y))
4497+200951935+201766280+202738652+203078125+202473267+201289517+200149604
4487+199389342+198902790+198455836+198127006+198389814+199565284+201206692
4477+202383764+202690805+202580275+202620605+202885365+203035813+202657535
4467+201651618+200429352+199515745+199061945+199036664+199615342+200968478
4457+202772563+204124449+204070914+202457913+200273979+198936365+199237125
4447+200920555+202910188+203928211+203362570+201689524+199856606+198437798
4437+197628240+197624672+198483816+199777105+200708003+200639739+199656923
4427+198642025+198443989+198859167+198871502+198009446+196938925+196582222
4417+197197144+198389890+199513686+199946856+199382481+198044760+196537455
4407+195488754+195278519+195884201+196951398+198068089+198872584+198934017
4397+197949218+196306057+195095624+195146841+196136610+196981848+197036114
4387+196546131+196030578+195673723+195363449+194970487+194510572+194217086
4377+194507584+195678190+197464054+199056532+199808423+199774451+199377434
4367+198942403+198742736+198985524+199529071+199964650+199987476+199467822
4357+198470337+197476664+197169073+197742552+198725780+199519877+199920082
4347+200105889+200240343+200235143+200008792+199803468+199962699+200443030
4337+200768917+200523263+199863437+199449890+199703794+200288541+200623638
4327+200701797+200960458+201529515+202014527+201951158+201314493+200619003
4317+200421485+200713934+201018719+201060772+201009464+200946567+200625925
4307+200055237+199844026+200489184+201551746+202152259+202174840+202287505
4297+202873060+203637043+204113348+203978163+203197560+202276679+201832958
4287+201723983+201268872+200438181+200052827+200657122+201830168+202747465
4277+203001216+202675801+201967366+201204603+200953124+201498577+202388353
4267+202927159+202928333+202617525+202166988+201758046+201761386+202381964
4257+203301229+204094334+204822836+205710523+206482449+206605299+206048151
4247+205316051+204858622+204810196+204953127+204834759+204378291+204160052
4237+204563245+205104566+205164962+204838205+204579163+204551733+204638721
4227+204701861+204691538+204701983+204871765+205199834+205669522+206416686
4217+207377775+208020615+207938385+207461866+207214229+207296536+207293059
4207+206896422+206251783+205813520+205959059+206606580+207209487+207255413
4197+206791137+206391665+206535130+207047740+207354919+207275707+207238168
4187+207659017+208452123+209238261+209772248+210001023+209949395+209812334
4177+209970742+210646883+211653028+212656749+213406658+213622306+213138102
4167+212205496+211353138+211015448+211371496+212164053+212636211+212171021
4157+211052576+210211639+210267003+211042543+211881849+212323085+212463607
4147+212592557+212648195+212411125+212072521+212066483+212385646+212570021
4137+212416157+212223168+212247335+212358612+212330816+212197780+212309927
4127+212931313+213736160+214054241+213667469+213038413+212773150+213141731
4117+213967878+214810813+215427442+215946487+216412119+216634735+216702998
4107+216988205+217471204+217740889+217712224+217642817+217530442+217231923
4097+217050080+217462117+218263395+218648840+218246760+217479392+216867124
4087+216618069+216847012+217566030+218517924+219428223+220253044+220916849
4077+221084802+220492782+219380757+218403628+218051697+218171818+218227319
4067+218075880+218177963+218925325+220039257+220777211+220688104+220066916
4057+219536420+219308636+219205455+219299243+219936122+221006460+221786467
4047+221829954+221557540+221560421+221767438+221725385+221297567+220724089
4037+220314934+220231163+220325119+220359320+220508624+221131810+222022470
4027+222633062+222958431+223359993+223727003+223675314+223330428+223159547
4017+223238164+223249127+223087960+223032169+223276908+223641860+223871871
4007+223944175+223956495+224030324+224337412+224812055+224962931+224464531
3997+223703552+223292019+223359383+223653921+223994065+224388034+225009055
3987+226048897+227295224+228079059+227966363+227199408+226290755+225666395
3977+225699376+226428304+227261786+227549554+227336850+227105574+227041564
3967+226977615+226871431+226970891+227459639+228148161+228673625+228868474
3957+228744328+228344596+227949332+228259377+229920805+232635493+234901398
3947+235316668+234281491+233415349+233382948+233295746+232297438+230755521
3937+229630292+229665499+231138466+233555658+235525850+235759322+234659373
3927+234004624+234715911+235718077+235627186+235083638+235902375+238357671
3917+240500360+240273536+237764629+234707052+232547545+231818708+232840955
3907+236218138+242178514+249375275+255003740+257100091+255704338+251507458
3897+245692804+240627921+238743893+240536359+243377801+243629464+241761690
3887+241575775+244438793+247692714+249335006+250529414+251022598+248653863
3878+244774073+243402030+245697058+249395188+252563006+254817490+255361892
3868+254164968+253205449+253442947+253117867+250512275+246761358+244355297
3858+245228361+251045592+262417947+273268894+272776975+262943076+252696575
3848+246437391+244999052+247407095+251684925+256222346+260779985+265299445
3838+268156699+267645171+264731928+261434383+258425598+255610565+253527174
3828+252854845+253357728+255089157+259475977+266182862+270219825+268751692
3818+266097750+265199237+263148583+257707862+251798749+249370716+252036383
3808+257871042+262386628+264292247+266960308+271524230+273989162+272113551
3798+268479247+264400261+259179350+253739833+250328526+249740547+251157570
3788+253705618+256645529+258753179+259622660+260848234+263621504+266202714
3778+266176671+264298895+263366411+265260624+270094276+276028380+280271156
3768+282162503+283378471+284744933+286248320+289037051+294166720+300018060
3758+303830761+306090643+310019013+318053814+329501706+339040930+341869762
3748+341234698+343036724+348099518+351001844+349004831+346943656+349948690
3738+359828058+374038760+385831675+389492327+385957529+380680202+378084902
3728+379534830+383990737+389092869+392923471+395313781+397187472+399369743
3718+402171404+406200103+413195961+424497750+437392002+445330377+446128133
3708+444221935+443905394+446880390+452575107+457843957+459661749+459273788
3698+459866037+462369393+466213962+471860770+480467967+490780978+497441296
3688+495915404+488871730+481921158+478591959+480270144+486015879+493545404
3678+501476643+508050050+509838994+507868908+507993908+511427614+512424382
3668+507573348+501040500+496900066+495643783+496480390+499146347+503873632
3658+510224149+516132789+520042526+524004410+531349439+541916719+549880497
3648+549405868+542743934+535718800+531488985+530302353+530843522+531878349
3638+533294183+535838098+540425257+547738814+558051825+570047381+577992191
3628+575327210+565979801+559470770+560304266+567503405+577164366+585009883
3618+588835697+589696639+589622719+588617412+585365702+580264576+575932968
3608+573999812+573415888+573514327+575220354+578804524+583431570+588982806
3598+595984702+602866508+605457080+601700918+595653585+593720307+598443108
3588+605639808+608117731+604821864+600426155+597548377+595560879+593803132
3578+592658401+592430540+593083810+594939629+598914443+605873158+615081447
3568+622922695+624961486+621069192+615291498+611464892+610905974+612355841
3558+613385788+612854439+612200315+613148474+615029727+615981972+616037779
3548+617093647+620515886+625297117+628645985+628967832+627516562+626419709
3538+625830601+624489602+622363533+620602737+619685073+619511494+620298882
3528+621751859+622539796+621955507+620661532+619218069+617750088+616992341
3518+617649697+618910982+619215507+618545282+618646771+620604993+623394761
3508+625640799+627583774+629589630+630355184+629123785+628029371+629188618
3498+631361039+631898732+630745401+630284374+632054075+635579327+639768950
3488+643987909+647750415+650261517+650668568+648615443+644863123+641107692
3478+638315058+636337501+635285597+635664653+637261812+639422097+642120867
3468+644968515+646465344+646203756+645578176+645032921+643639470+642007485
3458+642245836+644411549+645727725+644207170+641130930+639024073+638910569
3448+639799933+639866718+638105555+635714787+635496563+638351408+641565121
3438+641773465+639626537+639437162+643263646+647638497+647888131+644355560
3428+640944116+639080672+637239063+634604699+631949415+630133239+629306451
3418+629204719+629683068+631300354+634867873+639406727+641635321+639155507
3408+633300477+627392874+623712339+623055044+625219659+628856646+632128056
3398+634153003+634925875+634392635+632932460+631606465+630838107+630281873
3388+630127262+631082557+633000953+634627997+634919837+634192098+633664957
3378+633966616+634650442+635311823+636234610+637550419+638947469+640488882
3368+642381723+644283957+645924175+647673201+649420579+649680826+647346109
3358+643883676+641904777+642255107+643693203+644907951+645962416+647255416
3348+647825128+646067869+642481748+639978879+640590126+643362756+646313966
3338+649019384+652206566+655714314+657964865+657387711+653870449+649399233
3328+646942351+647662039+649468518+649400270+647520724+646546889+648143621
3318+651125204+653496577+654932477+655674243+654691259+650908809+645673382
3308+642451009+644169173+650255662+656017132+656936442+653567814+649602819
3298+647056586+646295364+648053965+652060433+655531770+656288418+655822816
3288+656988650+660266708+663539704+664581971+662946693+659735420+656412229
3278+654094894+653454371+654272254+654937783+654109836+653241880+655191198
3268+660074832+664367590+664939742+662582092+660175711+659297691+659792812
3258+661197302+663242314+665232679+666104844+665588803+664840815+665637047
3248+668408090+671613570+673730490+674482747+673899739+672211155+670619485
3238+669863995+668549100+665081179+660559341+657537870+656918938+657987858
3228+660111244+662781653+664499878+663171687+658654363+654079707+652898869
3218+655166741+658466329+661232859+662708220+661568917+657791835+654166984
3208+653259079+654348614+655514387+656882649+659033175+660113317+657720293
3198+652815983+649082326+648719066+650413993+651386853+650873374+650358614
3188+650531766+650017372+647573420+644032432+641390383+640921061+642341104
3178+644084274+644261634+642168134+638816034+636027913+635202345+636158555
3168+637103969+636425266+634202832+631464113+628971126+627265037+626537725
3158+625918306+624286077+622073523+620773632+620806445+621552908+622998567
3148+625527966+628330725+629623114+628621772+626299313+624176416+622981307
3138+622342736+621477158+620148113+618869264+618049246+617477643+616877008
3128+616339194+615844378+615016065+614149451+614234289+614991913+614605172
3118+612537654+610674576+610225564+609840165+608379991+607138223+607343396
3108+607757033+606457874+603600651+601035816+600103454+600718116+601617666
3098+601263920+599644195+598862845+600830095+604901884+608348763+608951655
3088+606665486+602823875+598892975+596342473+596315393+598395841+600420604
3078+600377362+598152794+595130408+592698044+591342286+590732503+590457557
3068+590491224+590688711+590494396+589823195+589478049+589971402+590596372
3058+590359668+589424195+588883209+589238906+589912546+590134491+589475366
3048+587716399+585093562+582412723+580371980+579228286+579200413+580318187
3038+581818249+582567334+582117285+580962003+579914612+579416381+579393814
3028+579461392+579090996+577797204+575492067+572736942+570538355+569561836
3018+569357213+568848612+567891671+567503283+568134596+568907224+568982914
3008+568419910+567445037+566112211+564737058+563784447+563403744+563310184
2998+562817381+561321893+559342872+558496934+559622514+561331164+561389776
2988+559399472+556936308+555406483+555156543+556013338+557283161+557881722
2978+557510473+556912522+556464180+555650567+554217594+552750040+551896295
2968+551667763+551481315+550723630+549479484+548495463+548068590+547449414
2958+545952767+544144947+543078833+542762170+542329625+541479539+540721366
2948+540355849+540242651+540408789+540892078+541121647+540478623+539429037
2938+539033392+539355483+539481428+539103714+538809374+538689466+537910312
2928+536013629+533549245+531279910+529679884+529014477+529186593+529533141
2918+529224895+528132249+527088213+526889384+527257279+527335591+526881577
2908+526280577+525757217+525324489+525118951+525138834+524989834+524285943
2898+523037832+521522401+520133463+519360530+519462811+520010628+519943905
2888+518382608+515547829+512725066+511241837+511561153+513059111+514427006
2878+514654745+513843388+512700547+511429322+509892513+508535321+508016566
2868+508240950+508671421+509044135+509041969+508183741+506747109+505793095
2858+505768638+505963899+505637204+504854969+503927151+502807975+501456120
2848+500204716+499443585+499348256+499901868+500597861+500405131+498846945
2838+496771498+495345997+494862738+495045344+495728255+496639362+497126280
2828+496626524+495179645+493307663+491587547+490381520+489705837+489198822
2818+488420034+487404176+486707542+486614684+486603157+486030608+485048935
2808+484296464+483985230+483824550+483553539+483119256+482527861+481742913
2798+480726872+479614770+478705249+478086500+477509316+476870959+476443019
2788+476336194+476199850+475656973+474654777+473349579+472014222+471057921
2778+470790173+470993759+470893216+469868758+468204662+466851496+466437217
2768+466692920+466857625+466495707+465745249+464826671+463702402+462404737
2758+461280834+460602162+460233688+459904491+459555991+459317701+459289432
2748+459361218+459267872+458842006+458096762+457156898+456333618+455990271
2738+456037143+455854933+454964716+453542569+452178211+451340262+450995787
2728+450592914+449581631+448060222+446761977+446345747+446771431+447380116
2718+447520059+446985691+445907591+444513104+443105443+442073147+441739133
2708+442106845+442709705+442848398+442151825+440880051+439604739+438662557
2698+437897736+436906670+435673990+434835096+434956132+435686036+436072624
2688+435650814+434780601+433989310+433433778+432981441+432481197+431873457
2678+431154379+430339728+429508183+428803285+428292398+427839391+427244947
2668+426559596+426132327+426210761+426566732+426702619+426401539+425871592
2658+425356863+424861101+424321457+423858844+423703501+423858996+423949384
2648+423553159+422654494+421590759+420612074+419702126+418827644+418181967
2638+418031504+418310657+418568769+418474600+418158608+417866860+417587096
2628+417252960+417051386+417175319+417402234+417306784+416823281+416239815
2618+415734875+415261253+414763235+414240759+413745852+413446175+413454012
2608+413565442+413424127+412879664+412030035+411104901+410396038+410092305
2598+410127619+410285798+410376521+410252466+409839774+409296104+409006582
2588+409221452+409736151+410126887+410235420+410150643+409854656+409302112
2578+408746702+408528203+408582241+408514114+408116883+407581051+407254446
2568+407331325+407722884+408155765+408391584+408341633+408011095+407468249
2558+406885149+406464192+406255574+406113771+405890302+405631427+405501060
2548+405517955+405509263+405370357+405224895+405276188+405608007+406119748
2538+406547780+406620480+406302598+405834953+405502829+405427109+405537990
2528+405650517+405611087+405448151+405344254+405398413+405455317+405306195
2518+405076078+405197663+405856635+406655093+407011979+406744657+406116150
2508+405504079+405173968+405206445+405484654+405781800+405902683+405794425
2498+405639478+405796864+406432691+407219987+407649726+407587028+407223189
2488+406631001+405786618+404923297+404437751+404466752+404822846+405268808
2478+405661587+405917687+406025884+406104653+406300768+406552506+406631398
2468+406544364+406639631+407113528+407648293+407745420+407278263+406585868
2458+406121151+406091235+406380025+406704739+406807752+406594925+406202299
2448+405883867+405761002+405756001+405779604+405834434+405914302+405967760
2438+406013686+406145395+406351390+406463826+406389753+406292504+406412442
2428+406736728+406973006+406897255+406607642+406322755+406080836+405872371
2418+405880391+406244596+406783142+407240846+407539516+407613315+407436686
2408+407309917+407598677+408170067+408551349+408546866+408347824+408254569
2398+408522318+409215963+410086023+410766739+411087518+411111061+410997618
2388+410872679+410703827+410342275+409723038+408834833+407483771+405407684
2378+402739196+400090865+398006910+396426066+394760384+392503826+389801488
2368+387404346+386030016+385798527+386238299+386763732+387228267+388036086
2358+389675908+392285754+395866203+400521336+405755726+409979351+411650766
2348+410506340+407572207+404540612+402718489+402122795+401946776+401611938
2338+401085803+400633528+400458150+400518286+400673904+400920976+401404936
2328+402184548+403015971+403495631+403511183+403449064+403788660+404562141
2318+405418875+406142223+406817419+407509753+408125544+408687023+409423300
2308+410448795+411567422+412468527+413010672+413340996+413788636+414559069
2298+415529367+416409339+417004789+417254240+417225178+417173458+417375886
2288+417825386+418255125+418477649+418547941+418605882+418685353+418672514
2278+418425838+417971032+417524703+417259181+417119634+416931478+416616493
2268+416269853+416055959+416031868+416112559+416246799+416523757+417025953
2258+417727130+418576942+419461610+420090026+420225638+420036415+419958347
2248+420240733+420769948+421215362+421238721+420714233+419848747+418982346
2238+418234358+417485364+416738809+416236308+416049799+415873537+415477586
2228+415053580+414852891+414848621+414953525+415168517+415418883+415630855
2218+415939894+416481551+417132900+417741494+418352405+418967220+419401442
2208+419597039+419759670+420042178+420410683+420882354+421551267+422367869
2198+423206032+424089541+425099544+426156998+427068867+427702650+428054138
2188+428243789+428458323+428828383+429351102+429913618+430396754+430780842
2178+431110404+431399225+431667705+431988180+432420634+433002941+433723544
2168+434347568+434555333+434471318+434612023+435109432+435535938+435672679
2158+435886268+436583847+437747699+439089978+440346444+441354892+442051587
2148+442490841+442825862+443244623+443910548+444888104+446055798+447184337
2138+448217242+449393109+450954527+452831633+454777292+456722432+458794128
2128+461048857+463389612+465671756+467733083+469463354+470979701+472485831
2118+473894194+474949452+475712383+476495227+477417282+478435366+479607147
2108+480931007+482186345+483271824+484423569+485835469+487357213+488783355
2098+490108893+491250696+491853923+491665859+490822665+489522591+487715807
2088+485345807+482612577+479780482+476899563+473836741+470483970+466961126
2078+463752323+461506621+460430687+459954625+459263420+458089931+456787387
2068+455824042+455439070+455580080+455943370+456174219+456122346+455892443
2058+455714747+455772657+456080964+456536381+457041504+457490029+457763785
2048+457911412+458234479+459080357+460563036+462438678+464243998+465773244
2038+467461614+470032396+473707563+477975985+482173903+486075894+489806136
2028+493358376+496480543+499061083+501346093+503588623+505696578+507427824
2018+508685846+509365921+509219879+508252874+506957984+505791723+504683098
2008+503339568+501802851+500434711+499452947+498667999+497736429+496622346
1998+495686599+495362922+495840417+496848712+497630733+497536746+496815289
1988+496387654+496892442+498274915+500046232+501643330+502776626+503650925
1978+504720821+506233477+508093902+510024862+511800266+513527396+515677373
1968+518499100+521393040+523391028+524395482+525321440+526949887+529251730
1958+531818151+534368897+536751980+538844687+540629392+542290774+544149704
1948+546493997+549565541+553504066+557755350+560834945+561858854+561943814
1938+562810916+564890449+567561956+570279633+572805190+574947848+576639360
1928+578178212+580203707+583053917+586154309+588789405+591319780+594315818
1918+596860038+597452073+596463356+595790569+596550999+598265260+599636144
1908+599827533+599232753+598938291+599487815+600461651+601218666+601716531
1898+602457566+603707994+604989588+605830708+606758984+608439517+610111878
1888+610400546+609471904+608568390+608101020+607688602+607238187+606919999
1878+606670853+606319730+605894931+605864314+607186284+610386457+613991058
1868+614848463+611644021+606456715+601752882+598315516+595894558+594176577
1858+592882724+591674989+590372171+589097103+588222193+588118936+588786295
1848+590017145+591753423+593224271+592252021+587988966+583029338+580099414
1838+579190777+578391984+576728467+575668635+577008414+579797754+580682910
1828+578397534+575091542+572147468+568890696+565166309+562061586+560331956
1818+559902704+560396179+561460586+562881482+564395877+565371359+565220774
1808+564139412+562956195+562678993+564225896+567623496+571305433+573298787
1798+573525244+573920036+576454437+581298000+585629852+585698405+582108259
1788+578969076+578612099+580347523+582689986+585263360+588065265+590574415
1778+592862231+596319601+602382182+610613647+617413298+618722521+615331935
1768+610863830+607499653+606441102+608439761+612254414+614992584+615963065
1758+616955503+618420740+619697698+621871523+626833468+634009614+639886723
1748+641999862+641555485+640999617+641684297+643777065+646572566+648776336
1738+650385511+653810556+660672051+667319348+667916263+664015979+660222612
1728+657888688+657027440+657904911+660277077+663789155+669578560+679507086
1718+692257705+700628961+699433607+693048387+687416277+684739220+685370167
1708+689396640+695861636+702409823+708370184+716297672+727314574+736409116
1698+738473036+735504383+730506880+725442043+722862082+723762242+726943081
1688+731857637+740649971+754229573+765170298+764757576+758029283+753333256
1678+753568558+757899495+763172310+766866872+770371510+775510145+779760087
1668+779414637+776699521+776488067+779843705+783700380+785084987+785133719
1658+787074316+793360366+805092504+818611543+822834832+818162409+816881303
1648+821880574+825954193+820992735+810829029+803879585+803291759+808772795
1638+818693453+828425895+829432727+819847272+808368549+800767239+797126104
1628+795994120+796714113+799260041+802088720+802115312+799314810+797551452
1618+799027057+800603967+797301208+790189895+783721361+779875786+778227944
1608+777662379+777529237+777499473+776971539+775536066+773665669+772086320
1598+770914326+770082903+769878645+770306372+770552347+769923534+768814849
1588+768045270+767698539+767367421+767005016+766946648+767922984+771399261
1578+778237398+785146466+785456725+779978738+776276064+777254352+779595535
1568+779306318+777086567+775379747+775556376+779989900+792205754+810169844
1558+817508529+806961925+792893483+783537780+779471114+778878347+779082970
1548+779184276+781370969+788177695+799743939+813884472+825107034+824176746
1538+812689667+803597931+802523827+806328599+808590799+807693506+807967842
1528+812130323+818616605+825013475+831742621+839860217+847368517+851761665
1518+853591198+853926707+853405177+853728244+856696226+863299182+874612804
1508+890252301+901834829+898594768+887984368+882010528+883353357+889595920
1498+896704184+901183267+902584891+903708214+907208583+913066723+918476705
1488+920430781+918989209+916723959+916104479+917749393+920696090+924428100
1478+929473115+936269473+945226847+956513571+966247660+967635866+961757903
1468+956128904+954999543+956994360+957933187+957459352+960418185+970040844
1458+982177655+985617887+977730225+968497662+963416907+961929714+962086276
1448+962240826+962232836+963107136+964842682+966280778+967476863+970565363
1438+977554573+986461874+991648264+992438702+993692728+996927605+998106125
1428+995106915+992608926+995186203+1001720118+1008604974+1014690670+1019398102
1418+1019741356+1014783314+1008265500+1004133453+1003432672+1004111984
1410+1003532391+1001769704+1000732865+1000872350+1001431145+1003046906
1401+1006880649+1011841497+1015504710+1017202931+1017545331+1016502515
1392+1013832411+1010019222+1005810509+1001963593+999711944+1000071483
1384+1002697736+1006405533+1010783616+1016336743+1023187138+1029795218
1375+1032725935+1029464406+1022637004+1018233853+1018946589+1022210985
1367+1024609682+1026630054+1031164456+1038280221+1043883421+1044878786
1358+1042517599+1039704350+1038712278+1040609327+1045144827+1050804870
1350+1055849031+1059481993+1061295973+1061188508+1060569820+1061591046
1341+1064775849+1067926254+1067950528+1064778655+1061920272+1062861478
1332+1067669606+1072665828+1073520793+1069266338+1062633130+1057596532
1324+1056807314+1059705950+1063223518+1065204369+1066558602+1069194003
1315+1072595201+1073741823+1070711935+1065438572+1062281946+1063471628
1307+1066750844+1068622278+1068177901+1067163384+1067678876+1069446138
1298+1070153384+1068856604+1067076778+1065683388+1063072750+1057994556
1290+1051617508+1045501378+1039447824+1032376094+1023926832+1014634619
1281+1006099726+1000618386+998888816+998759882+997411442+993917783+989200653
1271+984503407+980328056+976033896+970748639+964637144+958328589+951245331
1261+942338518+932547099+924284955+918487745+914087705+910292203+907608437
1251+905835808+902523229+895203756+884478449+873111400+863011795+854465680
1241+847069846+840367292+834009334+827939618+822443700+817946136+814783167
1231+812982605+812125993+811437715+810185213+808235529+806153556+804653067
1221+804044321+804406482+805866596+808210035+810703023+812767186+814478337
1211+816303539+818834951+822593371+827479688+832642963+837318741+841471891
1201+845372907+848941768+851859128+854242028+856827599+860183908+863793206
1191+866485511+868030645+869401773+871559374+874820965+878961734+883384096
1181+887830550+892907462+899132522+906021524+912770797+919334842+926557829
1171+935488428+945840107+955098103+960597985+962458806+962928494+963493084
1161+964052916+963782362+962561453+962173676+964616468+969829451+975984249
1151+980786644+981893073+978012916+971107203+965534925+963953440+965972715
1141+970203567+975590738+980558356+983071471+983287316+983640086+985317996
1131+987566534+990323367+994158086+998096610+1000924985+1003244638+1005180355
1121+1004889979+1002330268+1000751589+1002564776+1005894005+1006428587
1113+1003246285+1000348746+1001096490+1004290808+1006785260+1007376136
1104+1005882600+1001463165+995272627+991573795+993471027+999246952+1003671206
1094+1003928525+1003153640+1005071426+1008607169+1010235311+1008845764
1085+1005685784+1001376559+996552513+993190837+991426381+988095200+981649477
1075+974621599+968587257+962007964+954120669+946800769+941995203+939956350
1065+940330283+942294971+943457207+941737518+938991602+939745750+946144084
1055+954628842+958293519+953914094+944523565+936125901+932919690+934484402
1045+937302713+938973854+940635297+944162867+948613529+951586817+952226425
1035+950841086+947830777+944748559+943955072+945947023+948482582+948618652
1025+945124444+939548385+935582231+936478060+942417135+950296807+956071207
1015+957688310+956087248+953221974+949429094+943798022+936516301+929210978
1005+922593444+915556723+907480357+899195952+891236993+883129034+875118903
995+868847979+865216115+863478922+862511246+861557415+860113586+857741420
985+854278195+850430729+847553623+845909014+843905841+840180722+835355334
975+830837461+826972796+823177721+819313483+816096903+814087570+812652890
965+810388007+806764193+802907152+800401844+799779680+800347197+801456249
955+803764862+808444422+815180521+822049457+827614050+831929008+835444197
945+838484209+841703473+845752024+850464274+855329184+860797717+868120362
935+877774736+888476988+897797012+904136185+908304888+912216576+915926142
925+917716458+916825387+913825324+909766343+906412717+905520548+906800739
915+907887346+906818000+903610081+899599709+896203696+893876419+892323173
905+892099765+894176614+898179057+902065190+903292869+901181438+897852209
895+896027982+896887704+900407346+906114047+912407782+917155528+920489942
885+924455668+929196279+932552344+933431949+932766787+931811736+931367847
875+931593939+931471226+929757270+927452804+927476773+931134253+936417314
865+940318695+941961963+943132066+945895303+950113225+954233502+958046690
855+961810782+963235704+960282420+955368535+951914703+950062847+948929521
845+949057357+950569007+952219228+952828524+951726852+949756004+949605174
835+952352980+956073708+959540714+964378849+970874707+975207047+974308900
825+970911972+969787307+972161485+975355925+977240837+979782435+985499992
815+992950961+998351916+999466213+997082460+994542997+995052390+997732436
805+998437852+996234142+994414429+995125334+996759332+996320688+992077699
795+984033780+974822258+967997295+964094206+961144278+958514732+957297422
785+956825904+954347066+949161773+943254474+937612179+931542646+925394007
776+920588136+917226826+914691816+914078617+917249271+923879795+931370530
766+937234526+940459888+942273990+945133958+949609687+954443858+958665744
756+960928737+959547301+956128111+954749542+956696055+959898973+962054134
746+961644827+958734603+956157143+957174526+961498937+966569080+971377391
736+975277125+976181310+974252118+973129039+974459608+974712658+970637758
726+965748697+966293037+972869646+980136790+982845806+980564028+976890691
716+973552496+969742479+966842562+968441307+975156303+980655941+978093119
706+970459727+965562005+965334571+965800112+963714296+959589202+954708130
696+949109626+944071198+942500936+943410915+941326076+934103577+927277151
686+927412001+934849979+944342179+950145184+948798818+941007278+929440546
676+917153333+908703522+904972304+901337939+894928018+892328479+902170582
666+917394123+926399314+928786423+930266114+932685669+932325886+928478908
656+925038067+923357472+920826670+917367714+917342769+920669010+919649248
646+912819529+909177418+912674188+916149185+913263845+910041532+913973652
636+920451518+918629182+908235358+898911553+895437898+893871601+887119095
626+872575354+856582539+846464149+844818564+849625715+857029356+863870786
616+866145306+863395426+861076078+864299427+871932880+879006806+885350797
606+893704426+901066471+901674302+897267187+893787312
##END=
