##TITLE=<SNM>
##JCAMP-DX=4.24
##DATA TYPE=INFRARED SPECTRUM
##DATE=29/4/2025
##SAMPLING PROCEDURE=Instrument type and / or accessory
##ORIGIN=Admin
##XUNITS=1/CM
##YUNITS=ABSORBANCE
##RESOLUTION=4
##FIRSTX=4497.3318
##LASTX=599.83466
##DELTAX=-1.4281778
##MAXY=2.2228689
##MINY=0.67499214
##XFACTOR=1
##YFACTOR=2.070208e-09
##NPOINTS=2730
##FIRSTY=0.6993475
##XYDATA=(X++(Y..Y))
4497+337815086+335311309+333065447+331527629+330719477+331086743+332854606
4487+334782609+335345686+334639082+333677068+332959667+332551978+332218600
4477+331519251+330851890+331462445+333513589+335286865+335054718+332952037
4467+330805708+330236383+330938985+331283851+330591038+329747875+329732846
4457+330640588+331710399+331927228+331078826+330055226+329744248+330273322
4447+331557458+333588505+335679640+336425430+335160988+332876747+331173550
4437+330614359+330568955+330463894+330536622+331241642+332289484+332780468
4427+332479624+332301750+333040255+334250367+334738241+333751782+331616711
4417+329366588+327928504+327857389+329306471+331575567+333278419+333694660
4407+333384660+333088222+332738317+331840018+330307037+328880557+328778980
4397+330454105+332760141+334010101+333846219+333306779+333129307+332872803
4387+331883235+330442646+329463126+329394285+329859846+330173214+329914147
4377+329123500+328172283+327521650+327550096+328438404+330254205+332784787
4367+334893946+334812206+332136860+328826745+327014831+326807934+327009907
4357+326989753+327171284+328033536+329117454+329298899+328200786+326757606
4347+326050398+326541525+328336971+330814547+332467820+332520192+332044410
4337+332365811+333182341+333093289+331578907+329852447+329494538+330535355
4327+331600674+331850268+331611471+331229579+330582084+329860134+329699217
4317+330094095+330213263+329367768+327833895+326713613+326884980+327910394
4307+328438288+328164797+328240519+329302987+330483876+330812244+330369861
4297+329653640+329036895+328997796+329776005+330754546+331064775+330834586
4287+330962623+331828012+332838800+333150901+332417550+330813396+328916776
4277+327667479+327774786+328960223+330189913+330643928+330247640+329661932
4267+329769181+330550298+330860384+330004265+328733719+328164595+328740917
4257+330336779+332356454+333678738+333378528+331692778+329830997+329038766
4247+329865719+331824327+333717463+334550260+334138742+332958659+331678958
4237+330762665+330440083+330830152+331734468+332523733+332693316+332418356
4227+332126438+331812148+331149164+329960703+328413326+327090322+326806581
4217+327856583+329431945+330212745+329744996+328974907+329177024+330426350
4207+331463424+331283332+330266787+329346750+328845604+328618869+328763490
4197+329728700+331699343+333913620+335028115+334412521+332512245+330119633
4187+328202226+327835853+329099143+330576038+331020667+330754315+330786389
4177+331519107+332657441+333680264+334307460+334754479+335260924+335561825
4167+335153589+333816016+331822686+329936144+328999869+329255740+330309024
4157+331589301+332407041+332246383+331667499+331926422+333073596+333514251
4147+332226057+330290252+329358757+329833905+331012202+332012567+332183790
4137+331341492+330038440+329262708+329500527+330260740+330846621+331310253
4127+332088922+333041637+333622940+333699928+333500345+333113386+332572420
4117+332014438+331475200+330872447+330169068+329367308+328586133+328176573
4107+328438605+329324063+330646548+332195681+333431043+333679918+332931595
4097+331932065+331345292+331239483+331362394+331494663+331595635+331825824
4087+332289801+332647076+332419882+331753212+331161861+330677701+329989783
4077+329222371+328927401+329380753+330220663+330759008+330697250+330526084
4067+330841583+331413471+331614695+331504769+331504279+331357356+330605779
4057+329774939+329836755+330783942+331780391+332298151+332170719+331236172
4047+329901911+329265357+329816198+330702692+330919291+330574656+330403374
4037+330511717+330346712+329754411+329311164+329516563+330250894+331167072
4027+332116562+333067233+333943678+334485076+334237871+333091130+331700350
4017+330928044+331041569+331740543+332549530+332956817+332724900+332191996
4007+331733029+331233206+330743432+330950703+332126034+333326444+333544339
3997+332949417+332265904+331775784+331414737+331225001+331460660+332356281
3987+333718413+334878139+335257987+334851536+333995100+332999745+332229368
3977+332147628+332914954+334020091+334611154+334389286+333880078+333577363
3967+333371186+333121735+333071609+333251326+333116034+332246383+331068864
3957+330509817+330979955+331882457+332329562+332219003+332099517+332112214
3947+331892880+331467628+331316673+331575884+331933361+332217477+332568619
3937+333196507+334307979+335952211+337645129+338446976+337899935+336688124
3927+335814587+335442570+334884070+333708249+332411273+331655551+331643544
3917+332511094+334294648+336190922+336966050+336271740+334969063+334315925
3907+335023882+336792984+338601385+339905761+341251942+342852612+343716130
3897+343009066+341125403+339057013+337598256+336932767+336534204+336122427
3887+336300877+337389891+338495432+338828090+338767599+338359881+337001233
3878+335311683+334806794+335826305+337382866+338792302+339942787+340225060
3868+339345533+338296626+337899618+337622470+336707271+335548005+334964773
3858+335289946+336940109+340867603+346284343+348718415+346336744+342023269
3848+338674833+337538830+338161219+339212142+340105056+341337108+343008231
3838+344195712+344336302+343753790+342735891+341544148+340612278+340132121
3828+339908986+339785095+340190021+342018116+345067494+346867373+345802918
3818+343636867+342217642+341255282+339910137+338459817+337825221+338739988
3808+340743827+341841220+341277307+341151546+343183054+345597375+345950360
3798+345005995+344199311+343393895+342315879+341768895+342528965+344257730
3788+345998759+347234351+348215397+349634478+351988942+354885696+357221330
3778+358675249+360272205+363006517+367224086+372924597+379320799+384719459
3768+388172150+390082906+390804136+390644371+390596059+391420939+392668883
3758+393625312+394724605+397083876+401382437+407139667+412522030+416147529
3748+418891140+422478057+427125716+430515210+431271854+431454796+433645435
3738+439045246+446769951+454030075+458707706+461363704+463624336+466042199
3728+467997524+468738793+468625786+469080204+470542444+471642774+471126079
3718+469448075+468047766+468021277+469324041+470548923+470474928+469688543
3708+468740262+467122633+465120637+464201234+465054617+466815081+468822922
3698+471302687+473906688+475694072+476788038+478538108+481361904+483289013
3688+482593955+480616316+479363650+479219462+479441071+479601181+480550066
3678+483432281+487266115+489468386+490658574+493404662+496285436+494785508
3668+488850115+482909482+479639848+479166975+480453730+481894722+482531160
3658+482904300+483800468+484866794+485470612+485777588+486060783+485861545
3648+484542601+482326135+480171745+478764036+477958821+477259674+476486763
3638+476011298+476532455+478329570+480705599+482930327+485292565+487986712
3628+489680638+489075957+487099181+485856017+486789902+489584474+492161900
3618+492805623+492240616+492278967+493568774+495240703+496160941+496069787
3608+495242258+493836709+492488627+492528878+494729594+498355323+501947769
3598+504497901+505354106+504319047+502580494+502152650+503826422+506320295
3588+507410922+506214802+504020651+502360295+501611368+501759011+503238382
3578+506362331+510027447+511655670+509464398+504901732+501798571+503148725
3568+508359893+512857202+512729771+509563095+507735518+509271782+512362044
3558+514209890+514522164+514962388+516251562+517517932+518192693+518880064
3548+519767364+519550103+517202952+513933721+511920438+512015220+513425203
3538+514769139+515078361+514302484+513311304+512959585+512954345+512182615
3528+510253634+508129676+506930159+506664873+506595025+506415710+506372062
3518+506256781+505429885+504059922+503287789+503760893+504726391+504994268
3508+504163284+502712647+501411842+500892211+501338826+502202402+502757677
3498+502974939+503308576+503809608+504008904+503568680+502655928+502027407
3488+502770864+505124003+507486356+507831394+505898037+502963595+500066467
3478+497374738+495109932+494018441+494540088+496027175+497166863+497295446
3468+497098684+497536835+498273382+497752139+495368250+492834760+492222305
3458+493600560+495586606+497184598+497961454+497378481+495271280+492226048
3448+488944264+486139614+484850959+485580769+487265079+488044410+487143117
3438+485380379+483981337+483575317+484038229+484627997+484440736+483287516
3428+481845344+480762146+480169240+480030003+480363986+480983352+481428643
3418+481284944+480472559+479525459+479437155+480500286+481704351+482159864
3408+482288821+482737280+483195268+483094440+482539337+482061886+482066003
3398+482602880+483381089+484034716+484296778+483930663+482772693+481010473
3388+479330799+478649676+479603542+481957199+484427261+485477983+484640550
3378+483075552+482231728+482122607+481975568+482071531+483481399+486155392
3368+488594561+489624955+489732002+490329659+491968420+493477562+493385256
3358+491999170+490898984+490799711+491031599+490885971+490582507+490745583
3348+491531709+492655734+494015389+495702060+497328384+497958517+497018183
3338+494954803+492853417+491596202+491345946+491687932+492027443+491708202
3328+490412694+488817696+488179270+489025571+490530106+491457081+491455584
3318+491079565+490952940+491216959+491519386+491276155+490128060+488515729
3308+487538657+487800373+488697807+489384200+490060745+491383087+492907891
3298+493320014+492268371+490972345+490578822+490827754+490967163+491263659
3288+492652452+495226480+497836729+499178591+498992943+498105527+497489271
3278+497673710+498715794+499887556+499738646+497642731+494872862+493104595
3268+492738539+493329228+494509569+495752676+496195433+495363413+493612883
3258+491755190+490514328+490260444+490965148+492223226+493293065+493499962
3248+492939619+492323479+491867650+490963996+489279168+487697990+487517408
3238+488833704+490264590+490556364+490031550+489815901+490199924+490460949
3228+489943160+488796793+487687912+486917679+485980627+484412290+482913715
3218+482672441+483608773+484362192+484096503+483270011+482506342+481784766
3208+480984849+480395599+480278158+480342738+480061444+479430850+479004849
3198+478970270+478876899+478652583+478856457+479477636+479588772+478871486
3188+478332075+478681087+479154738+478724246+477405129+475712585+473858692
3178+471950499+470277734+469136607+468651929+468653829+468600018+468043389
3168+467223462+466614576+466073639+465180696+464059003+463120166+462460982
3158+462029827+461829524+461627378+461055116+460190820+459468697+459017072
3148+458589286+457904679+456764560+455295035+454167757+453972550+454334691
3138+454252462+453381659+452382849+451905023+451768033+451395901+450678414
3128+449899773+449184590+448643105+448765556+449903833+451435144+452162593
3118+451508217+449952462+448574294+448227556+448759136+449183351+448876174
3108+448076055+447184119+446322789+445592604+445221797+445332415+445623728
3098+445406294+444329689+442988172+442236624+442114260+442002865+441561490
3088+441082080+441048711+441541047+442020198+441825825+440952288+440004583
3078+439377904+438910415+438379929+437907890+437702174+437658900+437484279
3068+437219281+437263073+437585511+437429230+436389276+435221143+434841064
3058+435080784+435181612+435053201+435166870+435544674+435660474+435170873
3048+434225442+433216123+432566095+432519164+432777943+432638275+431864846
3038+431041578+430670339+430435860+429884644+429306336+429178703+429161255
3028+428493433+427229308+426274953+426111071+426214116+426038689+425860008
3018+426065781+426276335+425901900+425079323+424438249+424297746+424406031
3008+424232964+423513519+422607591+422138259+422330040+422911343+423410503
2998+423331470+422442097+421173221+420378486+420523366+421356422+422319905
2988+422963801+423005952+422353303+421224326+420070963+419249567+418815706
2978+418550592+418130379+417494113+416992447+416837261+416662841+416102355
2968+415479016+415339405+415618396+415811444+415624183+415013081+413981592
2958+412727372+411670921+411056853+410712534+410336804+409919095+409756796
2948+410073044+410754743+411537213+412238864+412615603+412307792+411347015
2938+410444052+410276859+410632321+410642139+409810809+408471308+407264709
2928+406604114+406648539+407214093+407555130+406862087+405344336+404261109
2918+404487958+405511472+406128447+405749953+404788370+404123485+404315986
2908+405067534+405528373+405293922+404744607+404292147+403867988+403325410
2898+402808428+402539255+402607031+403002455+403539850+403779915+403394453
2888+402619238+402036784+401905552+401985477+401995266+401856865+401506413
2878+400972905+400624584+400805395+401253709+401319988+400717782+399766622
2868+399003068+398782668+399185953+400085288+401129042+401728426+401468466
2858+400670305+400133226+400224035+400549466+400550589+400056179+399265677
2848+398536673+398136239+397966714+397646465+397022723+396418732+396174263
2838+396148552+395981935+395694249+395604477+395709767+395593046+395019344
2828+394253631+393710909+393600724+393890828+394308076+394417801+393981032
2818+393201845+392480125+392057867+391941808+391956578+391906337+391806919
2808+391782274+391730938+391457936+391125508+391140739+391551797+391875731
2798+391616376+390830307+390083971+389831065+389947614+389987519+389733836
2788+389292029+388788953+388233994+387648459+387138387+386747684+386366714
2778+385936797+385579522+385351780+385145747+385002106+385126802+385454134
2768+385646405+385587728+385436399+385279484+385138895+385070083+384939369
2758+384441965+383558753+382644187+381983045+381638237+381664927+381996405
2748+382229271+382024793+381618313+381446456+381402030+380960367+379997719
2738+379052058+378720926+379048718+379551363+379772799+379717663+379606182
2728+379381521+378840469+378139537+377664590+377445803+377147061+376600912
2718+376034984+375777760+375896813+376148452+376274703+376276632+376286278
2708+376288638+376157003+375884663+375661154+375748824+376190488+376549145
2698+376229357+375254012+374351020+374074822+374247600+374415139+374407653
2688+374207753+373711587+372978667+372420139+372436291+372986441+373648101
2678+374000050+373867004+373312679+372529662+371711807+370969329+370379705
2668+370092595+370287284+370982429+371912226+372622573+372773988+372406290
2658+371818653+371200382+370590719+370137510+369990730+369954655+369718822
2648+369400070+369348476+369521542+369559403+369356106+369129458+369075474
2638+369232820+369496234+369616900+369381298+368876725+368435637+368280796
2628+368331613+368373678+368289549+368050175+367645365+367187780+366910516
2618+366905219+367083727+367439275+367994953+368501858+368604155+368322630
2608+368039033+367995961+368058813+367981248+367747230+367542838+367435848
2598+367308561+367161810+367187809+367414831+367603617+367651008+367736059
2588+367910104+367922830+367641478+367328340+367322006+367642659+368012487
2578+368134074+367885746+367338331+366689685+366201321+366071903+366226053
2568+366327803+366167750+365895698+365727008+365668561+365698735+365902493
2558+366231610+366429581+366359186+366170687+366068333+366104322+366236015
2548+366451664+366754322+366992429+366814842+366039771+365046662+364484160
2538+364562445+364921073+365195313+365420205+365774342+366148921+366200659
2528+365819516+365336997+365170754+365415569+365857924+366217473+366281420
2518+365989962+365532751+365256870+365362189+365733400+366120762+366380549
2508+366451981+366286026+365980144+365805897+365929787+366252138+366579816
2498+366792759+366839113+366726193+366516676+366302063+366210765+366322045
2488+366495543+366477577+366229854+365930133+365680078+365486828+365456108
2478+365693005+366042967+366198183+366074523+365890717+365865006+365996814
2468+366167577+366322822+366496982+366702843+366844267+366803930+366641545
2458+366581083+366706787+366807874+366666507+366380923+366223750+366247762
2448+366232359+366026470+365758333+365648493+365755397+365949942+366033322
2438+365893999+365645643+365556015+365769245+366166224+366516042+366678773
2428+366673072+366624270+366627264+366637514+366566111+366477807+366549556
2418+366791665+366988916+367041230+367183403+367657227+368302303+368728966
2408+368807712+368753094+368793258+368981671+369312054+369790917+370339195
2398+370791627+371089908+371408545+372046423+373262956+375267716+378358180
2388+383044592+389954351+399499925+411635450+426033017+442465143+460842979
2378+480891823+502023203+523543328+544682136+564375374+581452779+595343239
2368+606313480+614846050+621344319+626518807+630945921+633237331+629927044
2358+618883845+601372205+579800889+556064961+533136178+515346295+505795078
2348+505247577+512632340+524780792+536781542+545180749+550099452+553457592
2338+556650813+559583988+561709386+563652302+566392458+569239546+570405204
2328+569404465+567165858+564238211+560475492+556012100+551164166+545680917
2318+539208734+532150525+525367046+519236274+513255160+506522239+498639094
2308+490100650+481773365+474234768+467597436+461570659+455668347+449683088
2298+443902364+438653766+433851756+429221055+424741396+420645759+417125062
2288+414148382+411496357+408973376+406664461+404894007+403796844+403036055
2278+402142766+401035440+399955409+399013145+398095441+397174714+396460451
2268+396150222+396117342+395999613+395633412+395203524+394886068+394599303
2258+394204628+393708721+393195395+392724422+392309707+391948085+391702492
2248+391671915+391806833+391907114+391859550+391727713+391613526+391568640
2238+391597000+391645888+391658786+391668863+391734998+391772686+391596798
2228+391188792+390772983+390547689+390478733+390402349+390176507+389747397
2218+389234964+388859579+388616318+388197861+387432061+386623218+386257881
2208+386460661+386892881+387172102+387245895+387288161+387411849+387622662
2198+387884723+388117158+388255703+388340696+388455949+388669266+389068606
2188+389686071+390364027+390859099+391089202+391189742+391374872+391790335
2178+392428559+393124827+393625484+393714220+393401083+392986886+392795192
2168+392880760+393151689+393610081+394200597+394615369+394605350+394354344
2158+394254898+394475327+394925081+395394154+395629669+395565435+395486085
2148+395705765+396192488+396697694+397026552+397052637+396782630+396517545
2138+396675698+397368568+398278210+398960255+399227441+399252145+399310822
2128+399497075+399731352+399921694+400050421+400228814+400657492+401397437
2118+402251483+402984719+403541607+403987531+404374376+404704097+404981015
2108+405305842+405826510+406517998+407159936+407589680+407784973+407733897
2098+407503103+407364011+407569958+408067448+408588173+408954921+409212577
2088+409492115+409802690+410059339+410303895+410657427+411028033+411185609
2078+411153449+411194679+411424004+411735184+412058514+412454888+412987504
2068+413606639+414144812+414450694+414563039+414701556+415092690+415825264
2058+416763324+417587599+418073400+418320259+418566946+418866379+419125014
2048+419381547+419832309+420570353+421440811+422214010+422843452+423483720
2038+424261295+425116320+425915633+426654253+427464248+428443019+429536583
2028+430594243+431537399+432486745+433653007+435063422+436517572+437837092
2018+438995148+440007001+440912642+441867458+443051168+444506297+446177794
2008+448022128+449973106+451889505+453634392+455177681+456579545+457899065
1998+459192327+460598653+462286361+464187184+465896484+467067411+467867098
1988+468820187+470246207+471998034+473676009+474976728+475885363+476659455
1978+477665405+479144488+481051300+483147013+485266652+487407597+489542899
1968+491508273+493166037+494591740+496046926+497825500+500097619+502785029
1958+505608336+508329835+510889525+513273299+515427200+517413822+519461885
1948+521718400+524161484+526835304+529779017+532626911+534832350+536399765
1938+537806063+539360465+541191785+543504789+546272700+548961607+551086947
1928+552882796+555041822+557837431+560725288+562995565+564761700+566800435
1918+569414599+572001008+573876552+575091558+576266372+577965596+580193952
1908+582429333+584258695+585775265+587168780+588283764+588925126+589376348
1898+590200134+591526161+592857716+593751638+594406014+595308632+596574772
1888+597893889+598985149+599802082+600443905+601118320+602003259+602968124
1878+603612020+603711927+603531346+603667473+604650073+606510703+608489666
1868+609351342+608591416+606981388+605564380+604806700+604570032+604410642
1858+603917845+602981253+601865060+601035746+600737004+600609860+600018135
1848+598974381+598307049+598466324+598574062+597559733+595741255+593984332
1838+592505710+591157398+590028882+589395466+589408134+589850143+589988343
1828+589191449+587746224+586270193+584772511+583020137+581295634+580068305
1818+579341605+578768767+578146004+577494046+576806906+575953464+574929462
1808+574145466+574130782+574928828+576101684+577198702+577872080+577803614
1798+577050022+576271900+576270345+577262216+578400637+578512291+577816167
1788+577521629+577970145+578464094+578700876+579449343+581319474+583731003
1778+585658429+586976106+588531026+591025533+593946385+595913313+596467955
1768+596323076+596266183+596873514+598439029+600560396+602304650+603374432
1758+604294036+605382187+606662089+608411641+610928317+613878709+616315286
1748+617580160+617957157+618257166+619006612+620182980+621682448+623585516
1738+625868634+628459535+631283762+633579088+634338956+633941862+633209519
1728+632396904+631899845+632306498+633592044+635352076+637849807+641837446
1718+647041071+651173417+652179397+650851873+649146545+648392780+649063855
1708+650875367+652958613+654458023+655644353+657756564+661157833+664049203
1698+664752352+664144273+663561012+663384059+663574429+664094521+665077870
1688+667147930+671243826+677233750+681998476+682384399+680224797+678639357
1678+678889787+680759284+682954933+684328639+685401242+687075993+688663736
1668+689039927+689143750+690559031+693035398+694798655+694991962+694810632
1658+695606720+697839568+701812294+707339824+711493994+712075758+711736017
1648+712553756+713620371+713203929+712088657+712116412+713641101+716052917
1638+718783400+721238864+722753706+723743044+725327620+727702238+730501474
1628+733772548+737943014+742909742+747894493+752446966+756975543+762033021
1618+767688732+773211195+777281179+779546504+780654981+780939385+780624347
1608+780642083+782048841+784654425+787146801+788576305+789060868+789101752
1598+789074515+789549346+791231814+794177599+797619638+800825527+803489846
1588+805357962+806545559+807953296+810086007+811774693+811707436+810846106
1578+811514244+814455999+817703464+819742025+821854179+825516876+830294212
1568+834186839+836168509+836970125+837548549+838652593+841198175+846121427
1558+851855797+854228457+852676819+849917717+848198570+847993458+848681290
1548+849826218+851284053+852692654+853617383+853917450+853307931+851602949
1538+850401705+851348431+853923899+856116208+856339689+855670341+856082349
1528+857662433+858893390+859001992+859427417+861728559+864865867+866622962
1518+867297549+868684672+871533085+875490896+879906264+883872540+886572503
1508+888139861+889230718+889753689+889837070+890448028+892192570+894898119
1498+897825996+900540701+903217515+906201249+909620138+912441717+912792975
1488+910608555+908529685+908958622+912326378+917497987+922573777+926378014
1478+929088457+931401576+933801530+935764946+935705002+934049253+933851858
1468+936175457+939484075+942210872+943844623+943551870+940288455+934783612
1458+929418466+925971246+924216511+924011458+925922588+928932752+930072382
1448+927506472+923124445+920339950+920844840+923947598+927136327+927757593
1438+925159437+921142372+918602088+918957261+921034116+922512105+922552586
1428+923065077+925620161+928908740+931019568+932200313+933715040+935209498
1418+935003580+933157807+931297235+930134399+929674251+929956351+930534430
1408+930448170+929227866+927251436+925003962+922860714+921260879+920443254
1398+920819273+923006400+926370931+928956534+930231484+931378370+932400012
1388+932041671+930430146+929494707+930825801+934503988+939197137+943292573
1378+946624800+950287670+954417943+957439336+958207439+957615713+957089345
1368+957240616+958237440+960041926+962163753+964012405+965381677+966003807
1358+965788791+966108608+969073224+974930246+981622455+987183729+991140044
1348+993654474+994831014+994588359+993357114+992500160+992717940+993632707
1338+995147837+997684610+1001054957+1004872841+1009359727+1013798934+1015930896
1328+1015299899+1014431314+1015536451+1019029566+1024605927+1031262895
1320+1037287485+1041646536+1045270480+1049907198+1055878925+1061486151
1311+1064209954+1063850519+1063921577+1067558995+1072547431+1073741823
1302+1071223017+1069530645+1069771113+1069251942+1065468378+1058463492
1294+1051818155+1050272045+1053918331+1056178013+1051946911+1045215545
1285+1042079101+1042267859+1042412739+1042320260+1043527320+1044871082
1277+1043944568+1041149247+1037927004+1033919210+1028531607+1022802996
1268+1018234572+1014311540+1010027002+1006812129+1006728288+1009088510
1260+1011603976+1013095728+1013054959+1010373192+1004459163+996455323+988712680
1250+983393831+980557395+978212721+975166107+971938796+968011274+961484156
1240+952436792+943350502+935731720+928866301+921942261+914760652+906690188
1230+897485046+888687478+882507645+879550054+878445723+877509189+875891791
1220+873305439+869862307+866406679+864309728+864291934+865212633+864630754
1210+861375228+857262287+855415535+856987673+860233525+862665093+863529244
1200+864014901+865579553+868766210+872916695+876308924+877867702+878988330
1190+881829659+886393534+891241007+896085370+901277824+905766265+908226451
1180+909646396+912676945+918251809+923967867+926768198+927029280+927786903
1170+930784168+936187089+944544605+955600473+965996206+972002483+974254334
1160+975747928+977063359+977103322+976315008+976713599+979794187+985303752
1150+991817568+997113384+998525555+995576487+991197512+989566524+993478960
1140+1001915481+1009325753+1010197678+1005504990+1000625731+999562399
1131+1002497993+1006206699+1007934427+1008157504+1008495287+1008895376
1123+1008072051+1005715169+1003207418+1002925030+1006862457+1014708635
1114+1023198132+1029479773+1033734829+1036183844+1035000739+1029921667
1105+1026396075+1030413427+1040286420+1048666279+1050803999+1048252370
1097+1044853001+1042928569+1043125043+1043251151+1040048256+1035303627
1088+1034537079+1039018091+1042754898+1039687669+1033730452+1033519813
1080+1038473124+1039928598+1035820033+1032075165+1030013569+1024369721
1071+1013631252+1004080265+1000639897+1000975031+1000662469+999518060+999207341
1061+999016164+998725369+1000710494+1005548983+1010039094+1010812092+1007898264
1051+1003077856+997776052+994175141+993972909+996007095+997090811+995406271
1041+992393976+991274098+993831369+998321711+1000594291+997883157+991838874
1031+986901456+985835015+988141799+991841983+994860843+995499326+993830678
1021+991349877+988883587+986330576+983778372+983546657+987990701+994895047
1011+998519106+995830084+989663379+983697064+978055634+971530071+965491143
1001+962902431+964092734+965595714+963386073+956745400+947619032+937436645
991+927388024+919688799+915885426+915044077+914805625+913521633+910775201
981+906954149+902994323+899461591+895779545+890973936+885383697+880824717
971+878767843+879037045+880091624+880081950+877885438+874109186+870713790
961+869010133+868303471+866302856+861794895+856999823+855447839+857912690
951+861957740+865387168+868204140+871060269+874571695+879791270+886407815
941+891512973+893074054+893059659+894896679+899873253+906679535+912863860
931+916814301+918942002+920677273+923124042+927131606+932913827+939391654
921+944633687+946991260+946462415+944220527+941474036+938599539+935172414
911+931727382+929811530+929882703+931216791+933072008+934523394+934207262
901+931642158+928348570+927125329+930476271+938314386+946658947+951131322
891+951519779+949923168+946831063+942713055+940673802+943460428+948996366
881+952182562+952215269+953589263+958887670+966039739+972020795+976001294
871+978179899+977684567+973797814+968676591+966394912+968642386+972732178
861+974724904+973648328+971789310+972836058+978470003+986209882+991211101
851+990538990+985955133+981524909+979903595+980718283+981421835+980592982
841+979859026+981863268+987269068+993529288+997004321+997084477+996114890
831+996106598+996973687+998823030+1002986990+1008554253+1011484664+1009419614
821+1005580539+1005000100+1009413740+1017020371+1024930121+1029901282
813+1027985833+1018481258+1005208436+993023131+984963204+982169957+985015375
803+992459852+1001202946+1008424921+1014575732+1019927289+1021620006+1018467669
793+1014277221+1012118080+1009894560+1005266480+999993582+995384044+989870103
783+984097498+982438870+985837894+988814832+987079043+982805330+979006333
773+974886598+969856356+966568929+965987223+964675534+961532468+960077743
763+962120335+965833706+969266588+973498151+980884583+990926755+999457022
753+1003077165+1001420150+995801638+990371998+989218145+992679359+998199519
743+1003259243+1006864876+1007754997+1003491534+995587889+990091914+989245325
733+990174718+992124257+996943053+1003358517+1007543552+1008233514+1008185029
723+1009957096+1012190174+1011742407+1010131803+1010754278+1011998422
714+1010335763+1005199568+997359495+987902599+980944240+980007245+983066643
704+986398064+989250968+992474247+996767654+1002442137+1007582248+1006339716
694+995435869+983785051+981336727+986417066+990026384+987206763+982233183
684+980459274+980767920+978117709+970648817+963480048+962117629+966108032
674+971925783+976461499+975974115+967700094+956000907+953040552+961615388
664+972337963+975673991+964286674+939234739+914612433+903169952+908392867
654+926796701+950385965+968991571+975225533+970766747+963915954+961362885
644+965694585+976439963+987944634+992037882+986263664+974746210+965200175
634+960795863+956318651+946934195+935963032+928810099+923519524+912808465
624+895268840+878295833+871657925+879017927+894862014+913105940+931205390
614+943177406+947918407+954529943+963291809+955798041+927524323+899276230
604+883402834+872902357+861173284+852151084
##END=
