##TITLE=<SNM>
##JCAMP-DX=4.24
##DATA TYPE=INFRARED SPECTRUM
##DATE=29/4/2025
##SAMPLING PROCEDURE=Instrument type and / or accessory
##ORIGIN=Admin
##XUNITS=1/CM
##YUNITS=ABSORBANCE
##RESOLUTION=4
##FIRSTX=4497.3318
##LASTX=599.83466
##DELTAX=-1.4281778
##MAXY=2.0708568
##MINY=0.5361644
##XFACTOR=1
##YFACTOR=1.9286357e-09
##NPOINTS=2730
##FIRSTY=0.54272908
##XYDATA=(X++(Y..Y))
4497+281405701+282047723+282758818+282528204+281773657+281869277+283490218
4487+285455904+285761927+284120465+282345462+281815502+282081873+282218813
4477+282017930+281568632+280901361+280200341+279652826+279420235+279950226
4467+281508522+283395586+284556010+284882708+284972765+284967295+284612628
4457+283989180+283385140+282890906+282632107+282886147+283569551+284120743
4447+284117498+283594769+282838924+282394571+282886240+284027811+284466911
4437+283571251+282417348+282130363+282400968+282239180+281315180+280123418
4427+279342632+279358363+280142888+281292557+282186456+282268756+281394297
4417+280163347+279715502+280724985+282615078+284032694+284242107+283721542
4407+283143153+282513617+281691604+281095815+281380668+282447665+283125816
4397+282369939+280658169+279403577+279114274+279043131+278696098+278625047
4387+279370045+280466804+280967219+280678380+280416954+280820297+281349701
4377+281088707+280182292+279568177+279611104+279965184+280493290+281447948
4367+282756593+283681304+283463979+282261926+281079683+280636566+280560478
4357+280112292+279578870+279924420+281075882+281857069+281769484+281651149
4347+282383105+283876377+285159772+284866668+282430173+279347700+278001908
4337+278867868+280178893+280601581+280669511+281179630+281925122+282385948
4327+282432738+282267056+282257476+282505273+282582103+282209635+281901078
4317+282176164+282543255+282187568+281398438+281273736+282078442+282836204
4307+282687180+281907197+281208866+280768778+280397700+280113992+280173113
4297+280702486+281334248+281290456+280282332+279133559+278729599+278879890
4287+279154513+279872129+281196690+282269250+282187352+281117542+280041427
4277+279975599+281072266+282131970+281956769+281092849+280838376+281124001
4267+280981374+280383299+280155312+280591723+281248147+281795908+282304513
4257+282800694+283145471+283300955+283217697+282632787+281593604+280794027
4247+280651648+280671149+280446098+280414142+280935294+281567458+281804747
4237+281712619+281523202+281335793+281385241+281925215+282728964+283188275
4227+282963255+282267489+281570610+281163343+281016760+281126937+281733758
4217+282788703+283542787+283219304+281992155+280809078+280308045+280385184
4207+280757652+281425696+282304080+282939829+283118429+283155670+283162067
4197+282881078+282508888+282583617+282984950+283110981+282919864+282958434
4187+283492999+284005807+283612571+282059158+280115104+278738839+278279064
4177+278622420+279469003+280395135+281183771+281885842+282403842+282695493
4167+283164416+283962293+284371321+283817255+282911087+282640606+283172946
4157+283879189+283974098+283087339+281660513+280637184+280513471+281001462
4147+281596509+281879939+281494553+280583162+279916354+279921021+280140663
4137+280259338+280793718+282010575+283039312+282862288+281663264+280662959
4127+280783520+281717687+282282447+281688204+280506146+280018773+280674239
4117+281853021+283045493+284262257+285165922+284902889+283281701+281310420
4107+280223921+280521970+281873264+283442346+284470589+284817035+284753865
4097+284481838+284193370+284095401+284003582+283521184+282820381+282525052
4087+282795131+283176006+283272275+283152765+283189604+283671599+284427661
4077+284883759+284657224+283959882+283337361+283200606+283544796+283901039
4067+283714032+282936275+282119732+281852001+282196438+282763330+283235621
4057+283540686+283543003+283109158+282523259+282336933+282784284+283660937
4047+284585216+285055714+284601904+283359984+282261895+282157158+282927807
4037+283878138+284725494+285628108+286527322+287192863+287649084+287890699
4027+287528894+286400549+285145834+284567445+284734858+285091997+285181436
4017+285008986+284850876+284899551+285031145+284911635+284537096+284507613
4007+285255485+286271613+286843357+287113962+287462479+287547591+287038399
3997+286484086+286450152+286556218+286219971+285699498+285639728+285992046
3987+286024805+285395207+284690725+284689613+285571335+287088898+288910567
3977+290426956+290794016+289644439+287536095+285563021+284616213+284864814
3967+285876986+287219070+288682673+289926695+290394598+289886704+288956090
3957+288461547+288690430+289029057+288753848+288046925+287785931+288408638
3947+289485525+290423000+291033097+291345146+291418669+291385323+291288095
3937+290936859+290296537+289867883+290189914+291034673+291541424+291242572
3927+290624718+290624501+291583331+292692515+292920162+292309230+291729451
3917+291637848+291682753+291413972+290869146+290404272+290157371+289867883
3907+289434903+289394695+290409865+292478806+294948091+296906794+297399761
3897+296110710+293984255+292500254+292415822+293144502+293435102+293119839
3887+293320784+294568175+295700723+295626242+295065129+294987619+294978811
3878+294519222+294443040+295836860+298496366+301152812+302567152+302015929
3868+299969889+297990109+297253054+297502705+297590816+296966502+295797888
3858+294519994+294201116+296385858+300532671+302789761+301946980+300148953
3848+298739372+297861637+297363262+297110489+297181571+298102233+300220622
3838+302537082+303364967+302559920+301466684+301122834+301357342+301426755
3828+301083152+300644578+300575598+301347699+302975377+304371144+304672005
3818+304750565+305276941+305203294+303706653+301718869+300733245+301810688
3808+304848627+307782632+308616482+308170244+308235052+308589780+307987069
3798+306944054+306749939+307423917+308111555+308513692+308969449+309822151
3788+311269436+313232991+315003234+315958881+316847587+319068179+322580943
3778+325763054+327613033+328570627+329605236+331636843+334926380+338717012
3768+342471578+346758700+351735747+356415580+360554914+365567657+372417892
3758+379555977+384718084+388108773+392065303+398630934+407447041+415634353
3748+421385202+425653318+429860643+433767478+436155019+437536414+439804137
3738+444318627+450663688+456657914+460506184+462395937+463258776+463506202
3728+463305226+462922467+462832533+463730048+465602308+467115978+467212247
3718+466507086+466145465+466793019+469041055+472990632+477180310+480030099
3708+481857795+483622567+485611248+487679014+489652798+491686723+494189200
3698+497102746+499778415+501774575+503578844+506222898+509808227+512427958
3688+512200930+510311486+509242602+510001013+512014757+514091394+515433509
3678+516193032+517077195+518428489+520005205+521603986+522727571+522016693
3668+519255386+516425345+515709954+517524855+520482503+523492843+526969294
3658+531210028+534926240+536758726+537036377+536521190+535372262+534298187
3648+535287459+538944333+542950374+544837376+544475292+543485897+542787504
3638+541974330+541063680+540942656+542023901+544110612+547255699+550937792
3628+553353334+554119100+554732380+555589440+555916848+556047391+557680972
3618+561186350+564909424+567702501+569797742+572110679+575373266+579013762
3608+581140031+580540164+578339165+577043748+578411051+582163422+586527529
3598+589815211+590843732+589200386+586174160+583987687+583867157+585441339
3588+587556668+589645172+592361357+596172140+599937800+601813615+601377606
3578+600049120+599394056+599716643+600324979+600896970+602030692+603793580
3568+604936759+605360406+606821845+609425042+611073581+610619586+609181448
3558+608396212+608833890+610388601+613223030+617256267+620991331+622619596
3548+622460559+622432930+623077115+622979764+621197344+618486907+616521282
3538+616658439+618697803+620774501+620918519+618763260+615584240+613016275
3528+612191851+613112884+615075851+617981547+621643614+624395279+624033071
3518+620432876+616529441+615480522+617342430+619163914+618270262+614883127
3508+611354076+610149705+612524698+617399728+621695163+623129839+622399305
3498+622086854+624010943+627746626+630905743+631376057+629781973+628586379
3488+628845363+629504012+629729990+630017099+630889982+632234353+633829426
3478+635131704+635077064+633425064+631656675+631157558+630826441+628377769
3468+623962237+620282430+619367578+620833530+622380638+621482660+617994836
3458+614838747+614700602+617210836+620101883+621530563+620666519+617757485
3448+614282827+611879586+611007259+611353396+612626067+614043065+614292284
3438+612619639+609178049+605145677+602675496+603317209+606273342+609083047
3428+610373643+610763171+610775965+609934358+608090128+606054905+604762516
3418+604486781+604818702+605221457+605158225+604030066+602369845+602236520
3408+604693845+607811179+608874376+607562084+605364733+603487682+602672344
3398+603399169+605449413+608135435+610732760+612283144+611976628+609912477
3388+607077369+604792370+603899955+603955708+603900635+603728679+603754578
3378+603151743+601499434+600038427+599893111+600834604+602659425+605845430
3368+609542852+611014120+608784318+604824265+602264829+602272988+603794075
3358+605142525+605501457+605329254+605429201+606017324+606866411+607749678
3348+608229386+607524071+605235549+602428997+601166463+602235222+604087055
3338+604693907+604092309+604054852+605531187+607744733+609570791+610463329
3328+610027815+608458764+607445325+608744574+611713316+613656443+613351904
3318+612604434+613160601+614275904+614778173+615347692+617027816+619343472
3308+621284497+622756011+624069539+625208268+625848065+625371385+623404833
3298+620380894+616992646+613884522+612629405+615112381+620376320+624006987
3288+623015552+619573591+617407145+617267763+617783198+618655401+620656320
3278+623224780+624649875+624600427+624199526+623679826+622376621+620792488
3268+620656135+623086448+627213822+630352542+630318423+627878776+625620233
3258+624662299+624303182+624293786+625536727+628493169+632027907+634189470
3248+633925973+631904905+629375324+626741902+624105945+622146130+621423879
3238+621709442+622445230+623252718+623781751+623776868+623719632+624668727
3228+626804948+628654246+628345505+625642299+622529910+621149194+621318863
3218+620988302+618863887+615745997+613411303+613114367+614844743+617312019
3208+619100496+619796850+619694925+618951967+617526748+615713114+614188690
3198+613918147+615601794+618390112+619871764+618312911+614646147+611639701
3188+611044716+611859745+611812707+610480451+609678031+610619091+612306261
3178+612997484+612236972+610824239+609538711+608477802+606896636+603947735
3168+600283937+597920811+597823893+598822065+599507725+599918454+600538039
3158+600865880+600015248+598251681+597036740+597355619+598294515+597848617
3148+595520228+592941384+591413375+590490796+589298108+587783017+586330972
3138+585163811+584276217+583444994+582413877+581484808+581612199+583272729
3128+585351776+585997568+584926460+583878963+584156058+584847158+584323996
3118+582582186+581005718+580337303+579984181+579309523+578526759+577955571
3108+577403978+576656693+575745920+574605090+573314184+572500515+572473319
3098+572392224+571426440+570243517+570162793+571448630+573147730+573919924
3088+572891712+570429195+568146793+567476956+568231535+569072400+569176674
3078+568839129+568628912+568624771+568476736+567852577+566736470+565306739
3068+563687684+562052002+560741564+560004045+559863551+560328796+561350394
3058+562596611+563680390+564348187+564144956+562579613+560109803+558177741
3048+557661564+558089537+558752637+559521061+560155233+559998544+558974968
3038+557923886+557357520+556771992+555672451+554291674+552772318+550870048
3028+549049306+548483558+549254393+549838808+549046463+547294392+545537438
3018+544139540+543269747+543262886+543998489+544724882+544866798+544475354
3008+543834197+543167698+542531548+541630294+540140978+538424448+537350249
2998+537175512+537218717+536811574+536054585+535584086+535796156+536274320
2988+536221967+535589216+535169587+535398964+535769454+535584333+534671088
2978+533247291+531634169+530231016+529335078+528919528+528859943+529179316
2968+529774487+530238990+530251846+529713294+528387281+526245559+524216146
2958+523453285+523816419+524122380+523764622+523016719+522072878+520826105
2948+519409602+518293836+517833319+518005584+518582087+519365531+520191253
2938+520787165+520742785+519772118+518128401+516612445+515864387+515681120
2928+515335199+514476038+513380082+512374863+511326347+509916982+508371759
2918+507467847+507535900+508003185+508240072+508163706+507890783+507551013
2908+507454898+507847825+508404271+508345582+507267520+505703878+504549975
2898+504045233+503737357+503306416+502839842+502493705+502411312+502697586
2888+503139961+503277303+502862557+501962230+500784345+499589338+498503210
2878+497464305+496552450+495949059+495339086+494088666+492393244+491393465
2868+491692163+492541898+492948052+492838834+492597527+492199377+491486644
2858+490736423+490366860+490435037+490712471+490902878+490661540+489789924
2848+488564754+487588586+487117561+486705226+485755667+484365711+483309746
2838+483105340+483411857+483565980+483381322+483035834+482501207+481664730
2828+480787799+480258951+480017830+479691565+479196743+478876628+479071423
2818+479615044+479817410+479159441+477915944+476774774+476052553+475612866
2808+475258447+474883166+474391837+473633334+472472848+471094234+470031841
2798+469520671+469101444+468329620+467475898+466933699+466435386+465575514
2788+464664494+464307447+464484843+464765244+465086101+465560123+465814997
2778+465347805+464335756+463409191+462802030+462229637+461437632+460539469
2768+459859990+459521363+459246771+458773985+458340634+458275950+458259508
2758+457690237+456697813+456051124+456108514+456411446+456210687+455111795
2748+453463472+452204183+451982161+452386739+452421755+451712668+450735171
2738+449974412+449503542+449294593+449296756+449212849+448735489+448025136
2728+447513718+447280169+447032094+446616884+446118138+445570994+445035780
2718+444711369+444486133+443788605+442473254+441318702+441006066+441123598
2708+440748225+439656936+438484088+437901929+437977183+438223620+438115761
2698+437506869+436653302+436001421+435912878+436430878+437233050+437792030
2688+437667761+436853876+435823778+435041231+434517142+434010948+433440657
2678+432911531+432545645+432366427+432218546+431867341+431280948+430699808
2668+430322488+430013685+429475813+428726395+428180921+428118492+428301883
2658+428299287+427929879+427262823+426477865+425875587+425759631+426079066
2648+426321084+426035552+425413000+425021865+425043560+425173794+425144249
2638+424852351+424194165+423293622+422647891+422601719+422892165+422985653
2628+422688593+422260681+422005220+421867012+421513984+420812036+420051370
2618+419570703+419299511+418852005+418060773+417262340+416950415+417204146
2608+417582857+417641237+417452654+417397952+417447153+417068936+416075307
2598+415083130+414754980+414978455+415157457+415016345+414763850+414660225
2588+414769166+415025091+415260711+415257188+414933673+414368821+413634238
2578+412849249+412314437+412265452+412620768+413177214+413754706+414051241
2568+413814755+413222150+412665024+412209792+411661938+411070415+410788313
2558+411011386+411504384+411876728+411965209+411827404+411555624+411266538
2548+411094273+411047823+410996521+410856984+410694022+410614441+410631099
2538+410672450+410699554+410713708+410633077+410339262+409934931+409750026
2528+409984410+410473607+410839368+410810379+410406635+409875655+409484026
2518+409340966+409354873+409357624+409307465+409326008+409536132+409949889
2508+410454507+410823916+410908997+410898057+411120264+411514490+411619072
2498+411204079+410576057+410084326+409671681+409156648+408674993+408503500
2488+408628511+408834555+409086710+409510882+410048260+410398260+410374618
2478+410181461+410175743+410372052+410412847+410081946+409592132+409303818
2468+409383770+409751509+410187024+410488472+410577880+410450242+410133496
2458+409751787+409460291+409255081+408997487+408639421+408286268+408052286
2448+407964547+407985160+408059456+408158260+408302834+408529708+408834679
2438+409190798+409582613+409957584+410216322+410350882+410496971+410755708
2428+411041055+411176759+411047823+410648344+410153801+409902851+410083183
2418+410476759+410719827+410749960+410793783+410998313+411275408+411444397
2408+411385337+411142578+410943240+410996304+411279580+411662958+412138556
2398+412716048+413217483+413437311+413427113+413418305+413525298+413661280
2388+413662918+413365179+412578490+411053200+408503408+404746617+399911702
2378+394464619+388868760+383182472+377172113+370921808+365058526+360137912
2368+356182741+353120326+351083032+349881473+348956577+348343080+348962171
2358+351644794+356439532+363007603+371152978+380331169+388666455+393453312
2348+393010041+388126327+382084723+378298233+377380568+377784498+378371292
2338+378973169+379579217+380019893+380288860+380741619+381767884+383379554
2328+385260251+387046225+388512641+389784632+391374482+393731613+396760063
2318+399890347+402551490+404572250+406189606+407709518+409244975+410763867
2308+412224472+413627748+415030066+416470645+417829727+418877193+419546257
2298+420054275+420685975+421552213+422601873+423726386+424756916+425496412
2288+425898889+426131759+426393123+426767724+427208616+427508210+427415309
2278+426961962+426487415+426196691+425959154+425663547+425477035+425575313
2268+425805371+425801940+425415843+424901335+424617132+424640713+424796320
2258+424996152+425331194+425778236+426088028+426144430+426204850+426567274
2248+427196717+427859291+428436846+428958832+429464254+429920259+430204987
2238+430177976+429833199+429346846+428907530+428518250+428043084+427440868
2228+426833428+426346580+426059225+426062810+426302572+426433022+426145048
2218+425559181+425050730+424837238+424945777+425370227+426008046+426577040
2208+426852837+426959830+427198201+427615203+428012797+428347746+428777667
2198+429299468+429683248+429845067+430074722+430772374+431960149+433135067
2188+433786886+434007672+434287178+434791889+435257072+435542758+435829558
2178+436237010+436638653+436888273+436968441+436923752+436806838+436651015
2168+436485425+436475906+436909412+437826891+438813598+439411055+439628256
2158+439780741+439970004+440011479+439807814+439554671+439536004+439822494
2148+440232357+440596265+440945987+441329766+441598826+441609148+441520976
2138+441634645+442029024+442571316+443124270+443550111+443731771+443790120
2128+444040822+444560769+445032844+445195714+445233603+445516632+446130005
2118+446864866+447529325+448047078+448374765+448572032+448865012+449457339
2108+450350589+451393759+452354011+452951468+453050487+452825869+452598810
2098+452553966+452684849+452918770+453208969+453534492+453837887+453998686
2088+453979154+453969234+454211591+454675229+455050850+455106479+454951614
2078+454887609+455044885+455293733+455536554+455865384+456306709+456674108
2068+456838956+456905340+457043733+457367958+457907932+458485270+458804581
2058+458860519+459010564+459514502+460256873+460965372+461457164+461685522
2048+461776321+461991544+462494895+463204878+463976608+464828878+465834931
2038+466878256+467753642+468451108+469091214+469675846+470173912+470726618
2028+471502212+472469665+473513113+474644054+475964381+477519215+479274810
2018+481151459+482998934+484604916+485826378+486705257+487426952+488205884
2008+489240926+490675663+492475297+494365699+496005554+497242468+498142146
1998+498810654+499372385+500144177+501501034+503325206+504876641+505607423
1988+505853860+506385397+507571966+509220845+510974678+512652731+514290515
1978+515981239+517744838+519562644+521414415+523203263+524821329+526382468
1968+528186954+530379670+532813321+535234920+537437773+539334726+541090877
1958+543030047+545243778+547523213+549760185+552088759+554547259+556941352
1948+559170288+561464434+564171163+567315570+570381354+572741204+574441107
1938+576201399+578555748+581362548+584222380+586996544+589676880+592011203
1928+593620492+594553455+595501376+597237438+599863072+602822295+605588980
1918+607908592+609543100+610435639+611073272+612119842+613702800+615381255
1908+616786200+617899958+618736187+619279190+619767923+620540797+621559676
1898+622531270+623424612+624378714+625284665+626027623+626863791+627959685
1888+628861310+629014105+628513195+627909805+627617875+627682281+627942255
1878+628273001+628584586+628699368+628534149+628348966+628439147+628607641
1868+628286847+627241884+625775932+624337115+623255067+622561000+621878122
1858+620746068+619119967+617381618+615986253+615259551+615212081+615294536
1848+614759383+613547718+612340628+611497043+610551718+609162844+607571603
1838+606007497+604416256+602808202+601482004+600734533+600449650+600069765
1828+599189650+597970135+596645235+595160060+593543724+592094894+590976501
1818+590037419+589132765+588352783+587897489+587893595+588275149+588789101
1808+589238646+589610682+589861754+589831529+589506222+589183079+589193525
1798+589543988+590065048+590861348+592232978+593939989+595029208+595111415
1788+594947618+595477641+597113941+599594445+602103010+603790984+604490057
1778+604879770+605865333+608036971+611453776+615174006+617523595+617899463
1768+617169918+616376893+616186580+616929291+618435110+620071472+621517088
1758+623044850+624737583+626367208+628058953+630113213+632263960+633974371
1748+635415166+637093868+638894274+640376729+641609966+643095326+644938938
1738+646800598+648764554+651117111+653066851+653409588+652930374+653190100
1728+654495840+656215522+657762507+658941536+659937916+661281174+663502199
1718+666667745+670063657+672611966+673852187+673974262+673433547+673047790
1708+673936867+676557865+679750113+682130361+684274308+687622441+691564570
1698+693890548+694420261+694514213+694970557+696055449+697936765+700391556
1688+702925525+705677994+709236034+712833262+714672114+715182604+716238631
1678+718797943+722474597+725945917+728112796+729262775+730478704+732514298
1668+735366961+738527871+741577646+744200004+745945462+746530433+746318177
1658+746261744+747473038+750693224+755291220+758451698+759284219+760286903
1648+762449146+764120431+763277835+760970462+759572687+759686479+760433702
1638+761048033+761687583+762433014+762370091+761154965+759481269+757804298
1628+756155141+754905525+754827088+755820748+756264545+754954726+752916041
1618+752030981+752896385+754254911+755083538+755776615+756903724+758731883
1608+761348740+764248193+766484732+767833677+768957757+770339276+771997024
1598+774016671+776457802+779037449+781510041+784022501+786664082+789187914
1588+791600612+794332683+797437099+800269241+802395758+804328005+806876562
1578+810067141+812659706+813107768+811874099+810734876+810311847+809784236
1568+808196641+805770098+803284031+801120799+799192693+797093125+794473240
1558+791909416+790144983+788610731+786785415+785188364+784680408+785319834
1548+786284753+786949583+787563543+788810440+791094696+793934379+795780339
1538+796107748+796488869+797811050+799248199+799681488+799770927+801033894
1528+803442389+805588376+807130169+809949825+815507115+821786719+825235973
1518+825799991+825745412+826297686+827860185+830869042+835180981+840039693
1508+845116718+849949655+852620905+852716834+852360560+853419059+856888155
1498+862801410+869143132+872573535+872696784+872843769+876095911+882158066
1488+887839038+891349794+893883516+896915366+900760515+905147121+909742583
1478+914171034+918469003+923898656+932015566+941384071+947664046+949573114
1468+949797671+951004205+954516815+959986644+965670645+970708729+975659909
1458+980261490+982359945+981395336+979303247+976113348+971176570+965815404
1448+962324984+961625911+962538044+962771933+960827942+957188127+953232709
1438+950169397+949341759+951220479+954248559+956658908+958317027+960353858
1428+963295960+966208146+968135078+969380923+970833400+972701736+974467591
1418+975502169+975300421+973574063+970681409+967478036+965066203+964519245
1408+965950212+967911510+969155811+970790442+974402999+978844925+981085791
1398+980046576+977925066+976817304+976340377+975723759+975837242+977855468
1388+981040978+982883972+982984413+984545676+989511752+995438605+999104628
1378+1001046889+1003871366+1007891808+1011118051+1012720418+1013678785
1370+1014365619+1014454997+1014896136+1017542291+1022204013+1025435943
1361+1024298513+1020688428+1019154053+1022233930+1028625101+1034352739
1352+1036408113+1035296828+1033743106+1034399159+1038253146+1043474622
1344+1046334331+1044916653+1041305579+1038739469+1038389994+1039978144
1335+1043418993+1048502879+1054190032+1058958068+1061245044+1059973238
1327+1056156337+1053268937+1054517131+1060237167+1067458573+1071586626
1318+1070518423+1066890661+1064544347+1065001495+1067790617+1071361637
1310+1073741823+1073553302+1070674555+1066793124+1064588727+1065515755
1301+1068639518+1071313302+1070683085+1065959182+1060084867+1056148178
1293+1053611241+1050777122+1047991956+1046032944+1044028935+1041045853
1284+1037873385+1035575159+1033812333+1031463980+1027724836+1022493965
1275+1016950397+1013217495+1011533910+1009693203+1006246174+1002064469
1267+998320999+995034243+992062843+989944300+989293130+989722030+989190277
1257+984976802+976377030+965659210+956245954+950114757+946287101+941868972
1247+935254543+927800608+921208554+914913621+907484472+899239120+891965052
1237+886562844+882257519+877971664+873447963+868834329+864010355+859057259
1227+854968269+852981691+853108092+853859828+853699801+852443015+850967545
1217+850036807+850000092+851225602+853908349+857575978+861432500+864981083
1207+867998532+870510806+873008122+875933659+878729024+880425033+881601960
1197+884419515+889835692+895886845+899937945+901835456+903380771+905718556
1187+908541735+911178495+913854998+917819131+923594179+929457120+933331381
1177+935766207+938998693+944254226+951704700+960979686+970025789+975810973
1167+977960916+979343053+982116413+985731937+988950454+991820176+995138022
1157+999096654+1003549768+1008244126+1012114740+1014484542+1016048030
1148+1017101832+1016530273+1013470917+1008944250+1005372611+1004778059
1140+1006827066+1009318572+1010778466+1011036709+1010337204+1010346228
1131+1013595279+1020051413+1026194972+1028815476+1028463034+1028337312
1123+1031416509+1038154868+1045357854+1048962993+1048280362+1044799832
1114+1039268316+1033378302+1030467291+1030972156+1031314832+1030015767
1105+1030720218+1036534267+1045187752+1051591038+1053470191+1052753440
1097+1052542420+1054114623+1056051878+1056067454+1053662667+1049492707
1088+1044249227+1039374135+1036466276+1036054373+1036615301+1035359812
1080+1030719909+1024010725+1017708684+1013632056+1012147005+1011695729
1071+1009651234+1005612311+1003063013+1005321185+1010902890+1014139394
1063+1011510979+1005706695+1001974721+1002531322+1005071905+1005555384
1054+1002010385+995844203+989902763+985689844+983035469+981861694+982773146
1044+985823601+989949554+993985757+996854738+996921678+993869554+990350022
1034+988852052+988643258+987770992+985406815+981588184+977663424+976074037
1024+977689569+980915504+984234338+987086816+988728246+989045765+990008211
1014+993129316+996389369+996851029+994506508+990575690+984301835+975035255
1004+965015828+956465751+949170359+942167824+935046551+927672166+920683229
994+915450010+912430954+910690936+909300455+907615139+904479447+898885195
984+891843472+885968601+882948185+882354252+882510075+882368344+881760565
974+879789748+875238480+868952263+863640173+860782257+859075369+856386936
964+852391280+848386661+845166722+842498007+840417168+839790413+841451437
954+845293001+850347156+855722971+861395290+867658761+873769932+878192882
944+880456865+881739117+883658631+887490738+893991622+902555173+910986450
934+917496668+922234973+926510629+931576158+937170410+941031259+941652822
924+940742543+940812142+941791277+941732928+939785660+937182340+936133483
914+937251505+939153033+940474782+940983850+940566446+938575974+935500671
904+933854048+935897430+940771038+945060292+946230792+945249617+944971224
894+946140549+947113997+947258571+947854915+949548267+951615384+953627923
884+955746775+958016568+960710935+964322627+968499634+971348588+970723996
874+966919643+963730238+965482247+972343423+979537384+982695698+982534559
864+982450621+984014109+985664502+984679372+980545261+975880633+973815308
854+975059485+977089516+977137666+975961790+976546143+980244245+985408855
844+989421324+991244476+990811929+988192414+985576670+987083725+994501254
834+1004475375+1011295570+1012536533+1010610899+1009913866+1013470237
825+1020884552+1029315829+1036487106+1040859063+1040307840+1035336943
817+1030800324+1030343423+1032723114+1036035274+1040970692+1046808167
808+1050562022+1051294473+1050849440+1050584892+1050429501+1049924760
800+1048275417+1045004670+1041193827+1038559972+1038262171+1039210586
791+1038261676+1032914293+1023691290+1013713955+1006332090+1002231480+998664292
781+992281157+982334789+971549471+964517576+963841435+966621532+967109523
771+963893973+961415880+963853920+970168323+975465021+975909189+971679272
761+966085082+963267465+965561859+971266504+975306231+974597392+971916314
751+972066019+976603132+983907301+992019514+999252663+1003062147+1001985785
741+999144681+1000021396+1006874907+1017443086+1027382036+1032446267+1030904721
731+1024705471+1017745770+1012654158+1011208727+1014723500+1019617629
723+1018091041+1009539358+1000936434+995533237+992492053+989902269+988058286
713+990192591+997586199+1006096532+1009510245+1007113062+1002093211+994459903
703+983638859+973472756+968317479+968400490+970779626+972158425+972252005
693+974022681+978738982+984386824+988376918+989054851+984954612+976100244
683+966178106+960583235+961596489+965086106+965888834+963368710+958002908
673+948512946+934641509+921738885+921587388+939818358+961481461+970657674
663+966251846+954612683+942942182+935706622+931639822+925414550+917705586
653+914655996+917628385+921844827+923614700+926300537+936915073+956296206
643+974471299+978253402+966836941+951275675+939781519+935969501+941658817
633+955538166+971062654+977609649+967108720+943766420+922310196+912041117
623+909292543+906234114+901150475+895741344+889798050+884769731+885521466
613+893677256+904425240+913437965+923417772+937987726+949283657+944274314
603+924737790+901157831+880475902
##END=
