##TITLE=<SNM>
##JCAMP-DX=4.24
##DATA TYPE=INFRARED SPECTRUM
##DATE=29/4/2025
##SAMPLING PROCEDURE=Instrument type and / or accessory
##ORIGIN=Admin
##XUNITS=1/CM
##YUNITS=ABSORBANCE
##RESOLUTION=4
##FIRSTX=4497.3318
##LASTX=599.83466
##DELTAX=-1.4281778
##MAXY=2.1885254
##MINY=0.51480556
##XFACTOR=1
##YFACTOR=2.0382231e-09
##NPOINTS=2730
##FIRSTY=0.52833599
##XYDATA=(X++(Y..Y))
4497+259214007+259713689+260034577+259279483+257863486+256622980+255779511
4487+255412214+255836185+256889300+257863399+258369690+258389985+257770024
4477+256594818+255624960+255551442+256292324+257462325+258857529+260218372
4467+261152144+261539006+261783744+262573960+264142987+265601942+265485788
4457+263369791+260378159+257917382+256674273+256702288+257551371+258413672
4447+258805154+258914759+259118351+259617712+260304553+260637635+260267414
4437+259809578+260074699+260795521+261061314+260588243+259790950+259076943
4427+258621271+258430955+258349337+258254442+258270321+258523628+258723214
4417+258429668+257846350+257756221+258472130+259403621+259787997+259362417
4407+258461105+257942531+258535676+259838617+260545665+259957462+258685315
4397+257758649+257609273+257839214+257603600+256522178+255347469+255126681
4387+255815803+256555778+257146554+258088456+259118176+259106098+257724785
4377+256122186+255686722+256725917+258181801+258507368+257240192+255474619
4367+254438700+254265286+254419019+254536198+254568278+254646592+254996840
4357+255784044+256970129+258228006+258971432+258763950+257847432+256935914
4347+256423569+256079812+255455640+254396560+253235508+252575659+252849612
4337+253956768+255264827+256066360+256099698+255577439+254804214+254028268
4327+253615644+253932408+254778977+255309803+254989383+254281867+253960190
4317+254203641+254790177+255526293+256010330+255652098+254474085+253411320
4307+253314524+253989462+254561493+254522804+254109127+253751918+253549261
4297+253378099+253214658+253199626+253507969+254136615+254770993+254976107
4287+254624630+254089475+253873922+254107138+254570851+255095829+255635517
4277+256008897+256002025+255744185+255506583+255279478+255075710+255237514
4267+255859551+256489308+256782561+256711295+256081362+254900776+254108980
4257+254760524+256640555+258606942+259917545+260477440+260343827+259674678
4247+258819337+258153347+258023477+258596765+259368997+259362037+258330504
4237+257171879+256742147+256891113+256984312+256773057+256410936+256093381
4227+255954767+256090662+256581162+257417963+258300793+258737485+258582407
4217+258249529+258164080+258263098+258239089+257978676+257635095+257510986
4207+257876851+258676337+259444152+259728077+259552587+259283898+259116334
4197+258901891+258499560+258065354+257867522+257996485+258414052+259082616
4187+259786681+260028202+259460617+258348459+257318710+256754897+256598913
4177+256640643+256891552+257620912+258961256+260606199+262067025+263066624
4167+263504077+263299607+262452425+261140652+259747056+258731519+258331294
4157+258409520+258802727+259618531+260839094+261980933+262545623+262455173
4147+261832230+260801691+259691406+258971257+258756873+258723974+258651304
4137+258651451+258764213+258813459+258828607+259048313+259341040+259277962
4127+258950845+258966490+259504657+260186409+260811868+261383402+261600680
4117+261204519+260607953+260437844+260678606+260774933+260360232+259513693
4107+258512281+257739377+257679048+258520265+259766912+260582658+260707235
4097+260666616+260802042+260720014+260080987+259198391+258449554+257791401
4087+257201561+256946325+257068621+257179804+257096285+257228494+258018272
4077+259275008+260299377+260582395+260310284+260114003+260282532+260387458
4067+259854145+258780999+257964464+258145627+259249186+260334878+260487500
4057+259723690+258826619+258643789+259603178+261224639+262132004+261473091
4047+260182549+259801215+260428984+260831929+260276772+259315277+258816296
4037+258996523+259482227+259833675+259814316+259414119+258883556+258678384
4027+259126686+260104703+261131001+261781405+261969966+261919054+261938413
4017+262124606+262206955+261821907+261119099+260889363+261683995+262933567
4007+263467435+262888883+261847232+261039323+260591226+260362835+260361519
3997+260757621+261599306+262559222+263199126+263563967+264169716+265223035
3987+266147742+266176810+265224205+263890061+262759890+262014709+261696277
3977+261999298+263040188+264378426+265064741+264580791+263676496+263669361
3967+264878138+266400844+267448870+268066228+268375390+268060467+267034344
3957+265915052+265327639+265212595+265337202+266042699+267633074+269240732
3947+269433885+268061608+266376455+265423119+265221778+265380014+265725087
3937+266220324+266883243+267926649+269427247+270658220+270491737+268924962
3927+267368801+267172753+268349802+269781677+270510131+270591106+270712057
3917+271186444+271445278+270852075+269759920+269047404+268961896+269145808
3907+269627477+270911351+273009100+275215429+276985593+278029788+277739868
3897+275872587+273484276+272149869+272466809+273453424+273680149+273326625
3887+273772558+275278390+276452573+276542789+276497929+276771326+276435641
3878+275305323+274593246+275183086+276925907+279288191+281402726+282009088
3868+281233348+280801773+281397667+281615939+280029308+277182021+274690568
3858+273964687+276249828+282155803+288623514+289633963+285407175+280525072
3848+277655033+277353855+278885392+280786537+281979611+282702830+283786212
3838+285166239+285927094+285731894+284900942+283599726+282051170+280908979
3828+280690239+281267065+282442564+284536715+287460503+289658469+290013192
3818+289462128+288638692+287042439+284907522+283431811+283581361+285694960
3808+288962212+291416175+292525846+293995855+296336616+297204240+295510314
3798+293370952+292320440+292132960+292397292+293209324+294534051+296169344
3788+298289054+301156168+304385345+307289716+309918905+312843921+315993439
3778+318816805+321624730+325617980+331764218+340065640+349136310+356694129
3768+361821497+365600363+368990642+372168117+375686190+380344815+385633490
3758+389463561+390792295+391183894+393010322+397288753+402370853+405343214
3748+406144513+407526119+411443950+416144452+418505157+419423635+422135525
3738+428210732+436247968+443194746+447428990+449767354+451630775+453633745
3728+455586709+457203667+458899991+461683673+465750324+469488278+470681322
3718+468750612+465265906+462645197+462611216+464763445+466314283+465008447
3708+461596498+458312168+456840346+457708028+460240861+463041183+465070560
3698+466108468+466601600+467463433+469560334+473044484+476926024+479401246
3688+479669818+478981106+478893259+479875049+481490134+483091885+484714545
3678+486896514+488704519+487873654+485473148+484890999+486156684+485708529
3668+482032395+477826926+475795297+476619552+479338636+482205516+483819783
3658+483515681+481191062+477887694+475707040+476236200+479146361+481959170
3648+482349950+480438657+477298380+473772002+470863538+469613206+470286419
3638+471996575+473532235+474455977+475104655+476270181+478801639+482124307
3628+483544515+481809677+479064625+477831459+479123814+482411068+485889049
3618+487745451+488114503+488560232+489978860+491982532+493466812+493137765
3608+490651137+487911203+487650936+490551300+494513610+496911630+497570134
3598+498269286+499730697+500870431+500779074+500139988+500433241+502482738
3588+505552422+507931433+508725978+508261650+507318140+506742980+507249126
3578+509020400+511654474+514459621+516648960+517869347+518711909+519928377
3568+521223101+521594726+520709469+518973403+516998068+515482205+514679531
3558+514085188+513460431+513374046+514204618+515674335+517478888+519395328
3548+521014829+522201528+523032860+522877519+521089926+518638040+517152824
3538+516837229+516766226+516389921+515618070+514350426+512849828+511819348
3528+511714832+512387431+513267073+513760469+513662913+513090677+512277125
3518+511815546+512356491+513586236+514391425+514315509+513632850+512358305
3508+511068903+511420994+513984707+516896242+517927600+517221897+516483149
3498+516269438+515484720+513418379+511377421+510905900+511570779+511938076
3488+511594057+511191608+511143474+511238515+511189795+510903444+510223826
3478+508763760+506423583+504135753+503334190+504352213+505809179+505867139
3468+504268284+502558420+501956239+501930154+501415938+500459560+499718064
3458+499095062+497812328+495705280+493996352+494070163+495535434+496547549
3448+496267982+495686740+495699899+496073104+496374428+496481927+496132468
3438+494842014+492555177+490030007+488412406+488356727+489418059+490350866
3428+490257725+489382411+488569122+488314119+488569414+488900888+488685832
3418+487807447+486967137+486627562+486387327+485923059+485493970+485320293
3408+485242769+485231568+485669723+486623468+487360110+487075835+485724408
3398+483826860+481927119+480593209+480505771+481986074+484388626+486290122
3388+486705408+486111182+485937359+486862212+487845142+487239861+484793648
3378+482193293+481515927+483162976+485559768+487198277+488276190+489555766
3368+490604494+490364464+488979641+488037534+489117816+492393578+496477541
3358+499566291+500727606+500220700+499041254+498246476+498313853+498992242
3348+499729469+500176309+500184965+499471893+497852684+495948995+494975071
3338+495377344+496255173+496449350+495680131+494525483+493751585+493676370
3328+494099640+494831194+495789969+496304010+495443785+493599051+492343338
3318+492311287+492495638+491977034+491183075+491033817+491676120+492447093
3308+492844044+493136127+493666369+494038697+493694911+492937564+492560207
3298+492677239+492637117+492014408+491127981+490573174+490762204+491964226
3288+494188189+496641713+497842273+497087793+495546547+495051455+496145628
3278+497830868+498821168+498841814+498611434+498621377+498657229+498713026
3268+499262802+500188474+500553490+499872469+498649801+497501178+496678969
3258+496443735+496958361+497893742+498604766+498633483+498052007+497227284
3248+496230843+495073563+494362655+494625203+495209136+495008058+494040100
3238+493294217+493276086+493586125+493668358+493434527+493206195+493175781
3228+492996753+492142260+490642598+489176537+488297509+487882720+487758845
3218+488189015+488966745+488888840+487222608+484998001+483846131+484190765
3208+485078304+485271018+484377455+483237108+483074953+484064346+485044820
3198+484915769+483842037+482677476+481772830+480930971+480065160+479150104
3188+477911995+476352794+475177179+474955718+475285613+475295088+474470277
3178+472768748+470605202+468818048+468083423+468315411+468680925+468143168
3168+466397071+464413489+463492467+463738054+464017358+463449304+462314863
3158+461330295+460670914+459967698+458941955+457891063+457497446+458044679
3148+458925608+459231523+458737923+457880038+456936382+455740442+454145564
3138+452485882+451543483+451874343+452920937+453227934+452125837+450671824
3128+450221826+450678784+450831639+450063765+448953129+448241022+448028861
3118+448079744+448249853+448350012+448139693+447659429+447049206+446157135
3108+444820330+443394186+442598706+442804434+443557949+443884277+443282944
3098+442294077+441742926+441749301+441863672+441727222+441181160+440274877
3088+439479923+439232904+439221177+438825221+438117588+437783833+438212747
3078+439040336+439418833+438798609+437535849+436371024+435499277+434723829
3068+434165660+434073017+434285616+434532373+434852998+435231817+435208305
3058+434394314+433231888+432646727+432888628+433279350+433219664+432762823
3048+431999716+430759472+429249956+428192045+427971871+428150373+428066328
3038+427648468+427353343+427434757+427622149+427507895+426945017+426058415
3028+425120227+424383351+423845944+423336699+422861815+422638688+422784700
3018+423021338+422807335+421986120+421102355+420694643+420562141+420197241
3008+419576695+418999752+418518990+418024659+417577497+417260528+416933820
2998+416421943+415800140+415321717+415150029+415233022+415299024+415012088
2988+414381424+413889286+413903469+414141014+414064513+413623697+413156095
2978+412758676+412295665+411854557+411647221+411586366+411434768+411169617
2968+410741669+409868928+408599792+407526734+406951340+406513536+406000022
2958+405767010+406069065+406594921+406805854+406376326+405401262+404337445
2948+403545591+402963442+402455805+402205803+402461946+403153846+403959035
2938+404487844+404349522+403427096+402199048+401397690+401189915+401072386
2928+400728805+400406337+400144901+399438877+398173455+397090249+396757429
2918+396807319+396611885+396088252+395582224+395461653+395855182+396431365
2908+396598345+396190721+395681534+395491218+395438229+395128921+394573062
2898+394078058+393761118+393518573+393302756+393130220+392974440+392852290
2888+392816789+392760700+392490549+391990486+391350260+390599406+389886509
2878+389539594+389671248+389992634+390188974+390219095+390178066+390086797
2868+389792228+389028302+387808032+386706549+386350305+386668240+387060336
2858+387182047+387080894+386724270+385968035+384996393+384334555+384299434
2848+384639067+384785050+384389416+383572647+382739297+382289270+382436306
2838+383061413+383698481+383907484+383688890+383280447+382697566+381899425
2828+381189219+380913074+380943867+380902575+380649941+380221846+379623321
2818+378969292+378462298+378053475+377483784+376761968+376246319+376130602
2808+376098347+375688909+374942529+374430535+374530460+374942500+375164838
2798+375145713+375116703+375062720+374737387+374068852+373300540+372726579
2788+372363229+371939813+371258646+370479835+369970063+369927865+370233722
2778+370625409+370894273+370875265+370408686+369550098+368718795+368340795
2768+368371881+368370594+368001629+367347600+366756795+366456172+366371981
2758+366322354+366196725+365886072+365366913+364938321+364940748+365196102
2748+365183147+364733529+364143280+363717291+363506826+363349818+362984450
2738+362251873+361286781+360439628+359980038+359924885+360152575+360537915
2728+360868922+360837690+360379767+359844846+359554780+359388444+359066883
2718+358632325+358325006+358111968+357699577+357039377+356476792+356260478
2708+356239569+356203951+356140697+356001849+355653355+355197977+354958063
2698+355019826+355082523+354825678+354271808+353742268+353494605+353466414
2688+353420151+353250919+353046976+352925177+352905613+352915790+352879674
2678+352770567+352569080+352293343+352072789+351982719+351851943+351497776
2668+351020844+350599476+350225481+349851633+349511854+349183918+348808111
2658+348462512+348293455+348297345+348332057+348326705+348365804+348510851
2648+348598435+348356680+347719144+346895385+346177430+345769279+345683245
2638+345712810+345630051+345440261+345330277+345411457+345621600+345813934
2628+345864934+345752347+345582180+345521032+345641602+345796593+345706698
2618+345270328+344735582+344446745+344499120+344730114+344918617+344896918
2608+344614544+344208937+343918375+343845997+343888605+343914836+343887932
2598+343786487+343541339+343122222+342632248+342267495+342161985+342279017
2588+342489189+342701029+342834730+342790982+342570720+342289574+342005503
2578+341715174+341499153+341433882+341428442+341366914+341283804+341215638
2568+341067198+340820910+340715400+341005027+341605628+342132156+342286737
2558+342108147+341845103+341715818+341777170+341876481+341742692+341266200
2548+340677529+340346845+340425451+340719347+340888667+340803218+340716628
2538+340983591+341580040+342069926+342122769+341859432+341568899+341350392
2528+341240202+341404901+341889436+342384498+342554987+342418596+342153855
2518+341788692+341349924+341062841+341115157+341390864+341640369+341794395
2508+341953420+342150521+342309781+342445003+342708837+343158835+343617196
2498+343870415+343871322+343673373+343358333+343071455+342939334+342921378
2488+342867512+342724014+342578060+342518813+342547062+342597741+342583850
2478+342445236+342222431+342067294+342111569+342338352+342627160+342861458
2468+342961676+342920910+342857598+342911991+343045195+343094996+343080111
2458+343242734+343665945+344041636+344016457+343629040+343221971+343045136
2448+343086779+343185505+343214719+343201530+343280224+343548854+343992302
2438+344444318+344617702+344385041+344047104+344074944+344576673+345204676
2428+345549690+345501643+345280183+345195318+345400256+345871894+346498669
2418+347078683+347379013+347337546+347122665+346979811+347082456+347441448
2408+347889457+348234969+348443387+348623877+348901836+349333294+349880029
2398+350450890+350945221+351244001+351267074+351093046+350932266+350938144
2388+351059036+351051579+350653752+349723518+348136857+345705967+342430176
2378+338672833+334848962+331103200+327445139+323949583+320685606+317663590
2368+314946875+312724403+311171606+310168030+309363806+308794583+309164746
2358+311190380+314955443+320188176+326709140+333942562+340274145+343770198
2348+343560493+340553303+337135184+335418858+335423362+335893362+336178924
2338+336493496+337229114+338467194+339928254+341390981+343004663+344895661
2328+346734400+348087085+349011791+350013817+351483505+353368770+355385866
2318+357349650+359169030+360680155+361731866+362419262+363064314+363966357
2308+365227100+366691553+367980925+368749384+369006989+369077905+369235819
2298+369510415+369812588+370120462+370514781+371055170+371646707+372095622
2288+372325096+372466985+372703184+373080834+373503782+373814727+373866342
2278+373651432+373404178+373388562+373543874+373553057+373293521+372976932
2268+372806238+372726900+372575244+372325827+372125568+372125451+372326733
2258+372607090+372831943+372914556+372861771+372772637+372698417+372563430
2248+372342086+372208444+372356825+372747020+373124991+373286591+373312851
2238+373483779+373911084+374381962+374678812+374873632+375134776+375416010
2228+375526842+375417384+375247772+375172675+375115387+374838832+374274434
2218+373643302+373146251+372711489+372206806+371730928+371500402+371564415
2208+371798626+372090827+372374868+372535239+372450755+372173761+371958675
2198+372032310+372366885+372732047+372953947+373069867+373224390+373487230
2188+373847099+374325347+374965017+375701981+376355426+376775332+376960882
2178+377069580+377330168+377852426+378492975+379010934+379342935+379601856
2168+379858117+380093234+380332357+380643332+381007062+381322569+381529525
2158+381616788+381553066+381351871+381181119+381252707+381591112+382032483
2148+382444698+382831472+383222369+383574957+383822035+383963310+384081570
2138+384270161+384542447+384834618+385116788+385427821+385729116+385856267
2128+385784971+385802927+386183413+386833845+387480008+388002589+388399276
2118+388677439+388968324+389463006+390119872+390725737+391281977+392007184
2108+392949291+393912511+394768057+395541400+396193265+396620541+396907916
2098+397306767+397933717+398702293+399488006+400160342+400597151+400849492
2088+401091072+401304316+401307796+401170030+401266182+401815754+402604011
2078+403263099+403671074+403954326+404231759+404543435+404940649+405428459
2068+405884539+406214668+406504997+406894520+407416223+408035628+408702583
2058+409307893+409711189+409872174+409914489+410042488+410403820+411031676
2048+411877367+412829153+413733477+414481378+415063966+415542447+416041574
2038+416729642+417665491+418714248+419738616+420797755+422030132+423421066
2028+424809018+426052040+427111471+428037815+428919680+429820232+430789096
2018+431929064+433317571+434857852+436391816+437933325+439576017+441239296
2008+442750187+444131559+445579138+447159717+448727808+450181616+451644022
1998+453303353+455216400+457321138+459419003+461139511+462258570+463044107
1988+463959280+465157354+466491557+467811810+469112324+470505569+472043569
1978+473595343+475118253+476897102+479133055+481518676+483617506+485414983
1968+487186375+489094451+491152545+493368963+495716626+498047796+500244563
1958+502459051+504935619+507553199+509918759+511988083+514142329+516585794
1948+519152666+521760887+524568901+527506813+530103396+532149091+534095768
1938+536354648+538741205+541009676+543386232+546125347+548983367+551529534
1928+553738174+556040626+558806061+561814918+564491394+566756883+569072378
1918+571496951+573489423+574876030+576155430+577695623+579373670+581016215
1908+582644022+584166025+585401034+586583697+588239928+590355106+592287570
1898+593685056+594777649+595725312+596524301+597443071+598754756+600274947
1888+601708343+603064361+604348733+605326867+605764641+605612166+605089118
1878+604728663+604967875+605721536+606756871+608183132+610055238+611760013
1868+612381144+611797328+610788429+609970256+609288241+608507090+607754891
1858+607320450+607169730+607011172+606679727+606212768+605661646+605083035
1848+604776681+605170298+605984786+605824298+603784861+600839403+598343125
1838+596615482+595268354+594167455+593803784+594595813+595874044+596032251
1828+594436495+592180540+590306737+588841466+587557328+586440872+585365299
1818+584170763+583096476+582583137+582641507+582745379+582357202+581404392
1808+580167103+578971163+578253529+578545203+579946373+581680626+582510204
1798+581973587+581073591+581320639+583046236+584653572+584469689+583294747
1788+582919963+583673741+584795812+585931861+587296301+588714432+589711926
1778+590441842+591670008+594079725+597767205+601583005+603482776+602962243
1768+601535280+600745298+601302502+603240582+605841727+607961466+609351933
1758+610631626+611900849+613011749+614582823+617251638+620404255+622558268
1748+623032597+622393277+621668624+621890933+623670221+626639423+629594414
1738+631996119+634822614+638751878+641918767+641828580+639582450+637384631
1728+635849468+635029833+635182249+636478903+639000506+643058676+648846887
1718+655230086+659307849+659406926+657089559+654568775+653173220+653604268
1708+655936022+659220001+661895776+663646873+665844049+669330042+672604429
1698+673802766+673254803+671783098+670011589+668998421+669500004+671420070
1688+674479459+679150104+685575003+690597622+690434443+687306975+685440776
1678+686600629+690192951+693948978+695964143+696828813+697720211+697974804
1668+696667330+695191999+695499991+697671024+699987162+700892773+700816155
1658+701265919+703521816+708306217+714435992+717393907+716313771+715872313
1648+717996848+720541202+720466865+718399413+716715225+716168081+716661417
1638+718290160+720604251+721740125+720623669+718875204+718171314+718806774
1628+720152499+721243864+721470968+720890252+720125185+720119103+721663273
1618+724705058+727363754+727207945+725138680+724066615+725068905+726856731
1608+727744737+727737953+728124025+729702585+732106045+734318837+735557823
1598+735839846+735858796+736342717+737494908+739028843+740712621+742879092
1588+746212493+750772012+755360248+758437242+759878359+761200513+763771830
1578+767376375+770384472+771470573+771641589+772555680+773937549+773969366
1568+772182183+770646201+770768438+771938059+773724891+777220008+782149457
1558+782817962+776634671+769633618+766246643+766759339+768875277+770030334
1548+769801358+769871133+771912675+776323872+782391183+787827245+788525286
1538+784482907+781015045+781244489+784525603+787781274+788892993+789332170
1528+791633629+796448560+802097280+806806526+810596651+814386717+818641812
1518+823120093+826746513+828481116+829254664+831246668+835402628+841349982
1508+848879815+856862630+861651535+862446254+862465613+863935330+867106897
1498+871459899+876634759+882215927+887601924+892552955+896969707+900295446
1488+901934892+902073213+901529636+901566775+903604458+908016005+913216190
1478+916929755+918597099+920096293+923602346+928322822+931495734+933298943
1468+936200535+941107876+946584177+950379799+951529885+950574034+948580860
1458+946829354+946140320+945703481+944145976+941661103+939450065+938455672
1448+938505678+938696988+938864553+939803385+941714092+943506364+944072400
1438+943224808+941031609+938015207+935870727+936033613+938380458+941545182
1428+944293246+946172312+946585405+944832670+941754916+939907550+941073836
1418+943779907+944834074+943370616+940706773+938547555+938154757+939366780
1408+940751457+941548750+942544840+944806878+948564250+952815192+955609929
1398+955632329+953674715+951458999+949906757+949441436+950536895+952951174
1388+954994120+954805734+952616454+950446942+950411265+953684132+959982173
1378+967443401+973366367+976087819+976183270+975637119+976279831+979089833
1368+983887979+989336265+993606859+995041542+992851091+988606816+985843078
1358+986861685+991409390+997819902+1004083495+1008377016+1010016402+1010125890
1348+1009779414+1008573414+1006927711+1007436781+1012183224+1019831903
1340+1026040284+1027373550+1024590277+1021001289+1018964075+1019520753
1331+1023282160+1029977854+1037509910+1042650555+1043678871+1042124758
1322+1041485613+1043839359+1048020702+1051773219+1054491338+1057566812
1314+1061897764+1065323808+1064783506+1061134394+1059005355+1061060466
1305+1064419250+1064620445+1062116973+1061418640+1064444165+1068477420
1297+1070650792+1071141146+1071116464+1070330635+1067559761+1062449646
1288+1056665997+1052829960+1052364171+1054404310+1056885674+1058560036
1280+1059175083+1057402113+1051403348+1042557911+1035125166+1031771880
1271+1031383644+1030824393+1028072352+1023570617+1019340262+1017139167
1263+1017574661+1020531406+1024534481+1026128248+1022454103+1014669150
1254+1006620421+1001132598+998893487+998809500+998440564+995369770+988831757
1244+980265478+972443619+966954744+962245790+955597354+946905503+938728981
1234+933109796+929679308+926376788+921461961+914979335+908008168+901308380
1224+895355938+890633123+887202868+884568678+882040408+879011373+875560531
1214+872873878+872004880+872327201+872284447+871542249+871268413+872340536
1204+874478992+877204597+880690940+885224199+889865483+892333395+891507443
1194+889841796+891384972+897279161+904570778+909946598+913148404+915478462
1184+917316821+918510421+919298239+920094129+921669940+925099786+930198437
1174+935099578+939157339+944513098+952820982+962117646+968843109+972483215
1164+976004768+981756717+988387841+992023970+991203048+988905801+988097864
1154+988401410+988445510+989534418+994336892+1003023011+1012204396+1016547865
1144+1013842029+1007721846+1004078465+1005638777+1010594487+1016181737
1135+1021242840+1025377862+1027953272+1029132836+1029381756+1027621301
1127+1023827024+1021557733+1024587704+1032353006+1040021336+1043856905
1118+1044477801+1043937851+1042889298+1041398819+1040124039+1039695330
1110+1040257389+1042319402+1047696919+1057202321+1067815933+1073741823
1101+1071334971+1063191728+1054974206+1049618329+1046779494+1045723689
1093+1046444949+1047679957+1047312192+1044688237+1040161236+1034595158
1084+1030024760+1030219054+1037678118+1049198744+1057193197+1057239519
1075+1052114081+1046723580+1042503869+1038712517+1035582650+1034936838
1067+1037248824+1040696040+1042459536+1039856637+1032955069+1026324647
1058+1025410848+1029786953+1032615495+1027938183+1017647535+1007937662
1050+1002621206+1001745306+1003927569+1007999658+1011405115+1012071631
1041+1012213988+1014869643+1018265741+1017866861+1013510642+1010328137
1033+1012564441+1018691877+1022224484+1018901494+1012221825+1008543703
1024+1009722915+1012799559+1014473336+1013520351+1008747120+999706220+990324108
1014+986072697+988256714+993647916+999014672+1003960321+1008821633+1012614857
1004+1013810914+1010974417+1003011430+991075781+979601652+972819982+970351193
994+967633835+961711747+954870538+949998815+946574994+943186850+939961650
984+937062631+933671446+929909278+927182094+925503638+923191710+919966861
974+917347819+915223518+911294487+904804550+898027150+893035530+889392090
964+886139986+884138800+884392165+885743855+886078283+884498786+881296923
954+877663602+876085216+878498677+883789107+889160482+893754567+898411526
944+902559414+904842976+906324741+909586144+914926521+919992946+923358047
934+926313505+930596440+936269023+941933886+946024750+947892469+948839430
924+952070011+959423623+968198350+972401158+968907737+961895337+958622938
914+961770409+967145177+968935343+966436608+962971612+960919191+960528967
904+961105823+961863403+961976985+959887366+955018100+950125089+949107534
894+953454746+961264556+968679346+972685287+973297703+972839926+972943331
884+973566275+974844271+977139413+978710487+977225330+974865677+976624612
874+982723856+987578500+987354379+983994659+980745889+977287736+972622004
864+970557944+975724440+986133758+994435384+997191285+997523841+998265923
854+999512161+1000729039+1000244650+995833805+989287603+986084629+988398369
844+992792722+996198880+1000052346+1006738564+1015018901+1019217557+1014740621
834+1004951557+998020512+997601629+1000376012+1001951297+1001529724+1001890354
824+1005640766+1011070453+1013902153+1013186274+1012161584+1014007429
815+1020017189+1029204774+1039082154+1047827227+1052921901+1049882105
807+1037357727+1021874147+1011809376+1011219126+1019880096+1034659143
798+1049212079+1056143943+1053965307+1047948646+1043197641+1040150943
790+1035135109+1026403136+1018941850+1016414515+1015763907+1013820037
781+1011181812+1009832403+1010602324+1010983073+1008476794+1004017755+999617671
771+996286142+994883861+995997451+996763746+992558189+984937584+981576812
761+987238691+999207561+1010626187+1016982422+1019934840+1024278893+1030336612
751+1031881484+1024626188+1013077722+1004370431+1001144880+1002679108
743+1006843958+1011130343+1013106849+1012656500+1012851612+1015616754
734+1019847343+1022226823+1020610363+1018624032+1021892746+1028561536
726+1028756297+1018354641+1005584735+998528880+997837565+1000922630+1005446239
716+1008726884+1009763622+1011690414+1016515814+1018896698+1011855464+999644926
706+994473049+1001236003+1011388270+1012164391+1001797594+988498616+979319862
696+976414527+979210725+984695916+987973170+988238700+991469164+999663876
686+1002686243+995232326+986529012+983404760+985454257+989727776+994475272
676+996285206+989189813+972082638+949776273+927440723+913189169+916380739
666+932518553+947991488+955705438+958549245+963176082+969117763+970756566
656+967980837+965447420+964872728+962310301+956184621+952261906+953548091
646+956086480+956270889+955740354+956270538+957095963+956992675+955715848
636+954807781+954758067+953645355+949506648+944918822+944982806+950619420
626+957267739+958857061+952023689+940181385+933665129+931116096+923777573
616+914353759+913454348+921615489+926156000+915752824+893201866+876153061
606+876738339+892075409+903863379+898005861+885765203
##END=
