##TITLE=<SNM>
##JCAMP-DX=4.24
##DATA TYPE=INFRARED SPECTRUM
##DATE=29/4/2025
##SAMPLING PROCEDURE=Instrument type and / or accessory
##ORIGIN=Admin
##XUNITS=1/CM
##YUNITS=ABSORBANCE
##RESOLUTION=4
##FIRSTX=4497.3318
##LASTX=599.83466
##DELTAX=-1.4281778
##MAXY=2.1022346
##MINY=0.37026697
##XFACTOR=1
##YFACTOR=1.9578585e-09
##NPOINTS=2730
##FIRSTY=0.38065439
##XYDATA=(X++(Y..Y))
4497+194423849+193967132+195391399+197550564+198705404+198301308+197339284
4487+196792788+196516495+196142645+196069184+196698975+197371463+197029884
4477+195667966+194311086+193724053+193775853+193948485+193969811+194017805
4467+194516399+195598736+196773182+197344673+197167779+196746254+196571994
4457+196683099+196880588+196971995+196776394+196385511+196415848+197296145
4447+198311020+198280074+197190779+196182709+196041861+196605908+197445838
4437+198305875+198801987+198402442+197127045+195793424+195188430+195257035
4427+195354775+195093765+194663153+194384181+194208216+193868935+193470380
4417+193518862+194224169+195137406+195612162+195320054+194336887+193159214
4407+192568818+192967433+193777969+193943325+193214987+192525785+192821562
4397+193927524+194852711+194897920+194195719+193406524+193048170+192969321
4387+192596065+191816825+191198055+191173000+191548159+191872796+191801040
4377+191152344+190089125+189214916+189118348+189802466+190725309+191377765
4367+191779821+192280195+192910717+193332318+193382550+193245461+193152121
4357+193256375+193646087+194214944+194679577+194831279+194628066+194102683
4347+193337767+192504673+191863937+191701017+192139499+192912969+193463759
4337+193392140+192743306+191929330+191545419+192064973+193347281+194520478
4327+194772994+194247473+193728270+193583083+193531572+193364847+193346915
4317+193773357+194560770+195402922+196045849+196330864+196190777+195769480
4307+195393606+195217641+195036972+194719778+194659408+195356480+196582695
4297+197480300+197600583+197265519+196788830+196084558+195266808+194857993
4287+195037612+195347727+195396970+195296719+195259181+195230656+195077752
4277+194881176+194948198+195529111+196438163+197074271+197096343+196866873
4267+196877650+197152923+197519009+197842459+197771632+197034664+196128139
4257+195844768+196149373+196349161+196157365+195869762+195837431+196302186
4247+197359423+198695129+199670366+199888328+199525362+199130186+199256056
4237+200059209+201031036+201413851+201025252+200305697+199648446+199196919
4227+199031944+199018305+198797542+198365590+198265521+198849083+199759353
4217+200385186+200496336+200319366+200221551+200410698+200858663+201365035
4207+201654205+201682624+201774671+202096279+202272869+201952098+201432042
4197+201300707+201687054+202203274+202475152+202471804+202283037+201869382
4187+201294283+200907556+201015616+201637644+202650768+203798818+204678614
4177+205105055+205203373+205011532+204530413+204059508+203814040+203462019
4167+202729769+202089764+202145751+202701106+203061348+203047937+203149452
4157+203651607+204120670+204049340+203672492+203626095+204004466+204364571
4147+204473681+204388499+203996794+203170565+202227995+201671391+201663277
4137+202082032+202732677+203325996+203613613+203666342+203822991+204345741
4127+205145789+205785900+205847488+205339122+204664868+204310868+204584436
4117+205275023+205613908+205135773+204423495+204334203+204837256+205303975
4107+205519258+205785778+206389418+207364289+208420460+208962832+208653295
4097+207964747+207672578+207842820+207850644+207369815+206769767+206467856
4087+206437108+206521666+206773071+207214506+207608753+207700647+207518822
4077+207326234+207355963+207636746+208036549+208419578+208707226+208850403
4067+208852534+208699052+208229334+207354775+206416193+205999189+206336172
4057+207070978+207580623+207456062+206828920+206316033+206466425+207181961
4047+207879444+208242958+208457815+208652731+208665457+208515293+208512614
4037+208728004+208853645+208737380+208652031+208850753+209092736+208870694
4027+208167853+207672532+207957989+208803230+209657087+210337095+210931343
4017+211408306+211568745+211229509+210450407+209585636+209013445+208898504
4007+209161417+209471822+209510805+209446599+209725555+210282570+210558985
3997+210393416+210274807+210613205+211219128+211618779+211611214+211387437
3987+211274749+211525925+212191366+212949310+213227566+212773649+212005354
3977+211663059+212175307+213267524+214086066+213889353+212717800+211281492
3967+210306545+210182654+210999887+212516521+214096234+214982849+214826809
3957+213975722+213240307+213276231+214150104+215554522+217137387+218274676
3947+218162932+216935666+215909619+215950490+216345102+215984952+214931323
3937+214064466+214065669+215090605+216656207+217744055+217686562+216870973
3927+216173567+216136882+216742744+217583008+218329505+219130877+220335355
3917+221647148+221922512+220495322+218283733+216827575+216638900+217203663
3907+218459926+221149985+225298013+229347114+231782877+232430675+231208737
3897+227853329+223483152+220487665+220476158+222455217+223572033+223118314
3887+223378152+225703829+228362410+229402826+229265114+228342286+225984886
3878+223102818+222013554+223576523+226718567+230313339+233521080+234706394
3868+233358480+231469580+230669486+230203605+228639053+226297301+224591596
3858+224699580+228006872+235829801+244846477+246403936+239961359+232302491
3848+227455322+225936648+226783884+228974147+232043521+235876167+239741007
3838+241842861+241178745+239041499+237065682+235578944+234279755+233225958
3828+232526329+231955249+232074924+234668720+239970903+244101060+243897787
3818+241754864+240136517+237836260+233797891+229869575+228372822+230270201
3808+234540339+238346894+240316151+242136050+244608695+245506727+243795816
3798+241522014+239814939+238055486+236231431+235275237+235471051+236332367
3788+237723633+239810906+242053517+243694012+245206155+247569598+250114410
3778+250953152+250012165+249525353+251671367+256769211+262914626+267665502
3768+270865693+274047221+277683733+281615792+286789655+294070593+301973589
3758+307868421+311831686+316806110+325682242+338852502+351988391+359483684
3748+362735173+367175309+374358979+379634249+379866292+378667994+380086431
3738+385318106+393247345+401258599+406154357+406156762+402971032+400548985
3728+401557344+405273649+408615555+409900009+410219913+410561644+410444527
3718+409696736+409572800+411898797+417692830+425613635+431770954+433601326
3708+432474571+431253501+432129216+435762318+440490422+443303429+443139337
3698+441984786+442460562+445895474+452308186+460984576+469880223+474763956
3688+472930722+467322183+462202693+459524553+459718723+462241722+466153324
3678+471094656+475881030+477208440+474736678+472970329+474419210+475903893
3668+473524680+468667098+464921507+463668319+463969560+465149714+468137924
3658+473270383+478166293+480489672+481936909+485944592+493409441+500563946
3648+502037030+497962889+492421935+488332512+486525429+486497177+487406777
3638+489047241+491655360+494763215+497529308+500577798+505653509+511911870
3628+514504342+511635502+507182305+504815087+506328448+511649567+517804206
3618+521279426+522845029+525543932+529619991+532850808+534431511+535485780
3608+536005273+534873129+533045466+533155490+536139043+540258636+543627973
3598+546251375+548384755+549083379+548106438+547493117+549453393+553434772
3588+555923795+554534706+551610214+550333280+550623531+551016438+551670249
3578+553794069+557117740+559739803+560546138+560690259+562300736+566120214
3568+570086675+570605742+566615961+561123657+557864100+558090724+560487868
3558+563398904+566098538+568158791+569044767+568704344+568186982+568819787
3548+570561598+571553275+570133559+567357267+565736500+566218913+567940570
3538+569712521+570649581+570183852+568448921+566359441+564919267+564509433
3528+564666706+564652458+564188251+563548870+563309521+563990001+565459949
3518+566867487+567689774+568110751+568204457+567950556+567638081+567300033
3508+566693653+566309209+567069939+568663732+569508913+568796772+567312698
3498+566484078+567611656+570971372+574844919+576719282+575994842+574371761
3488+573573951+573801123+574402327+574967668+575224309+574720464+573499181
3478+572486377+572359305+572578622+572461900+572657654+574142337+576272306
3468+577487379+577565437+577386976+576931780+575318320+572529790+569750515
3458+567988306+567109577+566502405+566269876+566972519+568112517+568115622
3448+566517566+564757854+564095763+564360380+565178892+566793570+568963969
3438+570301121+569762144+568056744+566570904+565685781+565086038+564758889
3428+564738492+564567337+563914622+563362493+563735064+564923956+565829293
3418+565302920+563068954+560001985+557709385+557443428+558869233+560184222
3408+560245110+560092343+561220894+563216424+564348751+563836990+562641584
3398+562274797+563542781+566413205+570201875+573434458+574194457+571664029
3388+567464856+564538659+564372679+566105601+568374516+570735920+572963918
3378+574522884+575239775+575394429+575120557+574749203+575327940+577375651
3368+579707950+580945551+581041875+580281815+578612095+576869370+576906146
3358+579353158+582333971+583923806+584762107+586262133+587785297+587549054
3348+585289576+582360639+580173131+579512501+580471541+582578617+585218216
3338+587916754+589941327+590420634+589577280+588574583+587582481+585542077
3328+582476021+580183847+579750388+580174227+580277614+580391230+581253033
3318+582586959+583430373+583154005+581909158+580467644+579671965+579829786
3308+580360726+580084844+578750736+577813676+578644852+580586679+581974734
3298+582486555+582818453+582884151+582356864+582160076+583467880+585735151
3288+587287359+587687268+587829928+587865365+587222209+586642376+587727698
3278+590184025+591815630+591717783+591315986+591735684+592367454+592605403
3268+593115580+594744079+597215567+599088470+598734896+595944113+592596452
3258+590964482+591390634+592223029+591867262+590361817+588951599+588416519
3248+588015453+586492654+584242857+583340686+584877793+587449868+588838044
3238+588500848+587666384+587551428+588242746+588979242+589249522+589169212
3228+588781053+587786150+586118682+584287610+583055610+582776075+583186092
3218+584143611+585947040+588023429+588165236+585075556+581003516+579326124
3208+580331804+581312703+580316156+578097412+576311640+575507985+575246229
3198+575142659+575327879+575998799+576690970+576277360+574250838+571689480
3188+570148233+569800443+569428298+568460429+567951835+568777775+569911136
3178+569416973+566589353+562481450+558754338+556512883+555918924+556620289
3168+558310163+560329256+561416648+560928634+559619855+558615027+558252015
3158+558084513+557597413+556756799+555795688+554585304+552793869+550724300
3148+549193890+548512375+548394132+548755560+549517751+549965884+549439511
3138+548177189+546770260+545578568+544907647+544796345+544642664+543845402
3128+542739562+542199185+542363520+542409308+541624527+540285183+539196635
3118+538469637+537338772+535617723+534627143+535654195+537971333+539439759
3108+538926659+537167434+535407235+534175722+533289991+532476532+531851339
3098+531712880+532000818+532186951+531647365+530240618+528639031+527792815
3088+528018160+528922889+529886861+530148861+529084728+526912563+524645840
3078+523163471+522673752+522982026+523647040+524048289+523881336+523263205
3068+522335034+521351822+520886640+521244538+521932385+522278409+522324318
3058+522452243+522289734+520956478+518615959+516627797+515795342+515609208
3048+515435983+515230488+514840929+513852906+512451761+511526208+511647557
3038+512494686+513372198+513810163+513571666+512565072+511125812+510043322
3028+509679975+509332611+508189660+506588742+505350745+504454906+503547498
3018+503094677+503516233+503828647+502937466+501537934+500946046+500949181
3008+500484883+499700346+499701351+500664532+501519120+501297611+500030814
2998+498408647+497058647+496147495+495415565+494592791+493734276+493031633
2988+492491773+491986954+491501406+491192341+491164850+491184760+490776783
2978+489793996+488698507+487962833+487433476+486786819+486392085+486918123
2968+488002440+488228120+486922842+485099533+483937189+483338968+482717762
2958+482238912+482447178+483300852+484171423+484416770+483804728+482720137
2948+481829138+481414616+481380701+481664559+481991465+481579986+479898332
2938+477453513+475290725+474093674+473959844+474477479+474875075+474510389
2928+473357878+472013237+471252781+471288705+471361161+470525175+468923039
2918+467631066+467249148+467330464+467225341+466880870+466559627+466232965
2908+465714537+465175256+464973535+464959288+464489783+463303419+461940511
2898+461093748+460842312+460716001+460371590+459961147+459744144+459594543
2888+459216735+458693650+458404099+458475399+458718249+458976838+459108569
2878+458811711+457917638+456712064+455656851+454998504+454846437+455174165
2868+455552277+455416345+454697384+453767509+452836934+451782148+450517756
2858+449280916+448448978+448103137+447978926+448003281+448521648+449637108
2848+450701423+450935780+450299504+449364027+448577025+447946108+447289587
2838+446541614+445765723+444989284+444140237+443151392+442097763+441191604
2828+440564279+440139375+439838499+439721564+439778403+439858348+439924563
2818+440029716+439966728+439357152+438198644+436958637+436077959+435653512
2808+435542757+435529941+435438853+435262096+435078459+434802151+434226124
2798+433309066+432158351+430848020+429549074+428602059+428164095+428010536
2788+427858165+427629136+427356299+427125718+427113479+427414264+427817949
2778+427930530+427539358+426769160+425896854+425178289+424795976+424697734
2768+424523382+423992199+423293361+422785346+422481151+422092841+421341945
2758+420146021+418777237+417732041+417176107+416765694+416267177+415980001
2748+416192468+416522022+416231284+415140391+413837610+412930902+412449495
2738+412099482+411791848+411625077+411501597+411127625+410440052+409758781
2728+409321212+408876702+408066197+407034457+406267486+405953763+405875431
2718+405815152+405776671+405797678+405703728+405217449+404343591+403447234
2708+402821827+402366510+401776296+400891447+399883575+399160169+398924077
2698+398887301+398664818+398260403+397871727+397495137+397022528+396501543
2688+396131133+396104160+396354104+396405919+395805385+394758392+393946913
2678+393710121+393791254+393817405+393637695+393213796+392534929+391720406
2668+390992647+390486245+390167346+389903764+389554421+389067229+388526486
2658+388030100+387540899+386976045+386424129+386154488+386350760+386797340
2648+386900544+386286432+385404566+385118699+385596971+386074878+385868225
2638+385112489+384272423+383501403+382804605+382354829+382279206+382381802
2628+382348496+382095904+381749850+381411924+381075611+380697499+380261422
2618+379791035+379364700+379109886+379105897+379238876+379233853+378944058
2608+378535046+378244277+378068099+377854170+377571408+377299363+377076301
2598+376914675+376843345+376828093+376746869+376491354+376060574+375580262
2588+375241027+375145768+375195301+375186076+375025394+374797979+374662625
2578+374756423+375108597+375521384+375655976+375376106+374858744+374305489
2568+373788554+373378750+373147042+373080948+373184549+373472973+373747394
2558+373706051+373396377+373205342+373324651+373534926+373570302+373427582
2548+373218859+372930313+372493140+371966949+371507491+371247562+371293228
2538+371663059+372147603+372442085+372503491+372580270+372843517+373178764
2528+373368855+373332780+373177729+373095744+373189146+373374822+373499338
2518+373531456+373528959+373428647+373095318+372645267+372441933+372636560
2508+372969281+373148990+373203302+373301605+373395463+373211431+372606269
2498+371873456+371552548+371835128+372339368+372641005+372775415+372959508
2488+373139796+373143450+373015860+372935792+372981610+373114711+373251982
2478+373328000+373336737+373256853+373020548+372721072+372670871+373002921
2468+373424385+373617186+373645894+373723830+373827278+373802497+373676581
2458+373639623+373794612+374029547+374117712+373945522+373656001+373512063
2448+373591095+373675364+373510998+373138548+372878345+372980393+373373513
2438+373785844+374023397+374104926+374191873+374391950+374603077+374614281
2428+374394811+374178782+374199728+374427417+374633582+374669475+374596410
2418+374516191+374407354+374294499+374421450+374954003+375599107+375865277
2408+375691747+375520501+375761494+376439660+377297353+378013452+378411079
2398+378590758+378753267+378922200+379025922+379140908+379429911+379907696
2388+380373333+380491699+379979726+378794183+377047501+374795117+372077247
2378+369013049+365674278+362112962+358638625+355718000+353460014+351512676
2368+349585919+347843134+346624864+345963686+345710515+346085613+347574102
2358+350257661+353735804+357681229+362136587+367060049+371612583+374350516
2348+374257266+371581348+367949312+365251078+364109588+364069402+364697732
2338+365724084+366753206+367371824+367430671+367105532+366777104+366870597
2328+367522429+368344746+368843872+369071714+369527853+370481931+371755761
2318+373105578+374464010+375778269+376895130+377767710+378613713+379672335
2308+380918399+382154722+383231580+384106230+384863458+385685319+386644573
2298+387580476+388282144+388739715+389170677+389787560+390514892+391053534
2288+391261770+391239150+391063155+390789617+390633654+390759417+390949904
2278+390805296+390250123+389610742+389177649+388886210+388529592+388108219
2268+387769654+387575239+387559804+387839644+388442614+389175061+389796145
2258+390215630+390456897+390561837+390643030+390918394+391477160+392050325
2248+392266598+392095717+391791401+391505990+391209559+390832817+390277613
2238+389455357+388487884+387737322+387493163+387680971+387958618+388067790
2228+388021271+388005715+388240375+388895800+389982826+391273460+392414950
2218+393213004+393813812+394524858+395470351+396570437+397816258+399318233
2208+401079620+402959403+404899768+407045234+409544791+412252767+414762553
2198+416858152+418815932+421109902+423871428+426729400+429206886+431233225
2188+433111942+435022990+436833422+438370377+439627219+440758114+441956717
2178+443191091+444189100+444865348+445410139+445832821+445934047+445791296
2168+445726116+445753332+445509630+444781231+443768823+442706578+441516165
2158+440062139+438463352+436898267+435375590+433813580+432121392+430304811
2148+428519496+426848588+425461569+425242586+427366772+431889806+437620790
2138+443498056+449189737+454536672+459420465+464006123+468564320+473266730
2128+478155881+483087989+487903832+492600488+497035297+500788225+503565917
2118+505402987+506539180+507430939+508612920+510283767+512387281+515280355
2108+519850029+526691420+535522069+545539052+555777543+564937655+571706103
2098+575530452+576478776+574709322+570706267+565388406+559548982+553450420
2088+546668577+538373252+528343848+517341095+506226431+495541663+485865194
2078+477662114+470892509+465156563+460003525+455222540+451064313+447873986
2068+445589606+443934437+442657716+441346623+439669596+437873656+436490381
2058+435732270+435406065+435116270+434669203+434457771+435033341+436360143
2048+438057963+440128780+442924617+446686252+451448697+457298289+464660756
2038+474169023+486026455+499667376+514109121+528358217+541631590+553508872
2028+563605009+571172971+575612711+577127899+576531079+574789998+572591225
2018+569913694+566361877+562024062+557496278+553129786+548703136+543792430
2008+538261706+532314206+526160967+519923581+513866971+508389645+503676093
1998+499587796+496034731+493259444+491427002+490020985+488237527+486100251
1988+484457108+483832979+483952137+484317888+484808916+485700737+487217721
1978+489100730+490829207+492195007+493261666+494031438+494693529+495791881
1968+497595036+499702021+501711403+503814491+506251029+508628811+510333238
1958+511420507+512567143+514209220+516233550+518496498+521158625+524305661
1948+527577273+530567219+533419498+536459738+539374914+541592805+543348012
1938+545336113+547630358+549837898+551940408+554218943+556610242+558762679
1928+560667304+562834841+565623006+568564242+570858121+572525102+574240853
1918+576037707+577190918+577515083+577761678+578655873+580204732+581825437
1908+582946804+583547338+583999794+584456268+584780373+585079453+585809617
1898+587151762+588609837+589518828+589897366+590395853+591235493+591737694
1888+591388138+590723611+590381727+590155103+589626782+588940639+588452747
1878+588201829+587964733+587593075+587405115+588219182+590455888+592927742
1868+593303479+590815673+587108593+583768056+581020686+578729425+577087591
1858+576019745+574963710+573594836+572087563+570713452+569714104+569405039
1848+570135081+571983324+573947923+573766599+570465213+566027543+562602373
1838+560443116+558813764+557547850+557308988+558496479+560184648+560589185
1828+559145906+556824262+554063497+550576465+546948904+544489106+543696106
1818+543901236+544185460+544352170+544866792+545865470+546596973+546292779
1808+545299520+544697768+545275895+547189471+549881250+552080145+552685611
1798+552076491+551917757+553627724+557057583+559976108+559957111+557757303
1788+556257155+557018737+559509222+562405401+565042930+567349900+569092137
1778+570222333+571705007+575148991+581133694+587354579+589989611+588566851
1768+585745015+583563778+582971220+584442934+587240536+589395957+590174405
1758+590711981+591555701+592477539+594356652+598604170+604602328+609345411
1748+611007398+610833625+610717634+611650310+613861078+616631037+618503818
1738+619481490+621922047+627438341+633265405+634686400+632483791+629913909
1728+627795690+626127431+625618959+626859726+629929557+635180442+642941113
1718+651458252+656303625+655431959+651767926+648377644+646491468+646713830
1708+649429660+653975162+658587275+662778960+668291844+675623684+681177546
1698+682252029+680963282+678914050+676526891+675547575+677216747+680585718
1688+684435762+689621559+696890502+702713547+703261597+701366349+701153790
1678+704062025+709439130+714605807+716994062+717751260+719478032+721780131
1668+722211398+721228002+721677840+724385389+727052448+727530051+727112118
1658+728382538+732892238+741619500+753086399+759176985+756861369+754161370
1648+754748204+755269037+751806055+746862409+744622172+745732639+749091443
1638+753954656+758932704+760111670+755591923+749510410+745641856+744073331
1628+743305417+743069173+744386415+746747940+747873021+747806775+749734050
1618+755170947+760235028+759337180+754080024+749832810+748578891+748776836
1608+747905900+745365609+742982347+742646917+744456923+747193211+749841760
1598+752173390+754227920+755872920+756939975+757381471+757165015+756193493
1588+754636658+753370683+753318076+754276204+755221605+755886741+757253059
1578+760029168+762632416+762086620+759268621+758204001+760371356+763174072
1568+763184362+760868807+758769647+758556845+762107992+771835089+786187512
1558+793787440+789309401+782096231+777177914+774229554+772425637+771407597
1548+771602194+774528086+781250807+790652459+800192632+806707238+806023897
1538+799482621+794607656+795183836+799420760+802823158+803783173+804993253
1528+808445214+813459246+819050249+825873800+833867305+840096593+843022850
1518+845005898+847128135+848157684+848510953+850859692+857227073+867759408
1508+880357294+888807761+887940235+882796329+879398315+879106663+881826147
1498+886855949+891937931+894899078+896559239+899090823+903097653+907512673
1488+911248553+913859169+914676098+913482640+911536064+910637789+911961790
1478+915977631+922273469+929372292+935452527+938987660+939284913+937557959
1468+936172583+936053487+935709351+933697685+931574048+932233765+937004247
1458+944218148+948579587+946800391+942418737+939070467+937302109+936701575
1448+936984763+937582923+937970350+938686145+940679726+943766118+946792353
1438+948948505+950271349+951742454+954626760+958424136+960270796+958051869
1428+954430945+954145504+957858673+961799866+963267683+963936411+965971823
1418+968115918+968339863+967564825+967415772+967546741+966791126+965609054
1408+965744651+967659627+969239477+968095156+965193131+963592214+964548149
1398+966807566+969002076+970918696+971869151+970984089+969650042+970411320
1388+973601281+976287581+975583172+972971399+972018995+973627219+976223162
1378+979118123+983385613+988676257+991568418+989671526+985146725+981907506
1368+982356064+986852552+994022979+1001366510+1006791959+1010083116+1011850805
1358+1011960524+1010124581+1007408507+1006305711+1008490053+1013136507
1350+1018357314+1023489833+1029035962+1034492951+1038126966+1039530060
1341+1040074760+1040657942+1040362759+1038874179+1038884164+1043296688
1332+1051095536+1057850162+1060324146+1059063895+1056534137+1054886885
1324+1055081603+1056457419+1057352345+1057320318+1057813751+1059591060
1315+1061369830+1062364977+1064192700+1068029227+1072094083+1073741823
1307+1072177012+1068491973+1064449037+1061664769+1060780438+1060917435
1298+1059878327+1056745174+1053750357+1052306468+1050270022+1046246327
1290+1042899579+1042356584+1042148835+1038701502+1031958566+1024014806
1281+1016383886+1009862277+1004603355+1000134754+996378964+993742592+991700666
1271+988641734+983602799+976951256+969400768+961666766+954553999+948446547
1261+943103113+937710969+931077449+922887946+914596822+908299888+904782412
1251+902570670+898668141+891249963+881909806+873740214+867648776+861953594
1241+854843385+846056696+836634524+827956521+820986170+815993022+812689931
1231+810451216+808681701+807247920+806179891+804925972+802858169+800682655
1221+800119932+801768281+804126214+805296473+805242953+805643411+807874454
1211+811869532+816624183+821187221+825246657+829105104+833037955+836700283
1201+839683836+842561870+846321497+850762942+854731717+857990725+861220020
1191+864034001+865033958+864310431+864141224+866541169+871421432+877452713
1181+883467493+888900615+893952215+899483243+906549735+915886847+927079996
1171+937850097+945248366+948684496+950607509+953279256+956471471+958707811
1161+959323263+959052740+959183770+959873504+959752764+958496349+958153186
1151+960575538+964860868+967589423+966587701+964270197+964675100+967727516
1141+969266268+967166742+964305086+964262586+967368949+971294677+973817980
1131+974984404+976865221+981021774+986995151+992921949+997125385+999799446
1121+1002726191+1007002387+1010671838+1009573548+1002574824+994032599+989127678
1111+988383388+988583830+988538590+989854493+992614710+994452237+993654244
1101+991230492+989724376+991043567+995273367+1000891343+1006001638+1008120222
1091+1004592943+997543256+993741679+996082015+999954587+1000048537+996656124
1081+992008513+986238501+979700696+974222761+970478539+966287342+959915517
1071+952970739+947375778+943103357+939188041+935613270+933823784+934613983
1061+936591186+938186014+939581132+940765273+939774815+936085697+933640025
1051+936369798+942822543+948433030+951522101+953204486+953067855+949916983
1041+945655704+944333712+947749324+953552946+957967357+960063961+961646551
1031+962802502+960372113+952945653+944376821+939777251+940593510+943969787
1021+946457350+947751881+949555737+952291903+954706157+955388403+953657795
1011+949697361+944577811+939537780+934681324+928904858+920866113+910157021
1001+898489741+888753876+882307037+878175692+874443770+869960434+864753571
991+859384198+854344715+849890118+846205384+843623750+842507315+842617461
981+842820277+842089444+840476105+838331035+835377378+831459018+827016355
971+822184499+816765442+811189478+806305867+802414907+799371989+797371770
961+796822564+797472113+798397726+799231156+800803882+803967662+808509268
951+813866036+819917775+826311764+831914457+835670917+837821345+840150539
941+844807222+852271310+860716662+868251684+874919972+881723125+888889838
931+895879550+902418634+908551902+913478987+915651030+913895214+908937869
921+903995075+901685608+902115170+903780750+904902970+904831853+903981497
911+902576516+900714330+898774816+896979241+895659503+895903358+898569869
901+902620598+905762459+907220412+908459475+910612643+912511727+912120889
891+909832368+909069081+912539004+919350986+926025118+929395125+928543551
881+924876291+921200873+919652562+920061788+920960123+922159487+925435422
871+931555721+937402086+938610035+935102301+930870431+929060365+930101177
861+933256677+937145445+939566214+939745345+939995898+942604505+946388303
851+948684374+949738765+951985700+955607659+958140035+958207194+956613765
841+954642225+954157134+957260574+963377585+968597904+969592564+967256916
831+965537451+966829790+968903499+968108064+965666471+966804095+973034357
821+979546772+982520583+984288454+987348360+989629331+988818734+986922329
811+987286011+990528945+994583693+997240949+998393856+999098021+998155724
801+992532268+983350420+977300507+978274830+981672236+981364693+978026165
791+974877668+971244444+965036711+957434347+951698188+948534530+945090180
781+939229384+932878199+928761772+926084423+922126790+916617925+912028462
771+910432233+912119184+916480258+922409552+928691264+934751954+940316349
761+944966274+948624705+952458735+958505665+966332825+971108300+969223768
751+964064336+960321576+957963217+955985588+955575145+956292218+954868423
741+950741401+947918348+949497406+954369144+960064082+966239424+973603473
731+980497714+983141758+980392501+974933197+968983445+963130929+958772839
721+957604528+959006221+960348001+960671436+961514790+962906072+962051758
711+956822853+949831740+946453636+949318884+956082034+962555298+966266640
701+966542096+965724680+964984713+961408115+954809179+948723464+945972685
691+944751888+941024411+935594456+933646662+937669322+942658878+939526576
681+926545829+913212969+908256841+912340815+920333103+926097209+928500686
671+929747177+928391758+922638977+918422633+920632183+926267390+931101195
661+931504454+926192316+919150057+914583549+911817486+907092792+899592171
651+894032160+894868816+902011174+910572700+913961217+910892665+907747394
641+908591966+909409686+905142623+898279922+896573791+903556684+915052505
631+923764058+926161019+924074158+919873828+913400259+905053058+898997421
621+896904167+889878835+871527072+853480111+851383143+865896857+881554101
611+881539001+867411862+854863599+852719808+858793284+867627526+873190216
601+870813530+861637465
##END=
