##TITLE=<SNM>
##JCAMP-DX=4.24
##DATA TYPE=INFRARED SPECTRUM
##DATE=29/4/2025
##SAMPLING PROCEDURE=Instrument type and / or accessory
##ORIGIN=Admin
##XUNITS=1/CM
##YUNITS=ABSORBANCE
##RESOLUTION=4
##FIRSTX=4497.3318
##LASTX=599.83466
##DELTAX=-1.4281778
##MAXY=2.1372399
##MINY=0.37812048
##XFACTOR=1
##YFACTOR=1.9904598e-09
##NPOINTS=2730
##FIRSTY=0.39498714
##XYDATA=(X++(Y..Y))
4497+198440148+198780744+198989851+198783199+198411385+198276123+198354130
4487+198380242+198488150+199166497+200430752+201446118+201394957+200405778
4477+199204378+198378116+198368878+199388601+200810262+201429334+200825549
4467+199751940+198977259+198536781+198229992+198171854+198592164+199359224
4457+199943574+199945072+199554197+199181485+198822203+198265193+197695456
4447+197504750+197609588+197511803+196985022+196328355+195995859+196199276
4437+196741748+197105761+196832257+195816682+194336926+193091163+192975709
4427+194219287+195836026+196445874+195578678+193933116+192561912+192059492
4417+192403083+193297724+194358697+194920498+194453099+193450055+192984618
4407+193233133+193346610+192783761+191941493+191503216+191735710+192357940
4397+192892776+193191090+193476737+193871429+194195271+194231669+194001436
4387+193849225+194217805+195139502+196013556+196011909+194748148+192669834
4377+190805987+189966400+190100794+190463370+190464118+190315575+190756084
4367+192132902+193890324+195034170+194976765+193920584+192665298+192090470
4357+192498847+193386527+194054064+194327389+194527258+194945667+195470246
4347+195637056+195144248+194360643+194040305+194433050+194981451+195003461
4337+194409888+193589765+192858609+192312648+192067502+192251890+192764326
4327+193359367+193885219+194182664+194062195+193725536+193760916+194304511
4317+194787676+194913281+195116399+195643494+196013541+195838961+195435749
4307+195217674+195148770+195109601+195152857+195222914+195195260+195190708
4297+195333951+195345884+194937252+194420608+194328916+194638579+194950338
4287+195251646+195898612+196779299+197107139+196378019+195109077+194280390
4277+194377787+195148021+195998419+196568680+196977865+197418419+197719203
4267+197691354+197628080+197851515+198028506+197601264+196714183+196090860
4257+196082819+196402978+196783132+197318447+198053346+198812531+199486132
4247+199967096+199954340+199372101+198828177+199067663+200077295+201143253
4237+201622510+201337043+200354766+198839451+197248435+196330511+196562032
4227+197598838+198568448+198927834+198738521+198280480+197881850+197933236
4217+198575395+199532173+200486375+201324151+201884515+201917889+201452242
4207+200869090+200609465+200887191+201431669+201552887+200870332+199914662
4197+199518024+199677916+199642551+199145686+198834675+199223663+199933887
4187+200335407+200309370+200055405+199750368+199646593+199989959+200716729
4177+201578565+202428604+203179089+203837928+204542178+205164154+205281390
4167+204930941+204778356+205149287+205464489+204988152+203774819+202577791
4157+201991419+201936006+201986628+201956982+201937608+202003592+202176945
4147+202424726+202490545+202097081+201490377+201335980+201899203+202668135
4137+202917788+202410607+201517268+200876651+200991520+201922995+203226133
4127+204234746+204475206+203933393+203056659+202459582+202480229+202984236
4117+203634061+204304084+205102961+205952910+206371289+205956249+204949253
4107+204006444+203548613+203585625+203977622+204595376+205376316+206328677
4097+207286248+207789881+207527217+206698305+205679151+204722508+204196671
4087+204491107+205322430+205735104+205256026+204551851+204539558+205292125
4077+206168560+206661083+206698769+206398299+205991240+205817154+206005254
4067+206334801+206572281+206657939+206538383+206194268+205832815+205721733
4057+205872163+206089520+206216637+206215978+206132057+206015585+205857400
4047+205626448+205375972+205259799+205421084+205843251+206282546+206411026
4037+206123208+205675303+205420051+205446897+205652395+206099462+206931758
4027+207891350+208409866+208373273+208332667+208712222+209227369+209293143
4017+208735819+207866391+206978412+206087439+205209327+204632762+204732809
4007+205568085+206742489+207724466+208301240+208559906+208470011+207906772
3997+207143215+206757387+206917848+207273582+207571311+207851284+208114217
3987+208291702+208465893+208760733+209063958+209102018+208833964+208615709
3977+208839399+209495183+210208986+210605490+210606269+210500218+210611539
3967+210830333+210785880+210497089+210341658+210415892+210542590+210808234
3957+211380321+211868712+211650516+211011097+211189885+212763923+214512825
3947+214804102+213879200+213396170+213923294+214253111+213417700+212152203
3937+211715438+212411019+213750900+215235851+216360726+216458946+215454301
3927+214358922+214254877+215059040+215896890+216550548+217597267+219073294
3917+219849353+218759169+216025056+213046350+211137765+210836712+212136736
3907+215018539+219355227+224158551+227583754+228468873+227135610+224441848
3897+221242596+218616151+217690022+218866447+220843397+221314869+220160348
3887+219697725+221107559+222921427+223851539+224711564+225478085+224392917
3878+221789859+220523583+222065789+225226261+228458947+230968351+231501450
3868+229687357+227489337+226640811+226540315+225647874+223927420+222515326
3858+222566667+225567606+232891400+241276704+242353353+235603788+227405625
3848+222011079+220583204+222341659+225635821+229172570+232694166+236163148
3838+238494859+238343441+236108843+233307233+230786809+228598221+226922460
3828+226209361+226505369+227875450+231206415+236492351+240497681+240525036
3818+238655514+237124837+234897965+230986558+227081544+225474087+227194826
3808+231123033+234305919+235586464+237008710+239674069+241585349+241550912
3798+240950512+240162370+238267156+235663319+234043600+234317089+236131347
3788+238786090+241640493+243910651+245324213+246879519+249624278+252917722
3778+255271322+256638289+258185675+260833576+264976160+270298674+275612174
3768+279983030+283501347+286583123+290062961+295486959+303722897+313363083
3758+321793396+328532165+335860346+346469768+360765170+374292059+381386937
3748+383614228+386329296+391411979+395207259+394700676+393367428+395969842
3738+404118011+414844638+422265439+423408416+420365269+416620596+414387765
3728+414589146+416967182+419719112+420667386+419399148+417177666+415310405
3718+414402318+414987686+418147410+424491772+431756409+435366329+434299652
3708+431823367+430678773+431669718+434226346+436494782+436699457+435343391
3698+434358225+434985486+437605538+442367688+449013178+456026156+460554673
3688+460712574+457605075+453554213+450452373+449605943+451293952+455029222
3678+460583061+467047743+471616087+473476071+475035616+476348022+474120431
3668+467653414+460647893+456235053+454870842+455211348+455959438+457408155
3658+460195002+462833351+463377125+463609739+467359951+475498388+483124972
3648+483753641+477878549+470439781+464972184+462811820+463451748+465331556
3638+467337852+469385742+471715595+474602848+478650176+483775591+486946005
3628+484543774+479151908+476028777+477313125+482562063+489825742+495865052
3618+498456896+498963718+499688151+500904344+502163628+504008789+506273961
3608+506997616+505586780+504398376+505574562+508833554+512202505+513947649
3598+514145467+514386705+515681654+517335585+518921601+521830713+526783344
3588+531120003+531374836+528205320+524982023+523585740+523719535+524389468
3578+525150494+526286075+528044634+529784748+530397665+530190445+531283324
3568+534401993+536179957+533413802+528376966+525364003+525729334+527807109
3558+529493501+530319928+531357049+533412724+535718562+536919902+536882710
3548+536241584+534823261+532194974+529340362+528338935+530116540+533313186
3538+535857926+537342308+538600664+539538247+539224721+537833649+536645424
3528+536202356+535772822+534476496+532355780+530420184+529682695+530032514
3518+530145886+528944367+526990684+525803658+526019623+527014581+528259461
3508+529884944+531858570+533569038+534373425+534339707+534187406+534341923
3498+534484342+534217590+533746613+533489983+533407095+533365770+533705288
3488+534823201+536601884+538286839+538644623+536608472+532436871+528084521
3478+525753051+526296196+529000005+532264447+534445174+534773912+533883702
3468+533116806+532992534+532769263+531643085+529686767+527631691+526388367
3458+526540788+527701642+528666116+528684622+528142136+527633787+527094355
3448+526172343+524866494+523582266+522809800+522691397+522743801+522287677
3438+521352968+520723341+521043994+522274740+523712467+524322391+523513811
3428+521643915+519468519+517491959+516184732+516105977+517227124+518756603
3418+520124917+521371474+522319658+522287617+520954638+519093246+517862380
3408+517391463+516837238+515827427+514942188+514652558+514638424+514621056
3398+515071251+516669664+519340354+521738542+521909709+519253094+515534024
3388+513476192+514652858+518325692+521916955+523255205+522533107+521568394
3378+521754952+523235261+525126718+526059090+525423894+524315383+524497690
3368+526398070+528699355+530172717+531062508+531981166+532629598+532672899
3358+532845084+533948264+535517690+536545048+536749933+536323933+535441749
3348+534586275+534480209+535323345+536394843+536560979+535325142+533319894
3338+531612421+530715683+530388203+530228595+530207993+530851215+532715601
3328+535154035+536218406+534567350+531049751+527847835+526742020+528239458
3318+531022561+532315414+530361492+526501620+523699292+523555016+525349629
3308+527376378+528675100+529553811+530739999+532145265+532618519+531202532
3298+528677855+527293190+528697678+532538146+536867677+539570109+539958318
3288+539302938+539301680+540152842+540806544+540733478+540394200+540215726
3278+540232975+540503859+541054850+541544693+541371490+540232675+538674569
3268+537893060+538476751+539488119+539611253+539127878+539467996+540762046
3258+541558468+541105517+540199316+539582566+539155668+538862924+538965396
3248+539443021+539919988+539851593+538703735+536629853+534690424+533944550
3238+534787327+536916069+538997377+538993724+536336750+533134833+531843777
3228+532701107+534348031+535558116+535698858+534766246+533403022+532248576
3218+531228644+530208711+530007360+531500127+533936106+535230695+534086131
3208+531239484+528366725+526277331+524548596+522617433+520700942+519583988
3198+519898831+521507605+523207053+523515368+522268092+520846416+520504083
3188+521110412+521691109+521511199+520501148+519193862+518260771+517810815
3178+517263357+516170898+514952908+514490735+515030406+515504259+514361252
3168+511412611+508168592+505971635+504799461+504274463+504490248+505203422
3158+505584384+505279183+504593259+503709877+502704438+501912598+501591226
3148+501582752+501386731+500384257+498556284+497002789+496904209+497980019
3138+498601890+497564291+495343617+493359421+492404918+492277202+492696015
3128+493584099+494265501+493657944+491767925+489888896+488912504+488370107
3118+487436686+486218158+485514147+485567899+485739095+485608594+485651775
3108+486231094+486642660+486003691+484583721+483334079+482537897+481808074
3098+481024798+480496416+480267365+479937429+479321128+478733843+478415826
3088+478186925+477923647+477890737+478263045+478677606+478614422+477909153
3078+476709910+475365971+474502472+474624349+475350070+475593165+474826239
3068+473640081+472774546+472208762+471504691+470524167+469563646+469061256
3058+469117313+469193973+468651426+467659283+467033250+467139315+467464610
3048+467245381+466348014+465456038+465159341+465137481+464748014+464124257
3038+463902243+464141535+464343335+464210648+463707420+462777173+461546038
3028+460472683+459837966+459268588+458208440+456784547+455794231+455884455
3018+456965326+458248207+458735265+458011640+456615627+455335890+454396061
3008+453618984+452948033+452434054+452048270+451782717+451656408+451423135
2998+450654682+449472896+448777360+449160029+449943036+449944802+448929092
2988+447630490+446682067+446247922+446345992+446756840+446827481+446013541
2978+444556799+443204176+442355260+441891290+441619538+441359943+440853301
2968+440085267+439420006+439084530+438861498+438480117+438008151+437730080
2958+437803086+438117840+438441457+438559381+438299967+437580863+436471874
2948+435250680+434446054+434590300+435559325+436361706+436004879+434413354
2938+432362559+430881382+430647061+431459772+432408405+432831051+432824194
2928+432676594+432326475+431552992+430324971+428859933+427529889+426707834
2918+426558558+426905083+427358483+427607417+427458560+426704750+425328051
2908+423811478+422894647+422959478+423746737+424574900+424828536+424388701
2898+423645582+423095280+422947740+422973133+422665477+421795869+420778452
2888+420159755+419883990+419463141+418758681+418157442+417946388+417885749
2878+417601720+417165179+416947717+417016501+417064174+416943585+416855815
2868+416878394+416703095+416086045+415266356+414672274+414484099+414686588
2858+415139029+415348496+414727044+413433473+412419889+412296125+412619773
2848+412603063+412051413+411255651+410433536+409663945+409022221+408507104
2838+408057926+407693763+407414015+407109144+406767440+406512157+406339823
2828+406149341+405976019+405859053+405651802+405212297+404582940+403922110
2818+403457900+403376269+403539081+403497757+402929488+401943723+400957988
2808+400299673+399886011+399406289+398848890+398557554+398697308+398998526
2798+399096387+398873745+398465263+398094482+397870432+397621049+396987978
2788+395835389+394555053+393757673+393634000+393840412+393979357+393905722
2778+393588902+393040217+392418196+391900205+391446715+390903630+390250106
2768+389557175+388883529+388362663+388106811+387899710+387370100+386609703
2758+386162771+386262279+386541667+386613895+386456893+386126088+385555034
2748+384754839+383886789+383118067+382573125+382305834+382185095+381975329
2738+381630601+381304977+381023732+380628216+380105853+379657124+379356026
2728+379080860+378828392+378733675+378732627+378524359+377940698+377120020
2718+376278442+375500077+374759623+374039741+373438951+373155011+373256825
2708+373531931+373694354+373629672+373328843+372802976+372202605+371789781
2698+371641583+371555760+371307514+370837465+370211462+369560753+369002216
2688+368504168+367937426+367327233+366891920+366734648+366640052+366274691
2678+365536482+364689364+364134659+363993139+363975291+363747708+363320391
2668+362974524+362926971+363126106+363306197+363243432+362964942+362635575
2658+362294859+361865954+361391114+361072916+361030873+361138796+361165866
2648+360981015+360557800+359947457+359371492+359115610+359162924+359131541
2638+358666193+357754483+356762609+356257554+356510441+357095480+357323812
2628+357030409+356570541+356215212+355951125+355752260+355683955+355731358
2618+355756242+355700245+355667305+355685721+355591514+355320570+355057741
2608+354925444+354807669+354602126+354375980+354203825+354059220+353907338
2598+353770129+353635376+353375212+352925167+352525758+352499227+352762594
2588+352916093+352829222+352753730+352876086+353090374+353159188+352912081
2578+352384027+351823394+351474623+351397694+351544036+351819741+351983301
2568+351711100+350941269+350058696+349562684+349559180+349743643+349859680
2558+349940502+350092025+350309397+350517276+350606363+350523355+350418666
2548+350482060+350598457+350482749+350141794+349853541+349769216+349877617
2538+350186322+350568782+350650143+350254567+349762388+349639793+349835005
2528+349976466+349963949+350026684+350294155+350588426+350685149+350633553
2518+350676375+350874671+351003406+350877995+350582137+350301311+350139907
2508+350142872+350297808+350472897+350511017+350439209+350471879+350762617
2498+351224910+351591678+351596230+351163732+350518025+350031356+349904119
2488+350058815+350313529+350512545+350547341+350412737+350208421+350024618
2478+349902292+349875341+349928494+349966914+349938466+349917115+349974310
2468+350062020+350121341+350198031+350309696+350325238+350185573+350081724
2458+350176260+350358267+350485324+350595073+350707667+350698384+350479216
2448+350115681+349772719+349685669+350049592+350756837+351347955+351413744
2438+351015084+350568482+350390039+350510299+350824753+351201283+351480582
2428+351544994+351399341+351170679+351060152+351200954+351493189+351688521
2418+351678519+351607969+351712058+352077090+352537347+352837397+352914656
2408+352951668+353154606+353546648+353964473+354245479+354417634+354650128
2398+355045134+355556957+356055424+356400992+356576650+356760453+357097247
2388+357424667+357383013+356770036+355650865+354126626+352161834+349724298
2378+346933259+343914098+340696190+337437618+334457894+331832302+329327479
2368+326923721+324978693+323742736+323096939+322888640+323299218+324781953
2358+327658965+331789271+336750137+342284871+348062042+352999940+355617357
2348+355140150+352182886+348608901+346156751+344936276+344090205+343372450
2338+343241769+343976474+345184072+346230057+346999647+347871261+348946113
2328+349778139+349997128+349839587+349931339+350698654+352075952+353739226
2318+355412981+356862926+357911905+358696109+359644652+360975924+362383257
2308+363400254+363935075+364248182+364552664+364894578+365350433+366068638
2298+367070244+368168573+369127477+369845891+370423773+371064420+371853205
2288+372642440+373199150+373418289+373335012+373005944+372501787+371994217
2278+371692100+371615680+371537523+371244689+370755146+370191069+369590998
2268+368991016+368573521+368526747+368766817+368995538+369080163+369165806
2258+369350328+369532485+369700298+370054878+370692081+371424899+372027875
2248+372420157+372584825+372555749+372460463+372371167+372180176+371762891
2238+371155243+370485400+369876076+369455466+369305501+369368655+369521255
2228+369710659+369917340+370071678+370170856+370409699+371011806+371949209
2218+372955247+373781674+374378960+374918302+375686845+376855126+378336004
2208+379951246+381650484+383499868+385570306+387843054+390138710+392226308
2198+394065270+395840030+397768948+399948447+402269466+404453936+406307512
2188+407896013+409388091+410844893+412202157+413361963+414321616+415209939
2178+416143690+417129814+418074973+418727568+418782487+418267730+417600612
2168+417133677+416842999+416429426+415630879+414534257+413494890+412672117
2158+411868478+410838634+409510506+407974260+406426394+405048797+403943730
2148+403133025+402495822+402057604+402543734+404970820+409428367+414957741
2138+420713651+426524869+432426642+438386179+444344907+450104739+455408507
2128+460267170+464982395+469832703+474786651+479452527+483369564+486387348
2118+488718100+490685497+492460347+494072385+495732605+497981487+501365290
2108+506148551+512463327+520467071+530079528+540557461+550569985+558923668
2098+564911802+567869367+567343050+563936608+558996674+553466102+547541931
2088+540900992+533049549+523905494+513821760+503068870+491969546+481221118
2078+471475914+462987089+455768837+449630109+444269954+439644325+435861682
2068+432789457+430197973+427982929+426040267+424314856+422897013+421830546
2058+421107789+420772583+420678765+420532393+420362813+420461632+421032447
2048+422356233+424781731+428247944+432421162+437364120+443626642+451876924
2038+462550309+475396425+489430795+503686340+517683129+530991837+542899053
2028+552603023+559536646+563707767+565638871+565869449+564926715+563523844
2018+562048566+560120097+557212661+553401421+549111057+544480097+539284192
2008+533388229+527108668+521015007+515361121+509834381+504012263+498022961
1998+492543175+488181423+485051704+482800606+480848361+478796518+476723774
1988+474933293+473578604+472698366+472306683+472333184+472710254+473435316
1978+474407606+475487308+476733327+478207737+479725867+481201594+482887417
1968+484853467+486637510+487831693+488679560+489785346+491538305+493957905
1958+496778350+499517644+501743408+503484030+505202284+507299044+509819169
1948+512583707+515459161+518540818+521952051+525313576+527840468+529346351
1938+530580810+532318288+534632451+537134429+539547470+541867142+544124169
1928+546304477+548577315+551206380+554038953+556572673+558699678+560695823
1918+562447016+563514741+563971045+564442322+565477107+567213508+569310208
1908+571131173+572248428+572692993+572765700+572905185+573525529+574645238
1898+575927430+577187762+578471691+579726334+580830951+581679777+582023787
1888+581808481+581556822+581665223+581754280+581380744+580885511+580878085
1878+581275697+581343672+580591210+579486892+579208103+580521078+582660900
1868+583471755+581585629+577962444+574458920+572121819+570944675+570268154
1858+569260259+567530627+565491541+563932835+563299794+563429936+563834256
1848+564241450+564731533+564987803+563918881+561173149+558074543+555902261
1838+554681516+553709377+552666866+552145341+552766942+553749084+553235225
1828+550924357+548508081+546761140+544693726+541780002+539031335+537469396
1818+536950745+536699146+536446828+536640094+537536952+538536821+538771291
1808+538199758+537629482+537884376+539267064+541376161+543189521+543816513
1798+543497417+543541317+545273405+548896231+552602424+553700692+552071556
1788+550146741+549692952+550764150+552761313+555309287+557915953+559844721
1778+561049475+562519423+565349361+569646852+573777308+575428185+574484672
1768+572756597+571693244+572099181+574229779+577019291+578665976+579223614
1758+580333502+582337852+584423832+586904070+590870007+595766760+599072467
1748+599438157+598242986+597399790+597916284+600104916+603517647+606704531
1738+608882682+611538758+616092759+620317423+620481642+617752799+615322509
1728+614177047+614054272+614549086+615327720+616771676+620127450+626213565
1718+633675481+638600023+638577984+635771223+633351295+632825098+634400334
1708+637710173+641675212+644736027+646984789+650660079+656808839+662401997
1698+664134743+662809251+659729211+655853169+653395869+653956263+657048340
1688+661562993+667977307+676597741+682977738+682382009+678077451+674823849
1678+674420787+677363918+683052840+689328748+694652639+698931862+701040421
1668+699614852+696625905+695239863+696221046+697991764+698869996+699182563
1658+700607115+704796802+712775871+722396653+725994864+722642323+720343553
1648+721924777+723768441+721043671+715097220+710503572+709278396+711241121
1638+715587602+720710501+722930575+720053803+715583709+713613796+714990915
1628+717976088+720799678+723632550+726900466+729490962+730808010+732396122
1618+735705482+739738916+741941083+742053078+741650375+741213475+740210851
1608+738444865+736476570+735090288+734958290+736569939+739854384+743950164
1598+747922510+751645532+755312976+758289585+759466730+758686479+756931512
1588+755439704+755195052+756504015+758389063+759357969+759667662+761672431
1578+766893070+772660689+773566051+770083548+767831432+769067568+771514208
1568+772143536+771210923+770939800+772983318+778681463+789536525+804407952
1558+814268116+813182365+807627117+802899195+800290373+799436756+799265589
1548+799496107+801107936+804801492+810013867+815880903+821266541+822931791
1538+819550144+815338955+813959082+815468318+817488120+818630049+820192887
1528+823445830+827892687+832345473+836369564+839827212+842813344+846676569
1518+852052625+856511220+857286680+855694076+855568786+859162864+866538178
1508+876122607+883484686+883826180+879859883+877110259+877983939+882627715
1498+889227749+894203797+895555761+895736210+898118109+902856152+907008229
1488+908604306+908789547+908712767+908444579+908274191+908742054+909763423
1478+910969794+913059727+917775851+925300472+931071923+929915441+924903638
1468+922484548+924120213+926170858+925313288+923665885+924975686+929391520
1458+932982245+930705514+923652410+917173115+913324023+911551449+910625904
1448+909450496+908014027+907110521+907156457+908512913+912166223+918682710
1438+926803899+933225399+935328508+934517114+933338173+932398194+931625669
1428+931467079+932031785+932597869+932723099+932871687+933396027+933977382
1418+934681992+936545540+939647978+942143488+942149058+940046608+938025969
1408+937072155+936025931+933960433+932118806+932404602+934676842+936743717
1398+937025920+936584768+937101322+937847136+937253443+936238063+936541347
1388+937180796+935455955+931839537+930326588+933149938+938584206+943816824
1378+948507495+954244209+960783335+965049562+965445138+964745200+966229941
1368+969694956+972900166+975001358+976601149+977899332+978657603+979365028
1358+981049323+984346346+988960416+993325104+995446120+994748337+992516704
1348+990792881+991219300+994430140+999712527+1005092176+1008510955+1009483574
1338+1009689597+1011588839+1016335746+1022673341+1027684604+1029996371
1330+1031473386+1034508508+1039279611+1044070478+1047502792+1049449587
1321+1050379085+1051523110+1054386826+1058417685+1060628476+1059258306
1312+1056954205+1058242805+1064155777+1070882779+1073741823+1071501206
1304+1066079694+1060190558+1056629839+1057237247+1060290096+1061699435
1295+1060120606+1056883894+1052013373+1045170184+1038254887+1033817853
1287+1031905435+1030179036+1026739774+1021784329+1017024844+1013679490
1278+1010796729+1006217275+999418465+992531677+988087275+986572589+986241515
1268+984695267+980367472+973196563+964787961+957396477+952173681+948455630
1258+944299660+938100831+930365277+923145079+917746624+913465724+908657728
1248+902685165+896306187+889918524+882305265+872225005+860670244+850253399
1238+842656431+837451482+832993726+827863460+821841727+815999845+811627971
1228+809073589+807552734+805998879+804064961+802214409+801030497+800801956
1218+801706899+803776409+806434162+808628903+809786164+810350630+811328280
1208+813466664+816761590+820690096+824891043+829296037+833590413+837281394
1198+840381557+843164900+845530209+847505272+849573824+851808152+853732728
1188+855498594+858097655+862099527+867101028+872330052+877123434+880902574
1178+883529543+886267011+891544426+900506715+911370461+921126056+928347871
1168+933638762+937689984+940207893+941205187+942152292+945176454+951283830
1158+958646987+962746660+960827414+955695891+952203746+951983769+953361546
1148+955007152+957840743+962371746+966611861+968670831+969341902+970431487
1138+972559869+975778735+980293388+984649511+985448208+982241860+979658550
1128+981330988+985641654+989139009+991176418+992878561+994233700+994523449
1118+993284258+990922603+989486253+991372260+996442695+1001184272+1002227681
1108+999911542+996776224+994679823+995009819+998815190+1004496387+1008074953
1098+1008043451+1007299973+1007879471+1007597628+1004106800+998879393+994904771
1088+993431289+993041283+991704711+989593337+987854482+985876184+981582108
1078+974592128+967679646+964251584+964778798+965492032+962056543+955301932
1068+949887068+947499600+945129141+940527947+935779003+934063145+935879379
1058+939996540+945249281+950002896+952394377+951557948+948414904+945436738
1048+944445852+944584798+943879769+942428207+942481509+945708520+951346476
1038+956461649+957867095+954892103+950366610+948443711+950252339+952081330
1028+950471778+946814874+943647454+940912742+938542762+938317934+940463744
1018+942498339+943411786+945307554+949349852+953119229+953716276+950326484
1008+942689808+931540864+920347601+912997441+909946149+908095897+904110495
998+896879517+887245738+877113792+868627872+862891935+859294862+856220752
988+852650809+849214242+847199592+846639737+845920394+843756317+840972076
978+839063251+837642952+834651250+829233092+823192254+818847930+816428480
968+814421436+811955212+809689022+808440308+808042936+807815772+807597292
958+808023711+809736934+812223940+813935785+814314352+814963503+817948736
948+823364679+829158169+833533697+836775680+840133132+843829144+847153416
938+850334910+855022107+862158039+870820457+880015359+889750052+899124027
928+905742207+908504289+909127807+909355391+908811586+906825503+904433903
918+903291974+903256878+902302526+899281059+895385313+892074875+889686628
908+888826364+890446757+893310053+893902009+891119085+888344965+889173488
898+894083177+900873004+906054895+907081834+905261168+905117851+909307658
888+915909608+921229187+923697507+924392474+924710432+924795956+924306831
878+923829565+924769544+927691713+931327714+933311582+932525222+930842004
868+930992868+933060761+934732360+934747273+933775073+932614219+932254817
858+934104410+938562945+943699798+946861349+948022024+949544675+952854814
848+956556515+958486301+958693162+958446714+957639033+954996192+949797233
838+943658235+940388941+942514090+948953917+956680189+962976758+966034698
828+965779446+963772820+961519267+960069083+960743508+964822159+972581610
818+982216586+988762299+988002770+983045228+982948565+992678468+1006232248
808+1011673045+1005026296+996018432+995099894+1002091730+1007488028+1003940604
798+993896577+982639651+971954079+961896516+953407901+948081854+947199370
788+950476389+955158256+957998015+958629858+957880510+953605958+944012486
778+933170839+927323387+928192456+932352737+935154108+934460937+931397127
768+928388058+928012605+931391498+935972748+937955118+937888939+940095479
758+946261188+953403529+958629499+961947723+963091149+960770937+956856086
748+955794770+958991536+963609440+967470210+970984814+973848769+973422709
738+968324545+962010068+959961819+964229843+971118130+974379338+970917138
728+962965858+955299657+951411756+952084325+955504721+959154198+962348988
718+964971825+965375306+962303950+957843139+956821709+961567659+969226134
708+973995620+971029013+960818011+949496823+942253088+939353318+939666365
698+943798558+951405108+958463842+959850004+954423581+946910818+944248274
688+947950455+950636236+945262876+936192366+932693573+937045983+943287334
678+944925993+942391375+941105170+945843094+954263794+956316894+946263883
668+932533666+926941766+924974728+918340018+910554036+906212885+904107680
658+903019293+905436647+912422853+918413563+916000282+905582480+896038058
648+896392908+908738101+925678799+934406676+929880585+919336892+912879338
638+912846338+913845249+912719131+912327807+914045881+914422172+910739995
628+902213769+889998418+878209546+868157613+858565698+852551631+854330074
618+862320941+869800764+872419648+873458626+876048283+878330344+878927331
608+879499404+878143966+870239880+860193397+858300204+866255676+875773147
##END=
