##TITLE=<SNM>
##JCAMP-DX=4.24
##DATA TYPE=INFRARED SPECTRUM
##DATE=29/4/2025
##SAMPLING PROCEDURE=Instrument type and / or accessory
##ORIGIN=Admin
##XUNITS=1/CM
##YUNITS=ABSORBANCE
##RESOLUTION=4
##FIRSTX=4497.3318
##LASTX=599.83466
##DELTAX=-1.4281778
##MAXY=2.1048834
##MINY=0.37251151
##XFACTOR=1
##YFACTOR=1.9603255e-09
##NPOINTS=2730
##FIRSTY=0.38232192
##XYDATA=(X++(Y..Y))
4497+195029821+195926266+197444336+198574356+198447732+197428434+196478475
4487+195934795+195705294+196087400+197287915+198483079+198493112+197325405
4477+196178343+195947459+196403207+196869688+197182818+197666402+198329303
4467+198544619+197885672+197031810+197090279+197965729+198290065+197321619
4457+196033598+195756193+196580364+197598963+198042336+197731349+196878612
4447+195896712+195192658+194846719+194599857+194359928+194481550+195190970
4437+196021800+196264284+195744441+194879755+194341046+194729187+196049515
4427+197506120+198217380+197990951+197199253+196258887+195383817+194556393
4417+193694230+192911395+192453078+192390808+192611247+193008921+193456733
4407+193745235+193795708+193823985+194066530+194402526+194487387+194234961
4397+193922165+193795815+193874078+194178437+194825892+195765756+196575119
4387+196655770+195729892+194182238+192821957+192191150+192112856+192039761
4377+191916406+192265476+193202695+193915947+193540591+192190770+190761347
4367+190025337+190138993+190689773+191040515+190828787+190295824+190082195
4357+190561781+191332621+191628132+191385572+191403435+192117888+192808746
4347+192526751+191430694+190587185+190672563+191477731+192539947+193536866
4337+194020983+193658975+192940052+192791172+193379928+194069388+194537420
4327+195169246+196216760+197165518+197273594+196544075+195748196+195474304
4317+195680043+196160328+196667339+196613658+195612983+194272588+193596613
4307+193844053+194595008+195443929+196141552+196631643+197209682+198019942
4297+198439644+197760112+196396092+195557189+195743392+196334247+196605433
4287+196464899+196159355+195817658+195481905+195237856+195081404+194792446
4277+194155253+193331006+192839912+193134997+194281983+195910987+197334542
4267+197954981+197805888+197548885+197718487+198095530+198069974+197579716
4257+197341717+197950192+199079406+199900020+200038273+199762997+199448924
4247+199232118+199007223+198571148+197962506+197602156+197847178+198573854
4237+199327424+199669288+199403057+198699930+197987165+197633656+197772594
4227+198333195+199050217+199556605+199745955+199932204+200433271+201167442
4217+201789766+202017975+201751592+201145930+200603010+200414222+200420835
4207+200287720+200090312+200264232+200909223+201566620+201847947+201897356
4197+202017975+202207750+202304394+202317225+202443849+202828676+203344171
4187+203648605+203593982+203472497+203559137+203661361+203570281+203592538
4177+204079086+204793600+205252464+205418478+205649530+206048906+206195278
4167+205722275+204980350+204636510+204664453+204399530+203691188+203309432
4157+203892594+205004492+205670950+205578031+205239299+205132180+205280544
4147+205604833+206034402+206316611+206255754+205995483+205734406+205477313
4137+205225160+205047805+204931778+204844879+204888207+205212451+205863189
4127+206610723+206903710+206350574+205300763+204624150+204878218+205887300
4117+207051450+207917216+208515794+209108093+209604979+209565421+208829700
4107+207778613+206894102+206498694+206924295+208281443+209957607+210999542
4097+211102236+210670250+210047364+209321858+208631593+208098478+207698388
4087+207502774+207754623+208552296+209693322+210836431+211647923+211903010
4077+211666729+211295083+211068638+210933790+210752269+210551867+210267484
4067+209612611+208662637+208164261+208707668+209871589+210642156+210563208
4057+210105225+209867500+209836426+209678864+209407997+209331041+209587526
4047+210129139+210824695+211287527+211084738+210431111+210144874+210629553
4037+211349509+211597359+211449908+211613155+212464432+213532151+213983658
4027+213526070+212686362+212178621+212171491+212352571+212533742+212884134
4017+213558741+214285417+214530546+214132219+213487379+212958537+212535125
4007+212289662+212519512+213181500+213867691+214427395+214966272+215348286
3997+215301522+214837444+214240143+213904923+214190491+215027645+215776593
3987+215816850+215148507+214264300+213613334+213254929+213058419+213224022
3977+214161165+215643341+216719847+216821721+216326385+215773035+215247538
3967+214780707+214694751+215241122+216240611+217255607+217969482+218270527
3957+218069972+217399106+216727464+216761275+217805885+219476393+220913980
3947+221398886+221136456+221152678+222001812+222939593+222930106+222002298
3937+220965988+220589933+221406548+223355403+225149327+225076992+223186987
3927+221440131+221362962+222506543+223438790+223839109+224657472+226308536
3917+227621353+226943858+224229515+221214857+219446368+218936893+219109961
3907+220475487+224192010+229872697+234957604+237292973+236944207+234666639
3897+231109121+227713148+226377404+227828901+230310369+230917597+229704722
3887+229493389+231436664+233630328+234678816+235600680+236252862+234685414
3878+231541517+230033086+231538066+234683529+237961650+240501831+240772987
3868+238600029+236578262+236477772+236721441+235009643+232094228+230437357
3858+231519032+236248636+245147941+253550846+252248184+242938755+233956822
3848+229367343+229419047+232637057+237067532+241420746+245608052+249402200
3838+251114698+249723085+246850952+244195033+241723280+239012008+236639483
3828+235400247+235339010+236798169+241099770+247741514+251976207+251008917
3818+248490842+246965702+244298685+239362416+234874019+233482512+235725145
3808+240038573+243666920+246042258+249244867+253121840+253906742+250736484
3798+247163733+244839736+242582630+239814317+237620623+236990438+237884816
3788+239705739+241799081+243640209+245292838+247485560+250356750+252532901
3778+252763420+251905469+251810452+253690879+257865932+263404382+268315232
3768+271658863+274205048+276507625+278826378+282371901+288202973+295156221
3758+300866918+305244821+310631031+319122523+330548113+341051201+346465141
3748+348803627+352651715+358916308+363540131+364015643+363723446+366640305
3738+374293061+385049366+394164079+397542675+395843191+392827454+391384014
3728+392446230+395718772+400109993+404196733+406693084+406777216+405078675
3718+403868993+405419520+410886457+420190018+430848296+437790871+438452829
3708+435728741+433801854+435147813+439887451+445612773+449612493+452009661
3698+454298191+456770521+459419903+463335430+469519875+476449498+479820463
3688+477101726+471106190+465889491+463466417+464089274+466688669+470262864
3678+475389989+482049915+486404071+486402581+486223523+487983119+487919481
3668+483422509+477673289+474087022+472843408+472716982+473816049+477699802
3658+484752628+492245999+497200846+501098859+507709559+517353753+523642702
3648+519981395+510273410+502098105+498716985+499553713+501925524+503077375
3638+502703235+503160442+506437120+511997644+518520168+525768835+532192055
3628+533528011+529405149+525103320+525190523+531011531+540234001+547474581
3618+549648026+549826628+551328719+553552029+554807958+555411203+556042299
3608+555434250+552451411+548206502+544639817+543187286+544761074+549021734
3598+554028301+557997980+560898116+563461906+566017244+568917805+572050482
3588+573384979+570956432+566595556+563598123+562717580+562631167+562384640
3578+562102234+561779084+561049474+560713919+563051189+569515760+578408269
3568+585138037+586257871+583244140+579952929+578641905+579374677+580972728
3558+582025974+581647365+579936935+577677382+575739154+575051078+576411663
3548+579514056+582841267+585503693+587739712+588773499+587232062+584529562
3538+584236271+587486799+591645844+594008897+594361358+593396713+591376573
3528+588639958+585815471+583372329+581505919+579991665+578160404+575915384
3518+574446799+574937361+577031934+579338069+581050506+582516658+584614333
3508+587565610+590306969+591743324+592216433+592744090+593360957+593368254
3498+592995179+593526302+595339624+596886290+596614161+595411746+595780929
3488+598698031+602654089+605560853+606305118+604780405+601526106+597531373
3478+594063202+592172953+591890365+592080582+591808453+591605891+592411028
3468+593862282+594653129+594024951+592625083+591607290+591020403+590332996
3458+589895765+590314023+590905349+590310435+588296862+586037796+585025171
3448+585923897+588023943+590001090+591129133+591126701+589665717+587287887
3438+585806653+586643290+589289905+591986264+593597754+594414871+595049860
3428+594977677+593249186+590220617+587657009+587299137+589063263+590851288
3418+591093620+590641247+590986349+591989852+592552900+592351434+591716020
3408+590795524+589780528+589108324+588998743+589372912+590054299+590712031
3398+590987322+590870443+590704490+590691842+590814132+591335951+592778144
3388+594674291+595248225+593387896+590376172+588723026+589595602+592250852
3378+595672929+599499094+602739711+603542537+602074925+601243518+602616021
3368+603834673+602164682+599235600+599151681+602649163+605878104+605632184
3358+603642328+603596355+606263645+609164146+609906952+609112031+609426059
3348+611536260+612779723+611385571+609931702+611288760+613705935+613481421
3338+610792117+609068795+609971777+611876741+612379465+610717441+607938501
3328+605728813+605073210+605826840+607511061+609815492+611775491+611687862
3318+609375464+607108066+606339294+605685820+603691706+601426498+600778739
3308+601844573+603062374+603154624+602254682+601453255+601851566+603587294
3298+605253332+605276318+604420282+605272487+608946321+613664888+616678497
3288+617005660+616283834+617032721+619929694+622926885+623718400+622459735
3278+620910454+620143262+620087438+620226634+620234844+620411256+621099941
3268+621612395+620855359+619041793+617624411+617780452+619665167+622370464
3258+624145050+623320757+619654281+614698917+610634677+608703381+608549590
3248+608974416+609273788+609568843+610267014+611501659+612812926+613141974
3238+611899363+610224629+610061351+611882518+614141585+615003763+614067517
3228+612238627+610347041+608748564+608282448+609998959+613324589+615811271
3218+615692143+613941821+612589020+612190039+611977444+611283165+610283190
3208+609741485+609943135+609812817+607962339+604958824+603138570+603776234
3198+605715191+607001222+606677890+604762527+601909823+599187681+597087574
3188+595253637+593856140+593998742+596229349+599267708+600579218+598662882
3178+594625885+590975464+589039486+588423167+588545275+588837350+588098193
3168+585930282+584220277+585064942+587831476+589858731+589367439+586644932
3158+583304768+581078357+580449328+580120037+578729959+576859535+575944574
3148+575899452+575412599+573941825+572152341+570972121+570861628+571389954
3138+571642076+571493758+571548488+571597441+570675242+568834798+567100834
3128+565635412+563606940+560974373+559159652+559409098+561118616+562469167
3118+562562694+562064896+561850719+562095788+562616147+563090108+563023945
3108+562122180+560621608+559109543+558161500+557913635+557844736+557390235
3098+556622496+556126705+556369584+557038322+557004146+555459000+552990926
3088+550951266+550170878+550615346+551546666+552029018+551858626+551524591
3078+551008671+549891330+548844287+549077254+550202500+550449089+548993639
3068+546630160+544386417+542800832+542234561+542800407+543883328+544328282
3058+543396232+541435930+539594939+538900295+539468391+540513428+541120139
3048+540959294+540284596+539390918+538199631+536460133+534423696+532951219
3038+532527731+532652515+532691617+532763617+533141132+533395747+532836833
3028+531484823+530148077+529500014+529312534+528887039+528014584+526941332
3018+525769687+524600596+523874087+523879743+524233176+524279332+523813398
3008+523167525+522688456+522281691+521572392+520507045+519447049+518701993
2998+518396600+518564682+518917020+518833527+517992633+516738771+515600877
2988+514731401+514005623+513285681+512387321+511179676+509909578+509172549
2978+509321658+510006784+510449336+510145707+509309313+508599345+508428345
2968+508666511+508836751+508406149+507185156+505695408+504840315+504949896
2958+505362681+505092802+503680954+501461262+499359909+498250960+498214017
2948+498618654+498943019+499201071+499529815+499702062+499326828+498298605
2938+496804662+495176814+493907597+493367626+493316454+493134386+492596817
2928+492067518+491984420+492342597+492583104+492161471+491280442+490483636
2918+489686526+488590682+487639598+487313986+487038238+485957840+484332211
2908+483230955+483194164+483813767+484408164+484635536+484409958+483639453
2898+482369993+481020355+480209866+480291170+481055899+481861857+482014644
2888+481108561+479247168+477146392+475777659+475480111+475589996+475285455
2878+474534409+473829944+473296632+472567235+471530894+470778450+470945680
2868+471706273+471964294+471215194+470151245+469756156+470234374+470931633
2858+471031819+470273779+469127219+468257531+467833040+467500556+466949122
2848+466201512+465412399+464701853+464124422+463564323+462814159+461887825
2838+461022789+460371352+459952334+459783249+459737641+459484333+458892642
2828+458222171+457676544+457141164+456566045+456162290+455940513+455479109
2818+454444228+453009424+451638258+450778574+450710556+451262811+451776664
2808+451724154+451203703+450594560+450024092+449370739+448518321+447454585
2798+446296866+445333924+444895173+444987727+445141458+444831078+443975681
2788+442863996+441824341+441123829+440838443+440683953+440276641+439543778
2778+438649066+437724678+436919176+436395776+436037995+435539679+434954252
2768+434712985+434904448+434962826+434397710+433489650+432869804+432710327
2758+432713794+432631912+432406364+431950859+431117506+429877661+428464688
2748+427303715+426691592+426484622+426203736+425550231+424745459+424249180
2738+424173228+424118133+423639307+422758035+421934472+421577846+421595968
2728+421446829+420743246+419784166+419254320+419346995+419439671+418824872
2718+417572167+416379086+415658233+415097707+414235925+413237530+412757519
2708+413058381+413651562+413967627+413953914+413698964+412962117+411586634
2698+410036988+408988090+408555268+408289311+407832165+407310954+407055335
2688+407129889+407277265+407247346+407019822+406682534+406252904+405710957
2678+405116986+404575282+404090284+403553232+402897598+402237069+401804977
2668+401656568+401457625+400812360+399834367+399076906+398860267+398973527
2658+399041909+398950632+398843726+398758135+398398225+397490865+396251871
2648+395143835+394343714+393854581+393834787+394313279+394862614+395016405
2638+394761516+394323069+393787446+393178546+392666274+392427561+392313145
2628+391871536+390896097+389822845+389297499+389428638+389771551+389959213
2618+389980406+389884598+389600276+389090954+388435868+387761626+387238166
2608+387034236+387137371+387306669+387277662+386965641+386493292+386087440
2598+385913581+385959524+386068710+386043929+385735527+385162383+384567652
2588+384209536+384083080+384016796+384002262+384153164+384360165+384354844
2578+384142583+383967417+383817032+383389227+382625380+381912341+381627290
2568+381726533+381927148+382136733+382486822+382989182+383412274+383551531
2558+383378980+382878050+382046551+381177471+380809565+381176620+381882422
2548+382312508+382264741+382017574+381904040+382010034+382203322+382285964
2538+382136794+381777037+381306269+380845929+380565591+380608554+380912913
2528+381218518+381309826+381220738+381201187+381451972+381855483+382041017
2518+381795523+381338194+381101062+381289029+381718688+382051689+382117730
2508+381994831+381817415+381571617+381142839+380582588+380219303+380325418
2498+380717649+380929697+380796247+380585020+380515391+380476837+380357313
2488+380369597+380778794+381428134+381826354+381735199+381452093+381425093
2478+381778952+382339143+382947526+383539460+383960029+383932451+383324189
2468+382368089+381516310+381077376+381050954+381292130+381691111+382107027
2458+382278788+382011797+381456137+381081298+381301069+382059078+382816600
2448+383100435+382988361+382863273+382894286+383032570+383266480+383558038
2438+383718153+383622315+383425409+383356997+383397162+383321240+383021563
2428+382656789+382469096+382523126+382666245+382738853+382765397+382860019
2418+383025030+383212175+383500450+383981252+384528216+384901504+385023673
2408+384981744+384838899+384626456+384488963+384650446+385175549+385885395
2398+386563742+387121287+387542950+387842019+388070577+388258239+388379435
2388+388410297+388299530+387899759+387053665+385699253+383829316+381469668
2378+378760813+375961532+373323217+370993549+369046230+367502726+366227368
2368+364948726+363584736+362371010+361449997+360706614+360268380+360757665
2358+362841626+366733194+372079968+378095358+383696687+387684640+389151613
2348+387919553+384790707+381445586+379446031+379005273+379314922+379675440
2338+379804238+379641933+379219905+378622924+378056287+377860445+378250457
2328+379030327+379742393+380131796+380398330+380971778+382043358+383382477
2318+384641841+385647351+386320437+386652161+386912097+387543710+388677805
2308+390002267+391169929+392120678+393007545+393971004+394987520+395871894
2298+396457534+396791660+397113715+397584240+398039896+398138015+397810213
2288+397419564+397367692+397661196+397930923+397830463+397407219+397059806
2278+397095350+397398827+397564476+397286114+396629720+395957212+395558079
2268+395408545+395360869+395409792+395601224+395837080+395977827+396057550
2258+396259473+396714977+397371158+398021927+398487191+398771270+398965987
2248+399023879+398819219+398454536+398242245+398279522+398282137+397966041
2238+397388307+396801025+396351997+396045297+395836016+395636525+395340406
2228+394953071+394629556+394505320+394530617+394526512+394417934+394385674
2218+394671273+395204281+395645008+395870587+396133625+396646079+397322722
2208+398019981+398716145+399403430+400062682+400773197+401645014+402597009
2198+403346809+403731925+403948290+404311423+404872130+405453848+405942403
2188+406339377+406667635+407010761+407514245+408200041+408887904+409397348
2178+409723781+409951701+410122793+410302611+410633209+411105346+411413961
2168+411348377+411213194+411507854+412291372+413179425+413860599+414359037
2158+414873619+415523627+416252112+417009422+417983766+419404462+421123679
2148+422730183+424111778+425542873+427206175+429019314+430956265+433173038
2138+435707548+438328288+440833244+443303841+445911720+448677585+451562062
2128+454552229+457560182+460512099+463562195+466861524+470137289+472875759
2118+474890913+476420400+477715735+478801758+479761750+481176061+483987626
2108+488798929+495559679+504002857+513911366+524688468+535055400+543542118
2098+549260173+552165539+552694534+551241212+547974204+543023644+536669445
2088+529318858+521288587+512631355+503365740+493873300+484766493+476407508
2078+468904560+462474894+457406391+453657578+450772523+448271915+446034862
2068+444251124+443067439+442389579+441986189+441623209+441110329+440421401
2058+439790609+439515804+439664062+440088370+440661848+441366161+442220980
2048+443281311+444697629+446702506+449573878+453652774+459305731+466770277
2038+476025433+486789157+498650579+511285001+524440967+537488082+549195106
2028+558510981+565440209+570485755+573571426+574440475+573690068+572267273
2018+570274316+567276517+563343446+558835529+553705820+547839203+541653086
2008+535739463+530197820+524757853+519278116+513848244+508639967+503860529
1998+499762964+496592645+494482565+493305447+492562854+491622565+490262284
1988+488812581+487740636+487359077+487797403+488867372+490075412+491081894
1978+491987370+493022190+494252244+495667619+497318789+499342274+501796574
1968+504265408+505966200+506760543+507560937+509241691+511738711+514472347
1958+517056083+519316305+521096790+522417482+523688553+525510814+528145024
1948+531301417+534635561+538196591+541962127+545237467+547251405+548222434
1938+549154423+550850623+553393738+556198097+558577508+560468365+562342194
1928+564504267+567049145+570108849+573349587+575886438+577534659+579007440
1918+580291463+580460639+579585205+579034926+579811725+581818548+584236027
1908+586025208+586660318+586632284+586737183+587135130+587591698+588187099
1898+589202094+590488976+591465539+591966379+592678597+594078465+595325455
1888+595243117+594159100+593450896+593738167+594403804+594441446+593411673
1878+591773000+590388334+589824434+590356712+592245744+595223353+597646549
1868+597264291+593851762+589648082+586574027+584577603+582520064+579895280
1858+577318780+575514579+574435063+573551115+572680423+572140847+572239726
1848+573167884+575073092+577138536+577020867+573475040+568499122+564653983
1838+562607451+561421090+560187053+559450693+560503331+563040060+564510530
1828+563258129+560538601+557736006+554682870+551326226+548549476+546946134
1818+546259334+546111685+546607842+548010326+549976709+551389165+551364233
1808+550295967+549344275+549383680+550749677+553163751+555522244+556547456
1798+556227164+556093137+557920324+562104788+566377731+567304065+564960228
1788+562698242+562653363+564463524+566986145+569784179+572640714+574985585
1778+576742961+578932460+582886510+588821479+594461696+596398647+594324628
1768+590716652+587774861+587040994+589215716+592990314+595754963+596881668
1758+597715691+598551416+599264789+601433004+606720761+613840023+618866779
1748+619831363+618610644+617695864+618226987+620298878+623119838+625190573
1738+626400954+629198259+635356099+641530358+641970082+637898362+633962008
1728+631848340+631364224+631981090+633103843+635025592+639495684+648079213
1718+659367006+667664054+668500570+664138843+659221181+656771959+658000158
1708+662684001+669123943+674651052+678540643+683226737+690310302+696662859
1698+698475878+696698008+693097269+689075657+687116875+688675825+692994803
1688+699112447+708052815+720012873+728538631+727126114+720971314+717131223
1678+717903097+722823251+729470863+734979182+739397403+744261307+748005499
1668+747294741+743570130+741467955+742790898+745141059+745141059+743454954
1658+744079786+750556823+764415339+781599789+788729814+783812943+779744629
1648+780740773+782205588+779164675+773720937+769849954+768474836+769769684
1638+774348689+780763395+783077070+777668056+769715745+764674211+763365742
1628+763823527+764368150+765258665+766325472+765508295+762758666+761656102
1618+764608657+768562221+767559935+761950427+756825826+754571503+754049136
1608+753233601+751589819+749859322+748539176+747626100+747255396+747712512
1598+749019522+750791128+752332929+753074762+753199486+753415729+754020799
1588+754680415+755047044+755071673+754813713+754567185+755188552+757889532
1578+763160261+768727019+770105421+767707098+766726399+768923317+770686957
1568+768464316+764235460+761465521+761587325+766122546+777426758+793180022
1558+799540849+791232976+780522036+773977012+771160917+769621244+767613570
1548+766310999+768965885+777199811+788990997+800738095+809360847+810823230
1538+805143546+799050652+796813963+797686114+798795246+799429018+801560199
1528+806390414+813119877+820640552+829183399+838382335+845016690+847042364
1518+847033850+847429243+848311975+849966824+853603016+859860465+868687724
1508+879367772+887811375+888721168+885212010+883253532+884466103+887662206
1498+890557902+891296208+890765815+892183440+897659894+905907442+911804829
1488+910969834+905986496+902743204+903936802+908375699+913536056+918408110
1478+923911624+930686635+937812586+943744756+946757453+945709255+942483354
1468+940631965+941936056+944606022+944702590+942098117+941669156+947556145
1458+958043361+962353582+953056193+939276914+930948487+930450567+934564125
1448+937378334+935992513+933079850+932489437+935514053+941206081+948184383
1438+955700254+962458845+965980348+965922760+964822385+964435202+964099769
1428+963203293+963319807+966039456+970656529+975380203+979770269+983650313
1418+984866654+982144086+978119798+975818772+975435420+975332953+974926006
1408+975886029+979965168+986010933+990153985+990177032+987575600+984331760
1398+981443239+979666708+979072220+978315123+976399821+974516870+973691422
1388+972430932+968973707+965452144+965728590+969678749+973702611+976154448
1378+979215186+984568437+990149363+992681532+992440173+992967465+996098135
1368+1000102598+1002888896+1005199044+1009055493+1013810729+1016001626
1360+1014454109+1012323779+1012904949+1016253383+1020027859+1022604299
1351+1024902345+1028552219+1033279299+1037371999+1040287277+1043417217
1342+1047780891+1052503714+1054903923+1053023769+1049000637+1046592036
1334+1046416049+1046257941+1045281195+1045415101+1048291946+1053439108
1325+1059321961+1063866000+1065075652+1063867460+1064008176+1066808035
1317+1069375352+1069209460+1066708305+1062864443+1058083607+1053326000
1308+1050823385+1053057337+1060361586+1069115568+1073741823+1072529252
1300+1068968040+1066088884+1063503323+1060457059+1057453362+1054428624
1291+1050750534+1046409725+1041534753+1036151766+1030782522+1026198957
1283+1022464433+1018729484+1013547356+1006214709+998205783+992196808+989744240
1273+989549949+988110675+982735959+973693611+963077840+952804496+944445542
1263+939175177+936510380+934028015+929359435+922480195+915130398+908436388
1253+902229291+896222687+890500801+884770097+878398871+871171366+863076818
1243+854106592+844985980+836993169+830489801+824628961+818850034+813645771
1233+809482530+806053582+803113919+801080218+800290040+800432338+801189495
1223+802650235+804377753+805110161+804292071+803073480+803175277+805331026
1213+808946907+812680944+815314788+816762394+818486932+822327509+828425937
1203+834676818+839074364+842289743+846411146+851587862+855668157+857167086
1193+857153951+857774223+860067404+863453785+866778199+869715004+873169128
1183+878179404+884608340+891431695+898006577+904150613+909510431+914282633
1173+919677417+926203468+932724167+938210289+942856734+946527710+948379890
1163+949380474+952037366+956503202+959853886+960320671+960140002+962273798
1153+966072476+968234854+967559122+966483619+967471798+970385190+973662597
1143+975961739+976590281+975865232+975596508+978328866+984466882+990080890
1133+990831966+988455109+987881844+989633929+990606662+990087093+989841660
1123+990056809+990115917+991699496+996145507+1000003294+998028154+991544002
1113+987966614+991069251+996996192+1000628431+1002253543+1004493941+1007410739
1103+1009624927+1010212179+1008231809+1003170937+996375555+990094755+985914244
1093+984874863+987767093+993969508+999433860+999455326+994465482+988478339
1083+983522914+979145801+974928682+971526916+969233370+967236459+965044345
1073+962654718+959763217+956236120+953314518+952094528+951359506+949234588
1063+945885120+942289550+938279614+935021362+935989412+941708684+947179299
1053+947494604+942822254+936041223+930197897+928636575+933280527+942438598
1043+952025204+958412301+959589602+955876180+950460477+947135941+947169509
1033+949115095+950949093+951690439+951128850+949201750+946826170+946111519
1023+948141207+951387905+952984679+951702115+949788576+949948935+951116201
1013+949392210+943162978+935233106+928730467+923725542+918730469+913310265
1003+907355777+900107900+891578493+883380688+876965678+872092287+867815512
993+863951097+860924900+858860185+857188005+854974303+851768167+847976481
983+844101120+840178143+836456634+833686147+831931811+829853475+826147046
973+821280709+816981739+814219096+812238787+809626956+805894561+801815970
963+798644009+797340100+797993027+799644228+801106792+802002173+802917074
953+804878836+808640785+814021278+820016388+825884282+831612067+837446150
943+843637375+850128338+856292199+861560314+866304421+871328866+876758556
933+882467429+889312372+898580876+909408208+917601452+918943125+913834334
923+906160841+898879458+893378011+890986985+892668347+897588015+903022570
913+905930976+904739446+900129427+894085486+887983105+882904538+880713215
903+882724720+888117680+894518156+899916467+903381111+904881561+905561367
893+906874945+908753760+910353028+912499351+916891119+922950203+927546964
883+928249818+926146853+924598666+925881474+929503253+932770627+933138533
873+931141258+930182877+932129497+934757382+935351444+934656800+934789003
863+935736317+936164365+935771952+935853682+937655146+940352052+942091914
853+942483963+943125214+945476105+948737154+950156057+947823470+943297553
843+940605512+942179786+947207029+953539579+959273324+963574727+966455890
833+967626987+967676974+969589114+975069763+980980346+983117122+982012187
823+981584503+983005777+983427380+981649388+980801075+983136034+985184816
813+982350660+977453128+977524459+984668592+993284351+995101808+988268966
803+980056141+978270001+982450695+986425239+988053027+989542835+988779961
793+981180293+969962676+963131719+962584542+962507190+957953239+951251749
783+947317948+946813886+945475133+939825185+931788165+925791777+924389659
773+926959774+930855446+932832836+930844135+925641757+920598095+920052073
763+926023893+935556924+943045613+946536649+949044615+952750861+955696970
753+955855078+955515449+957923563+962136486+965126440+967179358+970404103
743+973545536+973709118+971655896+970452751+971104462+972737055+974860634
733+976463733+974571235+968198975+961516701+959064681+960127110+961441052
723+963624592+969443228+975640413+974238234+964179370+953143821+947752138
713+948691425+953603674+960954869+969878513+976409733+975473487+968174164
703+961630114+959239574+957207453+951703209+943898182+936828664+932415673
693+933260398+941674386+954722474+964494979+964874075+956285559+943604770
683+933067567+928036797+926029183+923545603+921651949+922891520+925981690
673+925933345+919764559+910828387+906471160+909287741+914949303+921548510
663+929663247+936742677+936875610+929518091+920318061+909753918+895275435
653+881162608+874727105+877930505+887849503+899900778+908613834+909436363
643+903698849+897849077+895281638+894961225+893784167+889019750+884258251
633+885021672+890319949+894431865+894321068+892287670+890779923+889314379
623+889237879+890588673+887630827+879838814+874887585+876435406+879388204
613+877454963+871882185+866318225+862882952+863301332+869883572+883361228
603+899277101+909135228+907591419
##END=
