##TITLE=<SNM>
##JCAMP-DX=4.24
##DATA TYPE=INFRARED SPECTRUM
##DATE=29/4/2025
##SAMPLING PROCEDURE=Instrument type and / or accessory
##ORIGIN=Admin
##XUNITS=1/CM
##YUNITS=ABSORBANCE
##RESOLUTION=4
##FIRSTX=4497.3318
##LASTX=599.83466
##DELTAX=-1.4281778
##MAXY=2.2516315
##MINY=0.66184372
##XFACTOR=1
##YFACTOR=2.0969952e-09
##NPOINTS=2730
##FIRSTY=0.67861325
##XYDATA=(X++(Y..Y))
4497+323612200+324314383+324485068+323694118+322993754+322803400+322260107
4487+321139128+320650153+321556844+323009984+323967328+324432967+324603936
4477+324049643+322626035+321234092+320868192+321575633+322699738+323639601
4467+324165982+324472703+325018299+325847081+326336397+326043547+325375274
4457+324991666+324910033+324727949+324565990+324915262+325617900+326001991
4447+325924422+325788357+325547124+324730138+323426507+322168127+321144727
4437+320496692+320817938+322293164+323852893+324353863+324216519+324722947
4427+326093942+327221800+327176833+326115061+324569288+322868405+321642656
4417+321840941+323615128+325962340+327895871+329171021+329617048+328767260
4407+326690757+324526623+323699689+324591600+325858763+325462592+323043468
4397+320587393+320017296+321157490+322560348+323358347+323764410+324366739
4387+325312599+325897647+325194242+323382536+321797367+321482971+322290833
4377+323364060+323996832+323932110+323383729+323064103+323818870+325750895
4367+327727744+328443342+327780641+326231229+323772198+320747646+318866415
4357+319539576+321809532+323332140+323142894+322325510+322220768+323040341
4347+324054219+324409375+323879185+323093721+322863175+323219440+323299510
4337+322367464+320739830+319586220+319870032+321382066+322846320+323096649
4327+322158549+321216497+321527028+323180755+324860547+325088563+323778963
4317+322218665+321696007+322306637+322953592+322624074+321740292+321765845
4307+323167339+324631252+324824136+323963604+323114328+322855330+323053729
4297+323218416+322934462+322275854+321708883+321710163+322568648+324069625
4287+325236395+325190803+324352869+323909002+324207509+324504680+324236189
4277+323786808+323783084+324060274+323601257+321539421+318314566+315766938
4267+315615268+317694159+320069226+321049848+320684432+320200772+320565648
4257+321554684+322067308+321629865+321142880+321656868+323056941+324365375
4247+324819588+324427851+323800792+323458598+323237659+322677227+321774969
4237+321026285+320992944+321817775+322876762+323240388+322776255+322174381
4227+321799101+321452103+321191115+321327322+321810897+322514443+323660720
4217+325128782+326013190+325697515+324656719+323564278+322548950+321805439
4207+321857171+322730720+323585510+323615611+322959959+322522402+323091731
4197+324455962+325306346+324491463+322453815+320855344+320655439+321172128
4187+321281986+320909804+320833600+321534048+322725718+323704066+323915539
4177+323348171+322413596+321618439+321456935+322063329+322905072+323447740
4167+323741244+323903942+323935408+324238718+325114002+325842078+325586179
4157+324661068+323714128+322620038+321244779+320330356+320649925+321795121
4147+322455578+321931272+320979329+320766207+321276102+321457532+320824533
4137+320097224+320267198+321580521+323303318+324263134+323947545+323134680
4127+322985711+323625758+324289313+324693102+325191770+325702859+325702375
4117+325203310+324792500+324727296+324665872+324286215+323781578+323601513
4107+323846015+324230731+324662745+325332041+326083823+326339581+325882639
4097+325159480+324623293+324217685+323566807+322451257+321158371+320297100
4087+320172689+320565449+321148195+321819964+322591444+323435205+324298238
4077+325022818+325308393+324915717+323878134+322644482+321911290+321937354
4067+322185437+322043546+321667896+321655333+322151812+322735439+322996796
4057+322874573+322403107+321493687+320385527+319990833+320887577+322200531
4047+322494689+321585126+320574204+320451441+321457361+323245305+324886498
4037+325226418+323992170+322260078+321292304+321221926+321352960+321401110
4027+321763940+322716565+323956242+324932374+325230710+324766606+323832769
4017+322844387+322007561+321300746+320688553+320294144+320369666+321078187
4007+322315249+323714554+324867226+325605564+325985363+325946564+325370897
3997+324644639+324478104+324845198+324921999+324420631+323975457+324000015
3987+324314042+324925438+325950743+326701246+326058725+324063997+322205135
3977+321814109+322710198+323554471+323414029+322740953+322519588+322961380
3967+323672487+324500019+325332922+325626512+325048258+324121754+323546314
3957+323431084+323563965+323834617+324182638+324518409+324830901+325212718
3947+325660621+325935792+325821016+325452786+325183129+325174630+325324026
3937+325486411+325718605+326412687+327800282+329057013+328836444+327246074
3927+325921125+325857854+326469137+326960471+327554415+328688981+329852085
3917+329991759+328836615+327272195+326412005+326557990+327093665+327569310
3907+328645237+331121834+334253799+336162261+336172522+334985145+332844091
3897+329796488+326921729+325615654+326253570+327833225+328893889+329329370
3887+330071318+331151565+331768562+332346191+333979197+335475172+334422637
3878+331586336+329939886+330510381+332241932+334275913+336040948+336396360
3868+335525510+335184453+335900534+336186734+334881369+332814957+331425969
3858+331499615+333546131+337935766+342597445+343058480+339085425+333909928
3848+330216279+329342047+331069335+333818801+336072129+337876389+340091202
3838+342245672+342695564+341182081+339169588+338087976+338050001+337989629
3828+336891247+335000351+334101050+336099530+340417479+343239426+342601482
3818+341025607+340150153+338594801+335659301+332943802+332141141+333864762
3808+337179323+339708163+340454885+341082853+342628399+343455760+342229669
3798+340080998+338105087+336487202+335480458+335388792+336166496+337665711
3788+339829419+342278530+344223004+345507136+347184455+350185756+353819090
3778+356495478+357950835+359437089+362195196+366615784+371976491+376733361
3768+379883632+381646450+382802617+384358680+387125200+390666327+393200227
3758+393708530+393576729+394947354+399048374+405834621+413084375+417606295
3748+419971442+423675807+429917652+434989629+435513708+433640805+433273455
3738+436942347+444686108+453238413+458786490+460973846+461696266+462221425
3728+463216884+465245891+467878819+469799531+470231858+469300238+467535602
3718+465609006+464542458+465517026+468580689+471145599+470034625+466457798
3708+463999762+464179770+466683512+470462944+473792938+475118484+474692382
3698+474005747+473913228+474438585+475783118+478628145+483015307+486919036
3688+487815751+486228451+484300121+483206599+483174594+483847955+485075353
3678+487604221+491164875+492608123+490594238+488761014+489797177+491266973
3668+489578597+485541106+481728389+478979179+477067335+476523786+478200707
3658+481223696+483110640+483239173+484105418+488135974+495020284+500362543
3648+499044530+492250267+484961259+480068153+477798908+477286199+477771735
3638+478968719+480681596+482408685+483771779+485446795+488459608+491636369
3628+491898323+489196752+486107479+484273232+484606530+487440329+491102456
3618+493096956+493768498+494856335+495794776+495210325+494389218+495677670
3608+498785020+501322302+501826939+500485391+498154580+496105676+495867541
3598+498210916+502261255+505690420+506581735+505717480+505811506+508241005
3588+511277807+512031323+510287293+508352369+507982462+509230154+510652312
3578+510312591+507844833+505286972+504944920+507097286+510437030+513743688
3568+516299275+517581645+517358632+515693848+513010354+510373361+509031415
3558+509592274+512031607+515705501+518889028+519670911+518137729+516319911
3548+515502896+514840564+513000178+510323733+508560773+508854732+510572498
3538+512221990+512827816+512272187+511043083+510062575+510249092+511420381
3528+512217385+511979137+511443120+510874359+509679819+508111449+507015142
3518+506185279+504836853+503105557+501828133+501599264+502814269+505689113
3508+509674760+513426194+515623754+515668153+513886774+511399973+509448847
3498+508680892+508983549+509905163+511368536+513442282+515342302+515630235
3488+513633574+510296105+507226103+505159293+503702799+502435437+501850701
3478+502743892+504962315+507207571+508094679+507450652+506273677+505495490
3468+505446260+506143724+507038790+507048341+505758410+503685858+501057904
3458+497790812+494772883+493543779+494521332+496390767+497387875+496924794
3448+495602233+494156881+493219293+493307293+493961666+493591418+491510736
3438+489315677+488965041+490476677+492117869+492284262+491263164+490736243
3428+491164079+491082559+489646758+488091235+487847415+489004152+490942089
3418+492846656+493518255+492056019+488929454+485513534+482763642+480857369
3408+479836783+480008406+481297939+482552680+482512034+481452110+480734919
3398+481014383+481867950+482920144+484199557+485388185+485915789+485802264
3388+485572088+485556511+485715912+485869458+485868832+485550599+484937156
3378+484596695+485240779+487025398+489158607+490148780+489148374+487254551
3368+486700855+488600874+492047378+495300997+497299022+498076699+498309603
3358+498582415+498935383+499183693+499420691+499791850+500087514+499936470
3348+499309781+498590772+498040145+497445633+496682907+496199077+496203852
3338+495982374+494971793+493965361+494162680+495302078+496008694+495868394
3328+495726445+495928311+495804725+494993338+494032783+493559128+493613133
3318+493720519+493369541+492669291+492429622+493184559+494479264+495362507
3308+495138925+493834498+492390738+491958298+492807318+494352778+495909609
3298+496835259+496624695+495554140+494576986+494059672+493438782+492641550
3288+492891964+495270129+499016277+502001348+502779592+501688856+500148171
3278+499471740+500096439+501381083+502323106+502746450+503322942+504182877
3268+504228583+502522357+499864615+498007742+497670238+498065045+497915876
3258+496492354+494291042+492919364+493496027+495270300+496708091+497362180
3248+497671716+497798315+497634367+497388160+497448702+497789845+497855220
3238+497183906+496191744+495955371+496853223+497759602+497105797+494715921
3228+491979616+490296640+489885234+489790924+488970043+487437316+485910217
3218+484570716+483232408+482415393+482852893+484127759+485032035+485121683
3208+484969730+485214175+486025505+486960990+487066954+485844047+484077790
3198+482942201+482670583+482817989+483090516+483268222+483041968+482451492
3188+481892395+481414022+480606671+479372622+478254371+477639052+477173697
3178+476382491+475417616+474834558+474809715+474936031+474770064+474271965
3168+473552472+472479103+470846040+468781617+466748290+465291398+464831102
3158+465338411+466225689+466803688+466776998+466224694+465395656+464548967
3148+463711686+462694767+461500994+460420832+459682210+459355819+459424406
3138+459615357+459443734+458755337+457911803+457148111+456225190+455028518
3128+453990337+453478197+453269736+453103769+453107209+453193617+452770585
3118+451612229+450389862+449875021+450100905+450500459+450518934+450056848
3108+449469157+449042316+448651858+448190255+447877536+447715833+447224100
3098+446268235+445544195+445685063+446396796+446827332+446479680+445646293
3088+445102886+445363249+446121426+446465497+445756691+444321714+443106141
3078+442595933+442438152+442251009+442175118+442305384+442324712+442018815
3068+441494879+440811456+439975085+439176346+438584250+438114603+437609454
3058+437094556+436793036+436901530+437289288+437500022+437353753+437338348
3048+437931866+438754224+438899271+437993631+436472188+435003614+434150501
3038+434229548+434916154+435325258+434935198+434031576+433091969+432359259
3028+431959620+431802522+431549436+431082972+430645899+430391108+430230087
3018+430085381+430011394+430129410+430401539+430438320+429848412+428820663
3008+428015870+427826454+427940433+427643006+426528934+424926114+423545313
2998+422847110+422832415+423167333+423413540+423348733+423049402+422649109
2988+422267093+422075801+422108943+422226561+422465747+422942159+423291801
2978+422880763+421663371+420224983+419015435+418102490+417563943+417525258
2968+417755918+417690372+416980089+415793110+414621138+413979470+414104621
2958+414676167+414993604+414716642+414275988+414302706+414788754+415051987
2948+414530580+413433704+412526188+412406552+413023264+413711945+413714844
2938+412876057+411815223+411264824+411284322+411250981+410616533+409538189
2928+408650513+408288450+408152982+407855101+407504066+407455376+407722560
2918+407983320+407998328+407724322+407219288+406699757+406426433+406423989
2908+406586403+406920582+407389660+407742912+407822783+407742571+407511712
2898+406894602+405879729+404917327+404436594+404362039+404251584+403789611
2888+403018643+402183210+401577811+401434071+401726524+402161181+402450735
2878+402493371+402337267+402140801+402064540+402077246+401964346+401516415
2868+400667935+399687654+399172102+399384514+399712525+399376271+398512698
2858+397880097+397868585+398388713+399147089+399584646+399148369+397982736
2848+396917126+396616715+397038922+397658619+397964686+397837291+397570505
2838+397458742+397404708+397068426+396384151+395714315+395332156+394983396
2828+394290195+393431767+393019224+393354113+394106549+394650524+394547346
2818+393849995+393091534+392842001+393139030+393446633+393318441+392977185
2808+392976701+393426480+393896213+394003285+393723708+393170552+392402540
2798+391455373+390447918+389687268+389520449+389876258+390188892+390037336
2788+389579058+389132548+388727793+388285035+387839179+387417483+387014660
2778+386737698+386700463+386816944+386867453+386657771+386087190+385283649
2768+384625552+384364848+384342592+384294528+384208205+384169946+384117447
2758+383943238+383714312+383636061+383732873+383657322+383078329+382220327
2748+381607736+381317131+380980422+380463563+379993859+379680885+379441897
2738+379325587+379446502+379669941+379720905+379568440+379433540+379406652
2728+379251884+378687074+377779870+376900636+376296459+375940535+375787900
2718+375869447+376101670+376292536+376356092+376299273+376122363+375922970
2708+375862711+375888179+375750636+375410488+375144554+375135260+375203136
2698+375063575+374641822+374042278+373442706+373105770+373202809+373522634
2688+373641644+373445804+373194651+373106594+373187033+373356638+373460044
2678+373279212+372761415+372095899+371476459+370939447+370430774+369917951
2668+369471385+369256273+369361470+369681181+370047422+370381942+370635397
2658+370726411+370641310+370443451+370122006+369614897+369029707+368637372
2648+368547979+368523393+368234067+367647171+367050811+366710578+366639063
2638+366718508+366847126+366891325+366720355+366418352+366255114+366340187
2628+366506978+366596285+366624084+366609957+366483215+366252329+366066778
2618+366010925+365998788+365950297+365902090+365873211+365802692+365693544
2608+365649345+365696387+365710371+365596051+365436252+365356978+365319231
2598+365195786+365024078+364967912+365017995+364985990+364852284+364873602
2588+365247034+365810111+366171406+366126780+365863434+365655798+365478291
2578+365163156+364812178+364687682+364796204+364942644+365070238+365211192
2568+365268352+365149711+364941364+364726622+364452332+364137197+363970321
2558+364049510+364228353+364346681+364417087+364466345+364388436+364116789
2548+363813734+363722181+363882378+364101895+364173836+364060879+363886357
2538+363796850+363829907+363887267+363814217+363520457+363081394+362726295
2528+362662256+362885866+363227890+363559767+363840424+364002497+363961396
2518+363760098+363612437+363762884+364265588+364869026+365220344+365236489
2508+365104631+364916408+364589648+364179464+363925752+363897300+363890905
2498+363804667+363836900+364161699+364615883+364862659+364744330+364404069
2488+364159169+364236880+364564777+364884204+365068220+365188112+365286572
2478+365260365+365036044+364776790+364750783+364933917+364962427+364647348
2468+364267350+364143308+364227500+364315784+364390511+364560286+364806266
2458+364944775+364878264+364791855+364907398+365097354+365035618+364690894
2448+364347875+364191316+364177758+364252854+364411345+364561565+364534847
2438+364281278+363982799+363914383+364154166+364459097+364522340+364332895
2428+364169771+364291056+364741289+365369882+365903852+366117088+366032868
2418+365863235+365775803+365851609+366140140+366573347+366950503+367129261
2408+367097625+366867477+366506608+366283623+366563427+367449654+368606334
2398+369544007+370087954+370484950+371118148+372307714+374373444+377675327
2388+382547485+389340014+398520827+410521427+425379702+442650364+461759424
2378+482373895+504352340+527344664+550356827+571643777+589468818+603422761
2368+614624650+624248279+632077737+637132461+639461169+639573330+636032857
2358+626177859+609949441+589688591+566909958+543739929+524635076+513591564
2348+512215396+520105568+534325330+548992653+558904329+563187516+563754572
2338+563236689+564138862+567420905+571818470+575073852+575753523+574048547
2328+571281260+568620050+566096696+562971666+558820080+553584808+547053409
2318+539463279+532047216+525937797+520887792+515533708+508742003+500559918
2308+491917708+483598962+475764046+468366260+461507645+455255624+449499968
2298+444066099+438759880+433435897+428191387+423342651+419137828+415567595
2288+412430712+409595606+407174947+405271744+403647805+401977848+400325854
2278+399021342+398213537+397792722+397504618+397026188+396237455+395408389
2268+394802023+394272828+393590287+392880515+392376390+392007051+391594820
2258+391210245+391011392+390938372+390811317+390564143+390230163+389856248
2248+389514593+389258438+389051882+388865450+388799165+388962915+389265345
2238+389491769+389582611+389651511+389741046+389763842+389686302+389584942
2228+389517748+389448195+389279471+388944013+388514330+388182453+388042494
2218+387936474+387603005+386979557+386282633+385759094+385441458+385212618
2208+385043013+385074648+385447882+386029717+386413951+386365744+386142077
2198+386126444+386344597+386604618+386861967+387166898+387455173+387594450
2188+387536664+387396307+387431268+387842078+388538547+389210401+389657309
2178+389974235+390397608+391000534+391567448+391802115+391649564+391355662
2168+391227186+391404409+391855552+392472491+393082410+393458429+393504504
2158+393421876+393520734+393850876+394155665+394210552+394098363+394094383
2148+394322172+394600356+394658284+394459147+394241875+394253926+394520883
2138+394903809+395311037+395746462+396182569+396563789+396945891+397442484
2128+398008317+398478106+398855688+399345033+400032066+400740046+401265205
2118+401563229+401668966+401674253+401834023+402424016+403374225+404231886
2108+404625044+404638631+404620923+404775833+405086676+405493961+405954711
2098+406390079+406744240+407080182+407513844+408045881+408502169+408689766
2088+408633914+408580477+408711596+408969230+409191021+409280243+409247243
2078+409232377+409441293+409935867+410545900+411035472+411317976+411555287
2068+412017316+412712279+413281040+413464601+413473867+413655751+414040184
2058+414446843+414836904+415315391+415863232+416303403+416591933+416935691
2048+417503116+418240402+419105055+420195848+421460879+422549228+423198712
2038+423608186+424200511+425099158+426028476+426727020+427262752+427862836
2028+428624822+429506047+430474759+431551170+432731754+433986325+435325144
2018+436723824+438001902+439034654+440065217+441472708+443269919+445137336
2008+446860247+448459599+450018675+451589660+453183697+454777251+456344427
1998+457847366+459264181+460662093+462060205+463269269+464196426+465163519
1988+466495346+468002975+469254021+470170463+471063795+472202880+473571516
1978+475028806+476571766+478354878+480472965+482811394+485156190+487391042
1968+489497817+491407273+493028910+494468804+496012389+497832936+499866945
1958+501991741+504147632+506230757+508068131+509679308+511466030+513898541
1948+517029199+520526980+524069385+527371382+530026907+531838870+533239141
1938+534958215+537315119+539943869+542227099+544041051+545865691+548106171
1928+550706667+553475717+556284674+558951285+561438143+564012490+566680464
1918+568807363+569968818+570770768+572058310+573887441+575759151+577345883
1908+578594940+579514849+580286840+581267405+582645961+584347696+586281768
1898+588398377+590489234+592163170+593195638+593872182+594685899+595623943
1888+596162631+596068946+595634403+595241187+595292009+596127158+597477859
1878+598489577+598676719+598487530+598847831+600483566+603415939+606450183
1868+607550356+605985340+603343231+601471408+600775933+600688956+600789065
1858+600956823+600878543+600195348+599062829+598102103+597776593+598020640
1848+598642440+599755574+601058694+600994626+598423008+594675553+591870519
1838+590619586+590010690+589226590+588776584+589545676+590957545+591086135
1828+589274399+586950921+585154933+583492025+581497184+579462378+577757176
1818+576347297+575167025+574497189+574612078+575110917+575059128+574058496
1808+572730364+571910620+571991742+572998969+574536585+575620442+575357806
1798+574087602+573195719+573799839+575824412+577781677+577971378+576626248
1788+575465760+575619590+577031856+579079509+581167979+582752664+583573260
1778+584217401+585771446+588831556+592932263+596358528+597364562+596325670
1768+594990603+594513480+595251022+597063610+599126555+600434449+601175174
1758+602226117+603530601+604685745+606430855+609958594+614860853+618621837
1748+619445901+618516385+618072177+619076846+621038659+622898487+623833802
1738+624222754+625676690+629097044+632614379+633430655+632288131+631274252
1728+630935838+631251286+632288756+633801643+635733497+638989845+644487015
1718+651057582+654956024+654123206+650813592+647860753+646605159+647527342
1708+650591829+654683269+657900165+660055033+663219629+668258777+672409054
1698+673243919+671845580+668943905+665078150+662483452+662706124+665122377
1688+668615666+673515139+679968600+684593897+684104155+681101177+679074159
1678+679172051+681193838+683947767+686137596+688078887+690662329+692970231
1668+693279937+692380948+692408121+693726020+694848136+694763206+694514952
1658+695902433+700309435+708523582+718242544+721459041+717174603+713859531
1648+714959534+717819995+717865814+714999839+712537198+712364665+714786262
1638+719462608+724749271+727336465+726480112+725721195+727377054+730844933
1628+734627292+738418520+743048819+748400914+752953786+756390057+760713777
1618+767494340+775049338+779717555+781314690+782330331+783764938+785171520
1608+786016220+786180282+785979041+785769558+785393453+784667566+784211761
1598+784661483+785640684+786389538+786799922+787369251+788717564+791196577
1588+794411540+797285872+798820418+798637596+797361025+796831830+798943777
1578+803661963+807864768+807870453+805273481+804512120+807072539+811118217
1568+813889427+814928432+815793653+818182790+823665975+833002921+843009077
1558+846019502+842445830+838941796+837066960+836511672+837560739+839723338
1548+842176201+845477573+850404845+856099958+861464786+866211054+867757652
1538+863873080+857952225+853433518+851025280+850176089+850221795+850622514
1528+850563677+849849443+850187743+853634076+859404228+863438309+863384929
1518+861821960+861721737+863570651+866476817+869428973+872016964+875211518
1508+880687711+887096376+889353342+887444738+885615778+885539432+886786727
1498+889267673+893450012+898389961+902216321+904529680+906137104+907702007
1488+909286465+910762117+912732969+915783813+918651436+919041809+917389304
1478+917470142+921961847+929473982+936100999+938939403+938181737+936127603
1468+935190072+936729222+939999612+942813969+944883906+947770176+951850986
1458+955069246+953893523+947784559+939923265+932857612+927878495+925801679
1448+926531944+928433101+928984523+926823971+923214087+920919260+921308496
1438+923062531+923683251+922801998+922873399+925219332+928027550+928315881
1428+925508232+921790337+919105820+917715098+917795936+920978496+928014475
1418+935049658+936859176+933895593+930042231+927532634+925988594+924066632
1408+921680735+920464820+921688921+924124900+925352867+924994215+924625217
1398+924876085+924654493+923537664+922828603+923663979+925735565+928184677
1388+930346707+931850555+933018547+934759848+937457839+940555809+943425764
1378+946014436+948819300+952385638+956118541+958117987+957675939+956496919
1368+956249972+957109054+959544295+964118940+968398319+968483363+965134126
1358+962968798+964162258+967578007+971931402+976675339+980391130+981500683
1348+980998150+981320703+982832397+984340793+986153551+990021921+996550421
1338+1003952101+1009338190+1011341616+1011557864+1012513360+1014318842
1330+1015144384+1015163939+1016897225+1021287115+1026663427+1031409411
1321+1034950225+1036619614+1035770423+1033591111+1032451088+1033311307
1312+1035581348+1038214532+1040391002+1042420691+1046321350+1053988736
1304+1063977668+1071570128+1073741823+1071763410+1067537127+1061789146
1295+1056200111+1052710119+1050813908+1048272590+1043880084+1038764362
1287+1035507787+1035421378+1036328781+1034685997+1029635764+1024037178
1278+1021544635+1022710354+1024980395+1025843115+1025145139+1023879938
1270+1021953597+1018032245+1011878485+1006232147+1003804866+1004005765
1261+1004100701+1001625440+995946926+988936472+983851107+983169049+987039124
1251+992582454+994704123+989726313+978964027+966934719+956552288+947997965
1241+940904683+934916862+929026136+922640778+916779897+912354875+908270484
1231+902689180+895710958+889398081+884940542+881099686+875939396+869554209
1221+864079608+860948438+859489500+858275006+856670765+855035542+854121147
1211+854189421+854532611+854057535+852516792+851169218+851955080+855582360
1201+860600360+864923170+867787838+869611057+871160497+873385571+876745439
1191+880450884+883539588+886100348+888466803+890398089+891993916+894227461
1181+897800564+902081364+905689600+908172706+910802536+915381388+922506277
1171+931156616+939851239+948068342+956399823+965069774+972578555+976681593
1161+977028363+975902780+975599895+976276496+976672042+976280021+976071504
1151+977355351+981586978+988938064+995764104+997926703+995716125+991584436
1141+986963176+982852521+980280619+978939014+978406919+980641829+986634141
1131+992356769+993124553+990750367+991043474+996074834+1002668026+1007368646
1121+1010325180+1013060462+1015897956+1018234168+1019745634+1021442082
1113+1024979826+1029849397+1032558416+1030751911+1026876719+1024316528
1104+1022845878+1020265563+1016277244+1012661846+1011411993+1013778107
1095+1019843071+1027826871+1032331594+1030326122+1027148792+1027700328
1087+1030664025+1033061745+1035025037+1038814616+1045065585+1051278922
1078+1052952290+1047657725+1038737189+1031212150+1026183746+1022663284
1070+1020684985+1019290057+1015858277+1010232177+1005592384+1004702149
1061+1007319871+1009839814+1007382062+999211915+990687380+988022248+991071329
1051+993764772+993706673+995428589+1000824570+1003854551+999533900+992166443
1041+988009969+987150432+987274701+987957669+988526714+987913669+986679278
1031+985358252+983051715+980108370+980047657+985951856+995596176+1002296925
1021+1001880117+997672821+995014511+994746986+994694572+993485536+991940416
1011+991655723+992777100+993604916+992447043+989441507+986007566+982699487
1001+978637948+972341273+963130700+952931149+944701141+939107785+934719259
991+930634413+926898612+923408336+920051253+916567117+911786853+904797148
981+896715399+889617002+884512195+881218498+879848696+880716078+882434071
971+882369492+880194216+878560585+879123093+880630067+881198203+879944485
961+876434766+870847550+864810555+860435388+858819038+859394678+859856565
951+858500066+857071598+858832625+864136967+869830091+872955519+873945634
941+875576367+879448261+884505771+889111285+893288338+897987423+903725740
931+910768598+918974558+926707490+931492813+932684340+932465192+933650466
921+937110329+941232353+943103779+941146741+937370975+935526212+937338686
911+941914184+946793192+949060618+947177539+942569013+938382466+936142099
901+934710391+932373781+929396328+928157276+930309188+933853014+934896681
891+933651091+934552582+939048778+943081551+943414678+942568160+944930408
881+951177114+957716301+961743390+964287209+966591814+967930804+968008799
871+968313616+968741906+967229872+964588729+964119281+966179213+967099463
861+964121100+959043922+956037362+957362709+962346544+969025804+975447885
851+979810261+980585777+977994092+974999584+975087698+978784956+982464024
841+982135899+978601907+975912216+976397241+979090456+981257830+980836134
831+978095394+975175357+974809372+978843623+986071236+993077029+998317588
821+1003464803+1010604302+1017642498+1021997484+1024022966+1023574097
813+1021231746+1018092959+1014835587+1013245217+1015748788+1021537586
804+1025060436+1022127324+1015802680+1012867294+1016819571+1024476042
795+1029424859+1028441963+1021927448+1010894452+998790447+991159443+990305932
785+993991708+998085990+998965083+996129407+993221763+992947643+991920406
776+984764308+972406648+961882326+958430194+961236081+965673497+967446916
766+966040846+965630406+969148481+973389999+973695271+971947887+972789347
756+974176430+970372184+963903715+963382081+972388457+986673821+998215148
746+1002670868+1002708956+1003266973+1005620921+1007223343+1006717854
737+1007300315+1011991953+1016290546+1014123400+1007729174+1004022933
728+1004379027+1003934706+999831214+994839647+993009948+996165108+1003761775
718+1011853472+1012421153+1002512946+991602969+989951430+997994693+1007476657
708+1010984271+1011273853+1015733894+1023137280+1023976465+1012041979+995679970
698+989251976+997559354+1015254213+1032567853+1039410379+1030419466+1012101442
688+997735809+994877394+999380184+999513890+990184278+979089205+977289749
678+983033296+985002727+982848314+982787828+983287746+975978160+955670922
668+933819588+931169691+945608487+957806234+960244885+961121590+967388363
658+971319152+963235641+949511705+942675545+945120279+948585883+947651251
648+944700232+947985288+962703092+979858354+982560324+968932232+955257753
638+952626331+960143014+972234741+982568737+982664241+965944660+941749042
628+929684716+935971841+951992423+963627435+962977553+953551072+944052225
618+940846471+943539402+945947185+942161415+930795178+919581351+919012533
608+929227661+937861741+936631160+931753857+924847207+914109706+906841959
##END=
