##TITLE=<SNM>
##JCAMP-DX=4.24
##DATA TYPE=INFRARED SPECTRUM
##DATE=29/4/2025
##SAMPLING PROCEDURE=Instrument type and / or accessory
##ORIGIN=Admin
##XUNITS=1/CM
##YUNITS=ABSORBANCE
##RESOLUTION=4
##FIRSTX=4497.3318
##LASTX=599.83466
##DELTAX=-1.4281778
##MAXY=2.1557207
##MINY=0.50471991
##XFACTOR=1
##YFACTOR=2.0076714e-09
##NPOINTS=2730
##FIRSTY=0.51193726
##XYDATA=(X++(Y..Y))
4497+254990568+254748725+255558567+256324944+256098243+255154656+254740947
4487+255645821+257445772+259215441+260368155+260633658+259917603+258525897
4477+257019803+255960548+255948703+257272154+259358688+261176868+262167839
4467+262234786+261173424+259045534+256857229+255869375+256202955+256778436
4457+256695011+256104864+255538883+255045788+254502935+254284992+254981869
4447+256418196+257664903+258353200+259058122+259968904+260237971+259294145
4437+257810109+256631626+255896986+255698399+256302708+257275509+257684616
4427+257602260+258013534+259058686+259794930+259696691+259096391+258295812
4417+257465961+257108066+257631889+258755567+259733386+259864787+258938003
4407+257563606+256848560+257497163+259214521+260876480+261316997+260230044
4397+258271586+256267497+254774851+254364112+255475736+257577559+259093511
4387+258953619+257898195+257328384+257368137+257163198+256651280+256641156
4377+257204940+257272006+256052434+254206733+253242037+253845306+255140672
4367+255850434+255771671+255370342+254615513+253317356+251976359+251395683
4357+251820049+252857126+253989414+254917653+255492421+255621863+255399674
4347+255052498+254587725+253856974+253086529+252806982+253059958+253211250
4337+252845934+252429137+252689535+253650876+254651674+255102226+254915040
4327+254437353+254194769+254403478+254673940+254572732+254270801+254128237
4317+253992947+253603434+253359544+253833045+254709566+255123245+254933299
4307+254713901+254680769+254604261+254573860+254933595+255593866+256141025
4297+256404124+256423124+256191139+255748751+255307165+255130311+255286472
4287+255545771+255646890+255632402+255849425+256601047+257625180+257997859
4277+257066592+255422534+254281786+254095045+254425804+254861185+255386315
4267+256020460+256591814+256857347+256597514+255687177+254387981+253523097
4257+253861842+255157535+256281095+256461185+255829622+254889508+254205041
4247+254278490+255117159+256225132+257202891+258037196+258894480+259866034
4237+260625197+260397665+258899675+257082059+256130871+256126804+256318829
4227+256264469+256153137+256152573+256076066+255985368+256556217+258154554
4217+259876128+260399357+259563063+258277494+257249591+256562749+256184904
4207+256289615+257055310+258363442+259734247+260578022+260661833+260308422
4197+259928023+259453068+258632746+257775225+257560667+258033930+258369232
4187+257885013+256913607+256378384+256675090+257255380+257376272+256964998
4177+256514149+256421699+256743581+257376301+258193624+259035678+259640847
4167+259710556+259251275+258701831+258416228+258245757+257954068+257777838
4157+258140037+258876073+259225714+258812213+258191962+258067122+258465333
4147+259077687+259766400+260341702+260442346+259967153+259189969+258375555
4137+257647090+257125464+256927115+257132826+257808239+258925059+260226630
4127+261216680+261413485+260770166+259778780+259045891+258850541+259101467
4117+259525656+259875059+260118089+260387482+260671838+260770225+260546671
4107+259978256+259062694+257925003+256911915+256457296+256808451+257743548
4097+258594151+258841129+258672291+258616744+258858200+259272413+259843293
4087+260618606+261352594+261577573+261132098+260334013+259531326+258818151
4077+258307836+258214673+258440632+258551608+258326866+257941332+257638064
4067+257589049+257936552+258628887+259331850+259734039+259832664+259758413
4057+259486527+259007474+258669768+258884771+259451227+259643697+259112719
4047+258360028+258190596+258840951+259692802+259926480+259436947+258866988
4037+258731965+258882515+258934975+258894806+259106693+259669675+260211281
4027+260369966+260224225+260069281+260030567+260053071+260116337+260402831
4017+261136046+262011766+262142782+261140559+259874139+259516185+260205581
4007+261209971+262017318+262599212+262863617+262612423+262093439+261946007
3997+262412857+263080283+263492003+263595764+263470122+263068527+262461012
3987+262017793+262062207+262408107+262574541+262517658+262734888+263539653
3977+264602202+265244838+265014901+264101536+263197493+262729930+262487524
3967+262336469+262748159+264014312+265445621+266069316+265858439+265555736
3957+265554697+265678022+265869661+266397255+267307028+268205964+268760515
3947+269150027+269825706+270818577+271449664+271044328+269844499+268630568
3937+267808555+267490502+267933632+269193580+270493162+270815311+270327500
3927+270282255+271366359+272805506+273439414+273330368+273524026+274495640
3917+275314180+274572681+272297151+270048963+268985019+268988373+269917414
3907+272631086+277808425+284036111+288256650+288867164+286751446+283156532
3897+279011638+275780437+275029260+276939296+279357301+279588811+278231485
3887+278202599+280191873+281870666+282087332+282493529+283376671+282646336
3878+280295129+279191105+280913985+284139932+286842916+287906921+286793901
3868+284388632+282819419+282912493+283277096+282421653+280812926+279892316
3858+280948335+285476209+294207818+302523374+302213160+294669355+286548110
3848+281155085+279252441+280504403+283800058+287835104+291880957+295329389
3838+296893495+295892608+293516582+291208662+289199229+287227619+285662830
3828+285012564+285280176+286898196+291075153+297215377+301072381+300416801
3818+298714376+298187881+296605487+292304937+287418813+285079927+286941838
3808+291705735+295386925+296458589+297768532+300614170+302065667+300656624
3798+299063720+298761076+298531584+297633034+296969942+297430559+299223533
3788+302309736+306108076+309297922+311319883+313487852+317173524+321528671
3778+324487511+325956436+328071827+332892666+340858581+350333234+358711759
3768+365087204+370368868+374869933+378472775+382099041+386565935+390767592
3758+393011771+394052441+396571060+402281009+409996829+415694903+417425442
3748+418721966+423257174+430486073+435703135+436691790+437173010+440960721
3738+448930110+458700251+465664270+467163537+465322823+463855947+464523788
3728+467345230+471459603+475143257+476636497+475444060+472527823+469713062
3718+468432866+468727969+469797525+470895107+471289785+470650920+469554644
3708+468331629+466789997+465225356+464547242+465107226+466195278+467446883
3698+469544847+472781808+476230834+479170198+482269137+486248487+489865965
3688+490749167+488266886+483986317+480447870+479954062+483172943+489210890
3678+496724145+502758945+503499256+501104349+500821180+502274371+500067391
3668+493269300+487313204+485160436+484957248+483950750+482167246+481211130
3658+481004053+480117526+479091315+480729643+487068215+497198210+505052318
3648+503421591+494224111+484523351+478478101+476586590+476940773+476924623
3638+475445129+473637073+473005184+474327299+478817885+487591147+497164009
3628+499368465+493709016+487717056+485882073+488208994+492611464+495588146
3618+494476759+490989079+488776192+489443024+492561558+497626080+503718476
3608+508083746+508488044+506028178+503223629+501671101+502103543+504446674
3598+507345514+508920545+508495466+507290590+507453164+510587908+516226753
3588+520602533+519579172+514508029+510118652+508678525+509248899+510304680
3578+511680205+513657871+515613271+516988499+518452258+520940210+524181000
3568+526407990+525796408+522777449+519783132+518802879+519991901+522196387
3558+524387929+526174817+527312063+527492390+526542598+524837471+523503510
3548+523372406+523568825+522367155+519965004+518464609+519002207+520813796
3538+522413291+522732679+521750110+520421315+519668653+519554056+519513323
3528+519091629+518446380+518346330+519436965+521257282+522372024+521827300
3518+519982935+517569799+514887567+512359061+510748700+510416605+511078183
3508+512410659+514169819+515659941+515990908+515217049+514385772+514134252
3498+514257340+514649465+515373863+515936578+516004980+516472870+518211366
3488+520442037+521754148+521717928+520193783+516814525+512363158+508922623
3478+507860608+508596288+509315342+508591478+506643085+504873119+504296629
3468+504879947+505843100+506019806+504565665+501872448+499439777+498439929
3458+498769827+499607992+500300089+500441050+499745449+498647214+498421938
3448+499681263+501275473+501736416+501208199+500816965+500768038+500057534
3438+497969961+495153389+492905320+492065671+492709109+494345774+496406390
3428+498364343+499485616+499136836+497416658+494963680+492066384+488536220
3418+484669300+481631043+480678430+482270948+485585990+488850294+490831760
3408+491858298+492602528+492682597+491481611+489422747+487484447+486306172
3398+486166488+486993846+488342414+489623322+490238288+489772447+488466927
3388+487178686+486510547+486283193+486023508+485714184+485808683+486516871
3378+487451909+488290518+489431505+491397711+493834450+495720022+496375870
3368+495955452+495264483+495150420+495740982+496519176+497343090+498675062
3358+500524118+502013231+502537351+502505881+502341941+501840147+500996877
3348+500542168+501078520+502262970+503175355+502972405+501519690+499755009
3338+499011670+499658343+500680873+501101321+501270188+502103721+503529361
3328+504265040+503238592+500977817+499017607+498189893+498186687+498388747
3318+498400325+498117572+497699143+497247077+496731062+496469685+496952271
3308+497738391+497493551+495779251+493996549+493766819+494993724+496183429
3298+496364024+495954145+495795579+496208516+497044454+497902569+498258414
3288+497983618+497722211+498297366+499883560+501950648+503786225+505043887
3278+505820655+506277620+506368110+506126565+506061963+506589052+507022563
3268+506144794+504127583+502616203+502485218+502833166+502480408+501429259
3258+500537003+500346818+500494370+500244809+499510792+498818042+498374318
3248+498022213+497873919+498045340+498285965+498615269+499386991+500224561
3238+500068103+498594488+496474940+494315017+492437371+491283411+491041420
3228+491225726+491247517+491199214+491561265+492349374+492974702+492852890
3218+491955379+490589859+488891739+487167671+486160253+486154494+486352724
3208+485892701+485065700+484765104+485179080+485581655+485176438+483930948
3198+482539658+481595952+481164994+481223183+481671538+481758496+480670563
3188+478911344+477901284+478206392+479121776+479769696+479835872+479456780
3178+478809097+477675948+475625397+472929597+470801499+470166315+470620251
3168+470984558+470568267+469633259+468722596+467911240+466949038+465804310
3158+464621790+463475608+462631595+462615563+463457409+464273307+464144875
3148+463071934+461631748+460172412+458813839+457766906+457099331+456456131
3138+455461034+454248557+453238883+452621185+452324746+452149703+451838835
3128+451437626+451438308+452083854+452781711+452757040+452159322+451919825
3118+452384034+452614713+451573688+449683127+448312145+447889708+447513822
3108+446362445+444655745+443236994+442700345+442855794+442963741+442669796
3098+442367775+442385499+442454555+442341887+442271525+442349309+442280462
3088+441973632+441781547+441882874+441966714+441755303+441438408+441367572
3078+441539972+441512154+440768874+439271033+437718654+437011623+437284757
3068+437732934+437521908+436638024+435690398+435169515+435153958+435490179
3058+435915259+436029826+435434662+434189143+433014816+432603958+432754716
3048+432697862+432218334+431707990+431201119+430349239+429322316+428778601
3038+428932655+429340841+429539962+429418833+429033477+428457847+427818596
3028+427296940+427026864+426866606+426412877+425483570+424327531+423170899
3018+422081303+421442349+421720173+422468975+422453300+421138933+419340080
3008+418213997+418240479+419074071+419880232+419916006+419037584+417686255
2998+416531612+416111372+416448425+416965004+417056771+416641608+415962900
2988+415234821+414690246+414543941+414709395+414845130+414722250+414319704
2978+413688498+412953323+412324581+411954010+411809843+411684053+411286911
2968+410490904+409557351+408917238+408706391+408743026+408899484+409154538
2958+409291698+409000930+408342529+407727088+407381870+407108469+406667448
2948+406166158+405835191+405612201+405303649+405067745+405197988+405386154
2938+404890950+403650656+402511510+402076723+401992259+401654613+401090888
2928+400755884+400758437+400697309+400239038+399493769+398739504+398190387
2918+398054176+398265498+398286280+397812215+397346344+397425404+397843210
2908+398206181+398557276+398927462+398957209+398445203+397727692+397141761
2898+396511089+395487046+394156914+392976769+392236725+391914575+391929687
2888+392195488+392501130+392627336+392531353+392302722+392062632+391903650
2878+391752803+391391079+390788879+390241097+389963421+389758274+389295104
2868+388566936+387907229+387677173+387989466+388569934+388908769+388732122
2858+388260254+387908506+387915304+388230239+388478138+388113178+386953606
2848+385520961+384612761+384606141+385199049+385641822+385303582+384256055
2838+383226489+382849772+383106340+383553745+383869511+383998685+383928621
2828+383543532+382776056+381845650+381185082+381006506+381058935+380980024
2818+380744000+380541436+380387205+380116862+379617443+378873925+378000432
2808+377311511+377110936+377336925+377564130+377388107+376767827+376014275
2798+375474420+375276606+375340436+375453371+375336576+374896683+374414424
2788+374233324+374330197+374376571+374123150+373571390+372864924+372193223
2778+371766244+371686085+371788896+371742107+371332466+370554599+369499323
2768+368331736+367311908+366708609+366661018+367020842+367315916+367121486
2758+366546955+366117542+366171189+366564947+366893241+366866106+366541374
2748+366210763+366056413+366003983+365847080+365402703+364692229+364026673
2738+363681931+363522089+363212587+362704350+362232304+361963059+361874974
2728+361885454+361897893+361758565+361343788+360717510+360088738+359600067
2718+359282489+359183567+359299916+359388210+359144349+358623584+358208332
2708+358118999+358204532+358220652+358046886+357639798+357042169+356416753
2698+355861074+355315014+354814616+354570933+354608815+354629419+354421630
2688+354122964+353920756+353754590+353451678+353008044+352648784+352619363
2678+352866727+352950686+352441677+351431290+350475055+350044810+350222258
2668+350829357+351575042+352095866+352134254+351741950+351175109+350630059
2658+350176300+349823869+349502937+349054701+348410164+347786915+347557779
2648+347813308+348181890+348285354+348252638+348477260+348962221+349265904
2638+349066695+348483317+347854278+347412633+347166367+347001923+346887919
2628+346891660+346977697+346985505+346865712+346743039+346713440+346724870
2618+346638120+346321048+345770535+345201704+344894548+344926641+345155182
2608+345416708+345620104+345691742+345578718+345314699+344981416+344637149
2598+344362293+344274504+344370101+344454654+344369834+344195236+344103677
2588+344100886+344022806+343755372+343376726+343052736+342834704+342656781
2578+342522559+342542510+342771883+343136190+343470333+343530571+343125205
2568+342393860+341779279+341576537+341681872+341847919+341966465+342051790
2558+342161162+342361886+342604203+342662155+342363340+341829928+341394488
2548+341326620+341651768+342148248+342519828+342660640+342733347+342908598
2538+343104601+343110569+342887698+342572941+342262964+342002418+341883634
2528+341944288+342066871+342153354+342262726+342431921+342526419+342411673
2518+342161281+341994580+342052799+342276472+342490258+342576414+342531377
2508+342402113+342267150+342233038+342332494+342470783+342559789+342611417
2498+342655415+342741423+343035101+343644219+344328537+344674853+344608440
2488+344460295+344465401+344433338+344050564+343396201+342965986+343127372
2478+343676104+344077907+344085537+343928486+343935373+344205598+344660810
2468+345177954+345579609+345686220+345506100+345246504+345056795+344916101
2458+344842474+345002524+345427544+345763528+345579787+344922395+344311110
2448+344143549+344325301+344546599+344697535+344859604+345041387+345137102
2438+345120209+345102753+345187988+345407148+345771930+346206064+346490539
2428+346481484+346298128+346137900+346061452+346087043+346299286+346728225
2418+347250682+347688230+347959494+348142078+348375874+348667860+348880043
2408+348987070+349186220+349585916+349957526+350029729+349900139+349906017
2398+350189601+350628337+351104332+351595616+352039963+352323577+352418431
2388+352422083+352450198+352502361+352401301+351894341+350874187+349455643
2378+347789557+345909714+343839123+341720051+339748679+338049253+336586087
2368+335125772+333425455+331562743+330013362+329479148+330567823+333253233
2358+336770601+340438935+344267320+348414469+352472405+355586248+357079042
2348+356914093+355846824+355085018+355207602+355602695+355631879+355534234
2338+355802677+356496763+357362686+358215249+359006773+359719147+360399933
2328+361147755+361894865+362475185+363018691+363906198+365265632+366853993
2318+368366323+369591743+370459329+371104459+371690093+372178112+372504358
2308+372841055+373418346+374206397+374958227+375457587+375611996+375422821
2298+375003324+374597364+374461094+374613722+374747201+374545706+374105100
2288+373872609+374140132+374750111+375325651+375645396+375728494+375651868
2278+375421842+375074635+374774277+374673544+374753198+374903274+375060652
2268+375209450+375371431+375580170+375751680+375722348+375536795+375455033
2258+375531244+375458893+375016654+374442331+374141646+374169316+374247099
2248+374255442+374410653+374847519+375303118+375441020+375310094+375227442
2238+375337675+375540180+375759934+376027367+376312079+376505589+376593615
2228+376685649+376832696+376918644+376780830+376394257+375902112+375473321
2218+375148084+374812783+374337441+373776983+373389281+373370281+373627234
2208+373892115+373974678+373849987+373615418+373415021+373331092+373363928
2198+373533953+373894787+374414156+374948667+375366591+375661606+375960242
2188+376412278+377016794+377563388+377815443+377766902+377671662+377801074
2178+378198157+378687007+379097360+379443765+379873060+380457507+381095630
2168+381633823+382017724+382292906+382528128+382750761+382909090+382973306
2158+383095890+383465362+383950620+384181121+384072966+383968522+384146326
2148+384479876+384720234+384869299+385071388+385321217+385522831+385704227
2138+385928345+386131889+386292623+386587637+387132628+387710780+387988041
2128+387922578+387828792+388074672+388741920+389541192+390105005+390381998
2118+390633638+391050998+391547062+391963947+392318754+392761468+393402115
2108+394251977+395244818+396223230+396990291+397523792+398066675+398827916
2098+399672464+400298148+400633805+400888443+401299955+401952418+402726039
2088+403359501+403650270+403615624+403467508+403486835+403835556+404371046
2078+404756669+404864587+404909713+405097344+405358484+405575417+405889165
2068+406572504+407623119+408655920+409280476+409501833+409638133+409936086
2058+410423719+411055519+411765607+412409431+412891245+413322826+413841394
2048+414381219+414869772+415483283+416412116+417506878+418429090+419073982
2038+419631561+420273069+420973538+421662874+422391429+423266674+424310134
2028+425433426+426523467+427562503+428657057+429912492+431362743+433025712
2018+434821269+436474351+437805166+439034742+440467269+442050673+443556174
2008+445022427+446756678+448900302+451123670+452918307+454196365+455311909
1998+456515270+457877733+459692647+462252652+465133470+467355175+468456261
1988+468881399+469295701+470014162+471012970+472132433+473267778+474516237
1978+476124727+478242849+480734749+483238821+485468572+487503804+489657167
1968+491982128+494150335+495969049+497701964+499652465+501766698+503843939
1958+505867029+507931979+510042590+512166205+514401270+516923957+519764428
1948+522799003+526006246+529448444+532791660+535274386+536672236+537811857
1938+539579092+541971030+544432678+546687693+548947103+551524951+554475389
1928+557627352+560926629+564433903+567859416+570722688+573220496+575980928
1918+578736669+580441439+581025054+581644830+583111855+585163683+587085179
1908+588517231+589698415+591074000+592759888+594525816+596212951+597873367
1898+599512347+600997126+602296708+603674252+605441427+607374976+608658289
1888+608841585+608404037+607882292+607323556+606891826+607077141+608002293
1878+609225694+610347680+611326746+612369820+613962724+616528874+619410850
1868+620795935+619812891+617701865+615934571+614726904+613620535+612470285
1858+611479404+610756312+610214498+609752427+609425913+609432385+609917198
1848+611011514+612894236+615023848+615484494+612948626+608805484+605285741
1838+603183323+601870916+600699172+600213588+601496248+604181983+605907951
1828+604965937+602229671+599050039+595774868+592792783+590924311+590374184
1818+590255014+589486855+588075467+587111305+587327555+588005224+587827627
1808+586655824+585558658+585508128+586803614+588966358+590558786+590137210
1798+588166373+586849452+587865569+590856443+593345878+592930003+590511344
1788+588938747+589469458+591209320+592915099+594451061+596024845+597256381
1778+598013674+599318303+602608140+608029784+613136435+614860858+613566858
1768+611613417+610177150+609909122+611627787+614837286+617405871+618365164
1758+618718813+618962080+619109275+620420436+624329157+629930773+634158824
1748+635542840+635511786+635545512+635954678+636739225+637767158+638537098
1738+639398241+642230697+648079084+653830805+654601042+651304436+647638626
1728+645151803+644286266+645192476+647257307+649815264+653525370+659595529
1718+667039016+671550413+670502827+666559311+663089978+661428672+661807200
1708+664170934+667863643+671579093+675055610+679720555+685999543+691087193
1698+692482372+690773683+686487977+681064373+677740989+678113876+681210143
1688+685835247+692617039+701680625+707965075+706331498+700680836+696565899
1678+695741035+697550902+700262942+702582381+704857229+707511851+709079223
1668+707963828+705901490+705992456+708829187+711666452+711531845+709433822
1658+708837203+712180122+719934744+728789977+731002419+727386307+726169793
1648+729040488+731499047+729223487+724735960+722164584+722152768+724245388
1638+729008424+736006763+740211538+737169244+731010554+727298785+727097379
1628+728531034+730101019+732069244+734192740+734799928+733940863+734171898
1618+736889223+739806825+739398134+736350021+733732094+732946181+733753648
1608+735179465+736231623+736791073+737650316+739209375+740805366+741868509
1598+742715758+743738763+744918879+746268397+747873176+749619332+751455681
1588+753612606+756242765+759166839+762094239+764887625+767804990+771690495
1578+776922609+781350522+781734690+779685713+779664812+782589955+785341777
1568+785016570+782815706+781229927+781534947+784975184+793014578+803747961
1558+807867886+801765961+793175133+786607158+782835538+781516005+781617362
1548+782583602+785086991+789913858+796846169+804871610+811398615+811415121
1538+805171879+799796904+798897819+800573494+800997030+799787997+799966663
1528+803226098+809087488+816919419+826464730+835436163+839756425+839998802
1518+840986477+843692935+845492946+846237235+848938587+855526750+865421257
1508+876122873+882016980+879587930+875447520+875859952+881114332+888869904
1498+896118754+899858371+899192221+897345778+898656285+904659052+912356732
1488+916187313+914852758+912548400+912671192+914337782+915206882+916094032
1478+919991472+927252554+934935389+940505773+943520694+944459265+944994251
1468+947617760+952789071+957194837+957227138+954849093+954746312+958373409
1458+963268440+965437181+963538249+959370584+954577325+950579004+948883378
1448+949749093+951927988+954101063+955561675+955847219+955238368+955130005
1438+956180086+956233406+953276793+950196261+950288295+952300696+952812288
1428+950917155+948534598+947477096+948738380+952661886+958267955+962994891
1418+964004951+961267736+957720916+955814621+955746219+956058660+955623902
1408+954644302+953516854+952230988+951218018+951830016+955055547+959874279
1398+963722317+965008599+964142052+962275421+960694214+960526296+961521869
1388+961839060+960201089+957814257+956884177+958464612+962470296+968261265
1378+974826568+980964951+985296852+986799087+986708181+987778509+990744148
1368+993397107+993713645+992952018+993981910+997840340+1003157422+1007770650
1358+1009931375+1009297586+1007960894+1009113162+1013479145+1018188089
1350+1020200728+1019833541+1019803971+1021872069+1025574218+1029668849
1341+1033452819+1036390550+1037443659+1036407651+1034686077+1033727140
1332+1033941610+1035183418+1036376656+1035668052+1033270176+1032371447
1324+1035491822+1041740290+1048375895+1053241119+1055577006+1056356506
1315+1057356175+1059182371+1061093357+1063424256+1067532662+1072303240
1307+1073741823+1070100951+1064756555+1061446412+1060353165+1060504101
1298+1061840556+1063653570+1064453495+1064094265+1063659745+1063847139
1290+1064997032+1066907067+1067882036+1065847784+1060611810+1053643813
1281+1046472628+1039792253+1034015356+1029960508+1028143100+1028444972
1273+1030355008+1032795398+1034583118+1035509279+1036185819+1036190094
1264+1033589386+1028299855+1023890527+1023556116+1025783462+1025904710
1255+1021897482+1016037101+1010846136+1007016682+1004631987+1003521877
1247+1002253705+998631596+991729448+982947368+974814514+968663840+964160459
1237+960196220+955009470+946686077+935690248+925645934+919570906+916971563
1227+915310198+912735675+908812406+903839888+898310237+892680892+887651847
1217+884401021+883608993+884411056+885299097+885769065+885903257+885398494
1207+884326028+883730716+884493174+886290572+888107208+889486830+890990431
1197+893341578+896620370+900480759+904864793+910044120+915534583+919940824
1187+922262282+922836397+923194262+924862159+928134004+931917856+935312136
1177+939212663+944778772+950770198+955056972+958045055+961233534+964387101
1167+967390146+971929866+978539880+984995217+989869882+994954979+1001730357
1157+1007874441+1009990990+1007963031+1004832563+1003702264+1006207019
1148+1012941902+1023428931+1034494052+1040217035+1036939074+1028387258
1140+1021648693+1019484049+1019482980+1019115081+1018929468+1019549482
1131+1019571333+1018877098+1019674767+1022662256+1026316310+1029872392
1123+1033487495+1037494129+1041554796+1044480533+1045371306+1044843445
1114+1045077034+1046322880+1046099266+1044721366+1046513242+1053006462
1105+1059294000+1059193534+1053706396+1049477930+1049055642+1047855754
1097+1042517296+1036990732+1036632452+1043185048+1053183049+1058623397
1088+1053857451+1042524302+1033496639+1030018341+1029595102+1031350165
1080+1037475485+1047754338+1054202787+1047221846+1030029504+1015189793
1071+1009280011+1010156057+1014404355+1021381853+1029683336+1035151592
1063+1035208831+1031188659+1025366636+1019522644+1015910391+1016210957
1054+1018680917+1018353275+1012732183+1005613606+1002541683+1004886239
1045+1009430472+1012088538+1010985553+1007446571+1005024231+1006239201
1037+1010138007+1014107708+1017723880+1021742983+1024716459+1024573242
1028+1022079769+1018501242+1014151410+1010495218+1008423321+1006928686
1020+1005433575+1004527722+1004333559+1005005112+1007869453+1013133927
1011+1016956374+1014970217+1008995120+1004985399+1004860826+1004955829
1003+1002041255+997241820+993051771+989771257+985679061+978394288+967427732
993+956346104+948911048+944818911+941468213+937642679+933700350+930041665
983+927019974+924697922+921911127+917653032+913282358+911181663+911538221
973+911800786+909572490+905306141+901195419+898646013+897833856+898091849
963+897919893+896010985+892780942+889770830+887759438+886646893+886530455
953+887463563+889022741+891273422+895000925+899863536+903738829+905062933
943+904395478+903386189+904046401+908142100+915349268+922872795+928461883
933+932694446+936738309+940218092+942989034+946039819+950019199+955142000
923+961736100+969055609+975007964+978261224+978751856+976036491+970232815
913+964042655+960894374+961550191+963313626+962384021+957750486+952615750
903+951046241+953831314+958485216+962869843+967266702+972478924+977477509
893+979761738+978014929+974284398+972285593+973149586+974349118+973546580
883+971804700+971296730+971933310+972626417+973422483+974348762+974563706
873+974675869+977409463+982359774+983507351+977667455+971521591+973940665
863+986195284+1000964752+1008748587+1007300385+1002358209+999814978+1001113788
853+1003567835+1003918040+1001996603+1000955133+1002824199+1005039550
844+1003666638+999229046+995363789+993620661+993135552+993984107+997616607
834+1003534109+1009002839+1012471044+1014817025+1017545631+1020930114
825+1022584354+1019876055+1014839232+1012934658+1016824558+1023541391
817+1027490310+1026867328+1025661264+1027890867+1032999773+1038953376
808+1045282359+1050439599+1049971709+1042017224+1031654174+1025651408
800+1025880484+1028461479+1028465516+1025666133+1024614212+1029289074
791+1038057497+1043077932+1039328163+1032338552+1029841160+1032306608
783+1035031532+1035701066+1035421876+1033974742+1029203571+1020571952
774+1010816922+1003187110+998821365+996145426+992213369+986525004+982290125
764+982925458+988401254+995966345+1003374741+1009967476+1014175636+1015046338
754+1014228956+1013443756+1014906921+1019329194+1022351478+1019802190
746+1014649819+1011747358+1011609841+1013202330+1016097784+1017933124
737+1016594650+1015110822+1018194264+1024050607+1024487621+1016707229
728+1008970420+1009406840+1016484565+1020724432+1014879608+1002562465+993131930
718+991866252+997604257+1005968324+1014014130+1021255855+1028038003+1035271652
708+1041540427+1042512546+1038379320+1034964792+1033626200+1028223021
700+1015263064+1001266149+993945453+993216245+992883141+988163687+980380148
690+975034981+977171658+987317270+999946082+1006028294+999985745+985362167
680+970822072+962214856+960545178+964248634+969822996+969981413+957957652
670+936520752+920383953+923625279+940812455+957746745+965399239+962613038
660+958688641+963720417+975840072+982885913+978778160+969063565+960571541
650+958289984+958999301+954162340+944574872+939116295+939445480+939774844
640+938587603+940151353+945801064+950178922+951687867+955520230+959714258
630+953908326+937662630+923194677+915472119+910700295+905831567+899706663
620+893704727+892696627+901115795+917556129+935623211+946373160+939643799
610+914980537+885371655+865723960+861347586+869257420+881190335+888971380
600+893906193
##END=
