##TITLE=<SNM>
##JCAMP-DX=4.24
##DATA TYPE=INFRARED SPECTRUM
##DATE=29/4/2025
##SAMPLING PROCEDURE=Instrument type and / or accessory
##ORIGIN=Admin
##XUNITS=1/CM
##YUNITS=ABSORBANCE
##RESOLUTION=4
##FIRSTX=4497.3318
##LASTX=599.83466
##DELTAX=-1.4281778
##MAXY=2.1181138
##MINY=0.38744125
##XFACTOR=1
##YFACTOR=1.9726472e-09
##NPOINTS=2730
##FIRSTY=0.39179012
##XYDATA=(X++(Y..Y))
4497+198611353+197931005+198079136+199138736+200310435+200644272+200104350
4487+199717636+200376818+201701922+202449364+201999681+200885543+199844088
4477+199211344+199310058+200361665+201775406+202476498+202044914+200859693
4467+199497259+198540981+198327765+198504511+198576666+198897661+200232690
4457+202374505+203940366+203806224+202318168+200810487+200252693+200595428
4447+201184269+201497801+201418938+200970902+200150156+199186612+198527112
4437+198291703+198241046+198424833+199143283+200099848+200466574+200054600
4427+199624949+199759515+200124775+200146108+199832787+199483178+198970329
4417+198022301+197064468+196965799+197823739+198647839+198541963+197710159
4407+196989775+196860694+197264631+198084651+199304393+200637382+201410976
4397+201140064+200069028+198895848+198132074+197865890+197803948+197488075
4387+196876572+196657736+197481004+198985528+200149431+200498043+200341255
4377+199986131+199463704+198884532+198403198+197965465+197540529+197366744
4367+197619361+198140565+198675410+198969483+198715914+198023510+197652342
4357+198172563+199274857+200269523+200696605+200294693+199101873+197683101
4347+196721959+196406765+196483664+196757900+197343176+198349823+199373027
4337+199640027+198902571+197886150+197615433+198498015+200073182+201414935
4327+201810804+201204498+200065719+198955116+198193684+197761722+197437841
4317+197136109+197236681+198298668+200109214+201467177+201545723+200969678
4307+200724086+200748636+200576362+200483706+200971355+201838798+202589293
4297+203105888+203345346+203002536+202128052+201520568+201731609+202219394
4287+202277347+202153403+202319604+202465892+202155367+201592179+201084648
4277+200700760+200768578+201714688+203214694+204301729+204413255+203837044
4267+203171093+202738693+202480078+202154763+201674033+201347569+201643077
4257+202551946+203429451+203631866+203099075+202325284+202057469+202834885
4247+204402317+205688669+205754025+204753014+203787657+203833947+204865265
4237+206009513+206549601+206579877+206526290+206380938+205782504+204675496
4227+203569455+203133233+203673563+204975657+206506408+207732782+208359468
4217+208371524+208019830+207792760+208024302+208410699+208276285+207384064
4207+206225630+205543468+205807205+206912218+208145119+208787608+208755866
4197+208292284+207421501+206261873+205339997+205058206+205358353+206104284
4187+207145165+207965034+207988557+207281603+206479426+206122051+206293917
4177+206769027+207422393+208406891+209754793+210996048+211537073+211309232
4167+210738642+210197088+209720226+209223694+208799452+208657832+208885279
4157+209415789+210073657+210482368+210292146+209708170+209398596+209660278
4147+210090654+210258501+210289563+210553571+211041613+211437361+211639670
4137+211768917+211872390+212046296+212526542+213229824+213653265+213631495
4127+213648128+214042985+214435093+214276038+213641375+213108237+213012378
4117+213168985+213317736+213476308+213707834+213931142+214124658+214403064
4107+214865000+215530588+216298925+216862082+216899670+216462345+216009913
4097+215995983+216449398+217011105+217423548+217807180+218261984+218497968
4087+218248493+217814885+217771163+218249324+218796906+218941955+218830596
4077+219117327+220052695+220942981+220912055+219989423+218945883+218306870
4067+218036758+217928118+217847140+217697422+217426796+217084801+216830598
4057+216871645+217269222+217787253+218111526+218233008+218417096+218862443
4047+219503633+219972351+219838300+219187910+218748969+219113127+220026060
4037+220641037+220366423+219422655+218628575+218610551+219237479+219939039
4027+220428047+220818735+221168888+221353686+221411186+221629841+222188512
4017+222954492+223662306+224047117+223862832+223125225+222275276+221852152
4007+222069946+222754026+223573231+224230918+224479577+224106928+223157449
3997+222179477+221846260+222215978+222730579+222945412+222906041+222960248
3987+223459575+224410685+225301334+225486571+224836045+223947994+223654843
3977+224197650+224993800+225441021+225625049+225841332+225933474+225645067
3967+225236129+225308133+226191364+227620031+228876228+229365977+229212467
3957+229054455+229223390+229408989+229185077+228614244+228114675+227860049
3947+227675719+227550762+227764583+228346202+228885187+229033546+228770987
3937+228228694+227806809+228222877+229710314+231266340+231528656+230492957
3927+229475222+229521890+230365931+230904901+230736374+230692863+231547616
3917+232776665+233148437+232320470+231093492+230338148+230281811+230693921
3907+231603500+233555697+236754725+240158448+242209540+242243276+240470348
3897+237530691+234615946+233138360+233795866+235631854+236531583+236051850
3887+236018009+237562659+239395686+239978121+239844115+239652851+238778382
3878+237376576+236990285+238315268+240495532+242818792+245094417+246187178
3868+245228861+243596359+243053733+243266088+242572867+240618872+238503375
3858+237525645+239149565+244719698+251907331+253823270+249503457+243899799
3848+240075158+238591892+239116358+241045924+243599079+246313494+249067370
3838+251083972+251231469+249776348+248014796+246566428+245223346+244056678
3828+243579439+243936299+245048821+247310215+250639637+253024899+252927786
3818+251966131+251702862+251245293+249499770+247256038+246080426+247109221
3808+250005896+252548566+253506520+254384161+256051940+256644980+255218141
3798+253630374+252851341+251952458+250531632+249417191+249135371+249573753
3788+250834784+253058000+255465425+256908672+257458927+258129683+259178344
3778+259884905+259976971+260100825+261118938+263535126+266973748+270265612
3768+272797949+274900861+276707601+278350995+280777395+284548116+288278802
3758+290133403+290815217+292933449+298581191+307844618+317365421+322952732
3748+325435061+328303847+332316172+334443317+333411909+332609837+335394383
3738+342621280+352477386+361414152+366541945+367548637+366594157+366329771
3728+367955580+371077452+374919693+379237285+383750765+387471631+389669692
3718+391078402+393472653+398493634+406718552+416586229+424670343+429112272
3708+430920130+431886242+433928845+438572403+445180123+450944769+454175357
3698+455660029+456683762+458166108+461112367+466188853+472387304+476606847
3688+476522667+473541478+470411146+468550351+468397460+470140898+473956489
3678+479809787+486052534+489297746+489522973+490816622+494811815+497462596
3668+494946636+490229141+488227813+490166564+493594037+495847967+497175427
3658+499835061+504713243+510174615+514783818+519118845+523895321+527740373
3648+528595110+526779639+523944029+521778238+521929557+524663159+527815912
3638+528842274+527885045+527122283+527972126+530821816+535987831+542210787
3628+545927906+546313215+546323004+547910711+551075006+554947976+557899251
3618+558875637+559300649+561323762+564777583+567486650+568300173+568225662
3608+568873060+571006037+574084943+576827428+578415921+579057216+579453342
3598+580256351+581655815+582724116+581941412+579818588+579842942+585313228
3588+595085847+602772082+603294751+598703496+594071027+592234525+593276358
3578+595867403+598205906+598708149+597369418+596081933+597006650+600835748
3568+606107941+609968583+610868463+609826147+608358033+606891128+605494021
3558+605027916+606205295+608663996+611501298+613589918+614330260+614385434
3548+614678404+615119974+615121001+614940796+615485824+616845524+617818647
3538+617161096+614854984+612232756+611141249+612602716+615784233+618335031
3528+618488224+616849815+615119974+614100924+614135188+615993325+620129654
3518+625349151+628703622+627952040+624906009+623860067+625786007+626935347
3508+624983724+623190491+625444088+630653614+633963789+632548432+628508007
3498+625798879+626223166+628615755+631001999+632801517+634584054+636496699
3488+637688039+637459851+636740841+637106329+638246543+638345408+637166578
3478+636492288+637296445+637891631+635883082+631703484+628335053+627672969
3468+629007047+631003329+633304063+635707288+637372709+638056487+638791813
3458+639837876+639665345+637309800+634132815+632121788+631572650+631683481
3448+631797635+631023815+628977436+627241914+627227048+627470465+626089493
3438+624382253+625063130+628313841+631108479+630146718+625395078+620175098
3428+617725402+618639966+621011223+622225345+621403965+620195584+620318078
3418+621763953+624268884+628136416+632640650+635382229+634533534+630829106
3408+626724382+624633525+625537152+628549100+631945933+634334172+635414680
3398+635822107+635675259+634120487+631012877+627911914+626555114+627156465
3388+628682048+630243468+631878492+634038059+636354142+637643924+637536054
3378+636919113+636076461+634035279+630966284+629258984+630555474+633588814
3368+636235033+638125197+640004726+641999256+643563092+643997653+642868860
3358+641013805+640571812+642895147+646951768+650254631+650706051+648007983
3348+643936496+640712798+639502121+640257751+642111234+644152296+646115763
3338+647868991+648389908+647194882+646038230+646533584+647637359+647612763
3328+647027911+647664251+649684282+651293744+650895563+648745364+646184957
3318+644599909+645209538+648120747+651302023+652063637+649857538+646193901
3308+642793260+641110797+641821528+643989978+645834034+646588214+646707263
3298+646830059+647521452+649028302+651058123+653400917+656146243+658853920
3288+660500789+660778893+660440902+659767880+657933191+654957562+653054405
3278+654474839+658919548+663867588+666875004+666979429+664656154+661272857
3268+658880086+659394174+662094539+663196500+660149503+654945899+651846266
3258+653088851+657068905+660039639+659712404+656921755+653431858+650064817
3248+647672046+647656999+650476715+654691001+658000632+658635038+656302155
3238+653062684+652254841+655201704+659410370+660944837+658695046+655098609
3228+652714057+651829526+651199713+649811852+648129933+647701718+649365024
3218+652112948+654238855+655275068+655856657+656265413+656097293+655223641
3208+654151411+652740163+650296026+647306015+645559737+646110687+648004236
3198+649573028+649893313+649115504+648500678+649493440+651665396+652789414
3188+651757613+649572001+647089369+644082014+640712435+638018234+636510417
3178+635323852+633596731+632099912+632041777+632784597+632749849+631763975
3168+630449417+628937189+627595376+627168672+627422724+627230493+626184430
3158+624591163+622201293+618948769+616330349+616013750+617485792+618430754
3148+617770544+616866071+616611535+615531812+612348421+608455025+606213151
3138+606120329+607024258+608160726+609432317+610309233+610253335+610077117
3128+611053987+612680551+613050691+611309671+608248653+604973044+602438804
3118+601600141+602701378+604750235+606256722+606266814+604784801+602647715
3108+600839495+599760376+599277894+599147604+598889261+597678584+595246654
3098+592680326+591578908+592487732+594377534+595601929+595419850+594553751
3088+594107467+594010898+593059229+590908122+589186984+589555311+591524580
3078+593253817+593805735+593520500+592671019+591113286+589080564+587564166
3068+587679287+589398311+591216986+591607975+590422619+588338349+585785255
3058+583122539+581076583+580362589+580919764+581587165+580960011+579118614
3048+577776499+578120352+579499874+580649334+581071023+580734845+579675064
3038+578316693+577387141+577315410+577915128+578387337+577639562+575198507
3028+571828505+568903034+567418181+567578867+568842241+570072739+570103076
3018+568843268+567638573+567895406+569489760+570927114+570995099+569770825
3008+567872986+565579262+563076326+560882676+559372018+558144843+556613942
2998+555095791+554479998+554872377+555405803+555345492+554658391+553665870
2988+552774148+552252023+552020088+551996279+552270998+552459060+551748753
2978+550220449+549067001+549016964+549476180+549443184+548544271+547169644
2968+546138448+545973289+546230666+545890257+544485596+542536027+540996121
2958+540507898+540826008+540923302+540102708+538821326+537977466+537783845
2948+537743839+537347350+536566339+535964505+536193841+537067977+537526891
2938+536809151+535147476+533263596+531820803+531042873+530373296+529185764
2928+527946261+527649363+528299542+529004954+529092459+528262498+526428715
2918+524122784+522320788+521526119+521528536+521918015+522257517+522092782
2908+521369482+520571489+520196936+520383487+521029194+521851359+522265433
2898+521624803+519754339+517041102+514143551+511904517+511116132+511750599
2888+512649028+512592283+511688415+511095586+511387649+511994499+512137781
2878+511456783+509918810+508015170+506803012+506870030+507526826+507680381
2868+507124113+506393742+505820039+505309457+504788480+504368514+503960513
2858+503148681+501790612+500428072+499763118+499923230+500328270+500221639
2848+499477611+498633690+497925770+496968783+495747862+494967485+494926211
2838+494926694+494175686+492701378+491313366+490891496+491427762+491833134
2828+491195163+489931487+489048226+488677813+488125624+487101800+486052051
2818+485296057+484681140+484170649+483984309+484019329+483832113+483276902
2808+482639233+482183220+481861968+481345554+480368896+479173780+478257010
2798+477624145+476814186+475678957+474587843+473839676+473326404+472809416
2788+472218399+471633245+471198322+471033163+470997509+470623924+469589524
2778+468178216+466951796+466078325+465277280+464343196+463441956+462839126
2768+462529658+462295548+461998166+461617087+461120616+460512346+459817539
2758+458930773+457829264+456899713+456613753+456940051+457378902+457448488
2748+457011269+456325708+455767354+455304694+454473947+453121831+451803949
2738+451104066+450946582+450879473+450661226+450280389+449738111+449076178
2728+448380042+447649067+446861529+446122305+445569964+445217409+444952268
2718+444577716+443855141+442650325+441099481+439615746+438629238+438224168
2708+438109772+437991267+437828284+437687328+437520871+437186143+436638546
2698+436031304+435514074+435020170+434454324+433900321+433364478+432610147
2688+431564719+430537329+429754202+429114569+428568241+428250132+428106729
2678+427815028+427271117+426849580+426929591+427316078+427376751+426750382
2668+425692263+424689923+424037931+423832042+424006205+424233879+424040439
2658+423200597+421932904+420662309+419713389+419223565+419180930+419392862
2648+419486168+419183741+418637564+418241740+418056670+417771495+417303517
2638+416955917+416875302+416835266+416618409+416194817+415543944+414700960
2628+413970438+413754910+414068518+414446937+414461773+414118615+413644261
2618+413144949+412601884+411941614+411059289+410047974+409321985+409175017
2608+409356249+409397705+409165891+408819228+408496435+408301031+408310338
2598+408398900+408298584+407932704+407471312+407079325+406854220+406925407
2588+407315490+407737088+407801417+407470617+407102048+406988316+407058870
2578+407126280+407151390+407071802+406653709+405806978+404840352+404180172
2568+403980780+404048251+404047496+403867562+403768395+403991839+404382043
2558+404617694+404589593+404350377+403978786+403679863+403735913+404136843
2548+404405973+404043024+403158101+402419965+402307110+402627304+402833707
2538+402623255+402165580+401856022+401927663+402355696+403043251+403830578
2528+404375637+404426852+404184312+403978907+403696149+403014214+402137056
2518+401752110+402204165+403101356+403836319+404180777+404204345+403929685
2508+403338578+402567961+401926756+401721381+402037647+402665225+403276093
2498+403675361+403866082+403942980+403962832+403882851+403630430+403232129
2488+402829960+402581195+402554515+402703689+402973182+403394598+403989784
2478+404645160+405128518+405169339+404618298+403681978+402872926+402531581
2468+402517440+402513452+402510642+402831591+403662066+404654164+405183571
2458+405057421+404721424+404634766+404724717+404628148+404251421+403893276
2448+403883667+404221719+404582251+404652593+404444317+404240392+404251602
2438+404394250+404434467+404304147+404185430+404277618+404578867+404918399
2428+405086065+404902657+404360590+403796405+403669318+404008729+404340557
2418+404318227+404135121+404160442+404455436+404815152+405088543+405296033
2408+405490078+405637529+405733947+405927387+406304901+406654072+406741244
2398+406690119+406741455+406879601+407050711+407401846+407944609+408348500
2388+408363275+408057675+407400910+406006190+403485366+399728000+394776757
2378+388825741+382463129+376538039+371506211+367057422+362588994+357959456
2368+353617449+350131328+347779651+346434877+345669729+345198577+345370323
2358+347081490+351060276+357342484+365459230+374459117+382444758+386979661
2348+386472976+381418184+374717551+369799364+367646656+367017659+367000889
2338+367641308+368798896+369758210+370107714+370343546+371202393+372727342
2328+374402312+375904509+377258166+378558855+379975663+381796574+384183090
2318+386979178+389794664+392151659+393714317+394654112+395649775+397297218
2308+399631612+402242176+404585726+406206307+407020012+407469559+408175093
2298+409397887+410890052+412186843+413013300+413475688+413872932+414343117
2288+414792996+415147818+415470308+415759894+415811533+415446952+414859561
2278+414555834+414819102+415308353+415381082+414801759+413933635+413238254
2268+412804087+412444884+412138710+412165995+412702593+413451274+413941401
2258+414114717+414320878+414794356+415438189+416097795+416788160+417578418
2248+418331299+418657960+418275612+417418306+416654154+416215424+415785336
2238+415071342+414266520+413726085+413486596+413347302+413186616+412996530
2228+412799011+412659687+412629350+412642343+412618443+412632795+412833789
2218+413221092+413636496+413993160+414406569+414998915+415648852+416116317
2208+416379676+416637656+417013870+417486472+418064979+418805502+419670362
2198+420527094+421266469+421863921+422414963+423132159+424132476+425200233
2188+425963811+426328271+426535338+426810844+427173279+427585510+428091440
2178+428739896+429456095+430023453+430207254+429963958+429545896+429326924
2168+429489212+429939121+430529926+431217874+431958095+432634954+433225003
2158+433892767+434757930+435660468+436333580+436781798+437313532+438157271
2148+439174750+440043780+440639600+441117248+441704246+442599231+443989026
2138+445883209+447928168+449638792+450890593+452026517+453457254+455300010
2128+457364458+459374005+461210446+462947902+464659402+466326787+467953080
2118+469496672+470688736+471351182+471891678+472928042+474414708+475711560
2108+476529979+477192546+477918656+478555509+479155892+480143307+481596252
2098+482872437+483326577+483091198+482761153+482501783+481851272+480357898
2088+478097774+475478114+472765633+469989457+467194095+464546788+462147733
2078+459946983+457956593+456358190+455277470+454595323+454057184+453484327
2068+452887026+452392216+452003039+451555335+451058803+450807168+450921020
2058+451114913+451186736+451386219+451974002+452731506+453268286+453599871
2048+454051926+454746914+455579232+456600881+458026512+459877275+461949247
2038+464103647+466339961+468682332+471242406+474280037+477925756+481877378
2028+485558812+488569189+490868563+492608617+493949704+495018489+495911691
2018+496712071+497523359+498417559+499288280+499775627+499453288+498265997
2008+496744432+495545237+494793987+494102444+493163163+492057968+491019550
1998+490181008+489652326+489633350+490237148+491231391+492148282+492748092
1988+493254504+494066397+495322095+496791508+498205747+499594878+501153940
1978+502886984+504565308+505923830+506850873+507613242+508849723+511027359
1968+513898321+516718702+519013212+520952144+522983416+525261850+527502093
1958+529395823+531013806+532600365+534184929+535703382+537351520+539495254
1948+542257017+545403666+548629479+551746758+554606661+557066510+559114159
1938+560929993+562790184+564826834+566873757+568779271+570771806+573073809
1928+575407176+577487941+579558130+581770574+583719780+585235090+586758619
1918+588329103+589175320+589013305+588805119+589609881+591330355+592959578
1908+593937958+594687183+595629062+596485613+596900956+597073729+597423504
1898+598134537+599144220+600181762+600983079+601719251+602734554+603784424
1888+604202064+603816876+603001902+602086974+601237675+600571664+600209138
1878+600281232+600681769+600923736+600728845+600548398+600957214+601693447
1868+601663110+600175054+597784339+595462696+593524911+591637949+589615561
1858+587795376+586481301+585407319+584114516+582685501+581665182+581286702
1848+581321147+581597559+581857474+581283136+579395691+576948472+574857978
1838+573302541+572016567+570844143+570060593+570143323+570882818+571015888
1828+569638965+567246919+564535133+561685987+559080982+557401359+556877180
1818+557068203+557371506+557639156+558225579+559302402+560305075+560468662
1808+559842535+559208794+559209821+559988597+561326965+562759848+563749468
1798+564147105+564523591+565812889+568371724+571109435+572302164+572006596
1788+571884102+572927385+574788482+576789961+578835615+580929070+582676074
1778+584099710+586238670+590174851+595601083+600290176+601957470+600926274
1768+598989758+597468344+597359810+599219094+602202821+604399190+605185339
1758+605680632+606641306+608099811+610498685+614436196+619279267+623040561
1748+624505895+624477976+624485046+625564467+627997182+631330140+634562662
1738+637243749+640403632+645166209+650096060+651937275+650770169+649101907
1728+648295031+648600631+649886907+651854303+654504873+658549407+664664977
1718+671738682+676296397+676540479+674959540+674398014+675653894+678347551
1708+682092528+686360899+689968215+692413198+695090901+699489139+704570611
1698+708031562+709664955+709939131+709082882+708472528+709750888+713246103
1688+718231067+724526056+732068344+737988721+739147307+737882665+737914814
1678+740570943+745102855+749301186+751737165+754112713+758605948+763943346
1668+766662263+766764271+767098455+768543424+769591058+769435508+769628042
1658+772098950+777790897+786780873+796408156+799675244+796573858+794691126
1648+796498138+798896528+797681440+793673164+790515094+790065003+792593804
1638+797541965+802813614+804505806+801482799+797572724+795715615+795522477
1628+794975273+793369800+792122985+791742329+790582474+788143293+786288843
1618+786124652+786248052+784633393+781583857+778591972+776237757+774245826
1608+772341158+770519340+768667791+766779802+765441676+765124231+765202670
1598+764680122+763598164+762797572+762671331+763047334+763844420+764929703
1588+765598071+765213488+764232509+763528245+763082867+762623410+762922725
1578+764676497+766052695+763884184+759380373+756762920+757689873+760419909
1568+762092703+762131742+761563871+761002163+761483195+764953513+771450584
1558+775214416+772585904+768031874+764611050+762343372+760800202+759908360
1548+759972961+761785290+766136331+772820860+780310633+785841411+786179583
1538+782428563+779619059+780208626+783198697+786041619+787841983+789984629
1528+793285982+797200589+801555377+807297120+814592365+821323667+825449059
1518+827674314+829423433+831228027+833505918+836997387+842370016+849809934
1508+858330299+864494999+865092482+862604412+861130557+862672457+867552935
1498+873955250+878547714+880231869+881744762+885998811+892981991+899312937
1488+901652165+901558074+902901941+906826097+911423274+913912734+913440404
1478+912610927+915642031+924630074+936549871+944087325+944211390+942405829
1468+943633789+947815502+952083451+954090731+954044320+953312559+952775629
1458+952795813+953486662+954458213+954637995+953502071+951669800+950363037
1448+950478823+952239363+955644355+960576623+966004184+969739371+970638586
1438+970665237+972984281+977845059+982914082+987250740+990517587+991388157
1428+989865897+988294567+988315114+989149245+989906749+991695752+995737688
1418+999953242+1001043178+999766208+998898719+998825597+997811624+995570233
1408+994139284+995082494+997647311+999753094+1000306160+999656888+998444096
1398+997189183+996546619+997141563+998751509+1000077368+1000450288+1000526734
1388+1000237148+997864078+993290892+990037884+991148729+994939634+996654972
1378+994830073+993092859+995010460+1000578281+1007543513+1013618654+1016984063
1368+1017553687+1018046684+1021174478+1026342548+1030585418+1032288125
1360+1032624122+1033221786+1034507035+1036369402+1038799700+1041458186
1351+1043619082+1045329283+1048297418+1053859378+1060142161+1063538753
1342+1062985929+1060720366+1058784757+1056948738+1054813706+1053956672
1334+1056250880+1060591406+1063491858+1063792080+1063889011+1065056782
1325+1065281344+1063094463+1060046438+1057751747+1055404844+1052098173
1317+1049721538+1051153877+1056587602+1063118635+1067546787+1069099262
1308+1069516841+1070395872+1072077671+1073741823+1072913917+1067324521
1300+1057680801+1048102830+1042767849+1042127038+1043597327+1044971652
1291+1045658391+1044578245+1039689367+1031592321+1024176092+1020318653
1283+1019185811+1017172487+1011199596+1001492121+991193086+983510235+978849847
1273+975087163+970458864+965079104+959982464+955856408+952398237+948508950
1263+943181885+936070230+927503090+918595300+911055671+906132891+903471142
1253+901225280+897418904+891384192+884057341+876596212+869013918+860531261
1243+850913648+841047722+832428854+826028533+821358657+817163951+813312071
1233+810890536+809999781+808847420+805926965+802165490+799933949+800489130
1223+802834704+804844462+805423694+805358912+805948357+807394958+809034333
1213+810748220+813231396+816689567+820175053+822730565+824741410+827510848
1203+831566139+836054721+840063541+843814924+847848279+851822048+855256893
1193+858725579+862911583+867083264+869918995+871256699+872029552+873166685
1183+874952183+877031557+879321353+883045180+889768626+899458515+910663473
1173+921946146+931832134+938377430+940723185+940763250+941298489+943439080
1163+946804127+950770947+954384003+955638191+953285607+949756309+949424542
1153+954143427+961649940+968090266+971362189+971710876+970492162+969479215
1143+969649208+970006175+969127627+967465831+967037314+968731622+970338485
1133+968753558+964868441+963190450+966509871+973554328+981102357+986554453
1123+988872410+988925408+988966803+990527074+992690207+992872588+989686357
1113+985345951+983840249+986947316+992942325+998869047+1003051788+1004795951
1103+1003873047+1001492786+998998491+996045645+992212136+988146632+984415010
1093+982333339+984446797+991017413+998116801+1001648215+1001004865+997005352
1083+990601525+983706999+976526028+967709127+959520709+956668239+959697712
1073+963311675+961414742+953902549+946039553+942084517+941908843+943128948
1063+944569686+945433126+944099109+941421043+940606371+942220608+943229747
1053+942207554+941844968+944502668+947945671+947817255+943909053+940101530
1043+938401300+937586326+937192738+938403596+940803498+942253905+942055389
1033+941413308+941296676+941470657+941070724+939409533+936735939+934236266
1023+933317773+934770960+937935739+941401705+944620448+947742623+950398027
1013+951871579+951605441+948243778+940128301+928519602+917459256+909679413
1003+904267020+898181787+889769351+880224557+871869349+866150450+862806856
993+860400488+857789501+855000423+852607411+850650893+848451200+845447592
983+841955519+838899094+836814159+835236303+833265885+830537964+827157507
973+822874814+817293939+811133106+806230812+803700742+802651416+801319575
963+799183757+797317161+796934330+798296749+800940974+804266499+807702612
953+810891261+814097555+817750133+821561222+825129620+828797487+832801835
943+836683024+840535266+845659645+853140837+862604895+872542975+881213693
933+888144298+895226644+904226289+913402756+918969853+919765670+918304808
923+917248351+916185972+913266605+908796031+904445594+900232336+895454168
913+891312399+889459521+889335153+889705657+890817650+893405069+897088829
903+900318692+901422164+899879176+896595349+893164009+891651841+893978742
893+900040286+907377410+913578792+917983133+920691354+921367095+919796248
883+917725455+918037219+921105912+923873899+924060450+923280888+923893297
873+925532129+926480414+926881737+928655693+932233034+935430022+936065274
863+934173297+931485260+929655043+929026136+929249066+930846382+935152523
853+941627778+946628212+947360517+945301145+943046701+940717021+937428600
843+934028443+933269066+936819878+942345821+945783083+946533517+948097716
833+952620381+958016639+961350443+962115622+962053076+963766117+968392966
823+974118573+978638761+981607682+982803735+981532687+979427750+980162774
813+984735839+989434842+991049199+991226806+992935557+996314865+998937999
803+997718378+991706630+984878819+980583616+977511358+974173626+971830288
793+971180412+970187045+968103803+966709113+965452145+960736100+951302801
783+939947551+929078107+919313222+912064811+909569005+911974164+915972952
773+917299536+914631744+910743122+909753018+913387286+920372761+928316070
763+935356236+941104928+946937015+953217441+957648553+958566985+957244752
753+955347094+952536080+948315268+943716217+941251836+943477635+949935064
743+956242381+957324582+952677005+947938661+949839643+959091890+967336267
733+965647398+957433479+952588534+953746697+956192284+956216275+954370829
723+952654767+952362884+953878437+957485329+963038284+968700621+972301168
713+973605150+973278581+971271905+967098229+960185391+952370136+948162256
703+948342945+949068904+945638592+935348742+922880834+916061725+916376934
693+920403037+925386490+931448034+939864156+949343745+954383157+950202411
683+939272656+928994833+923925688+921761408+916517376+907843576+902053670
673+901022412+898889919+891787630+885708923+888861796+898056815+906738109
663+914655916+921344252+924029509+924278546+925787813+926844995+923480371
653+917041254+909811032+902630364+899171044+901768132+906558327+907536344
643+903748400+900071347+901600255+907406719+910659243+905859501+896028082
633+888950811+886483227+884412011+880889480+878455436+878323454+876868333
623+870164889+860352446+854405600+857758379+867605329+872977958+867401918
613+856793173+851211815+855077715+866782438+878629417+880316352+870513033
603+856469323+847784101+851006591
##END=
