##TITLE=<SNM>
##JCAMP-DX=4.24
##DATA TYPE=INFRARED SPECTRUM
##DATE=29/4/2025
##SAMPLING PROCEDURE=Instrument type and / or accessory
##ORIGIN=Admin
##XUNITS=1/CM
##YUNITS=ABSORBANCE
##RESOLUTION=4
##FIRSTX=4497.3318
##LASTX=599.83466
##DELTAX=-1.4281778
##MAXY=2.2144737
##MINY=0.52371943
##XFACTOR=1
##YFACTOR=2.0623894e-09
##NPOINTS=2730
##FIRSTY=0.53580815
##XYDATA=(X++(Y..Y))
4497+259799703+258908114+258573356+258707543+259149378+259664100+259784096
4487+259211861+258419778+258455037+259834702+261812121+263001301+262762379
4477+261821456+261476034+262209362+263103957+262966794+261894228+261032321
4467+261078331+261726720+262294446+262367016+262047605+261756372+261629035
4457+261359680+260840998+260460374+260497772+260739411+260880592+260966832
4447+261215696+261479011+261273180+260507598+259732364+259494366+259938947
4437+260985559+262200750+262681370+261832410+260148766+258807424+258687457
4427+259900538+261862929+263618506+264304755+263597756+261941250+260291045
4417+259394283+259296396+259702596+260489882+261583285+262622528+263065952
4407+262699317+261898188+261296329+261261388+261649005+262015583+262099048
4397+262100002+262249592+262141012+261142664+259621241+258801210+259150476
4387+259931779+260437745+260688113+260760075+260240989+258719825+256504090
4377+254587246+253938193+254805563+256539002+257997451+258319030+257640497
4367+257051153+257479144+258669018+259493123+259138424+257853929+256703997
4357+256640126+257583678+258489486+258546941+258030195+257749251+258077535
4347+258753553+259244346+259021318+257941412+256710788+256461432+257433568
4337+258465239+258213975+256667726+255111448+254746865+255609495+256721482
4327+257175397+257001443+256783589+256677495+256374065+255902549+255733942
4317+256017256+256407099+256713129+257089360+257530154+257783816+257801966
4307+257722749+257452122+256848183+256322969+256597122+257679022+258601592
4297+258467897+257545298+256987224+257494519+258592200+259387607+259598264
4287+259457720+259132124+258724536+258439950+258272904+257834826+256925839
4277+256055839+255941536+256627583+257475300+257886992+257760493+257338571
4267+256909857+256715152+256874367+257219731+257408569+257429868+257737748
4257+258568154+259457229+259742855+259305557+258746848+258935830+260135501
4247+261529241+262135868+262071188+262057720+262070436+261536177+260486934
4237+259520521+258907565+258425673+257935545+257687143+257982249+258723640
4227+259510348+260119548+260533898+260625224+260339454+259920075+259502487
4217+259038110+258761847+259123916+260308385+261988878+263217653+262885554
4207+261102318+259544625+259532544+260481530+260977814+260615369+260015765
4197+259748375+259925623+260385868+260739729+260539649+259790339+259056404
4187+258881121+259385873+260401648+261491467+261948331+261467422+260751463
4177+260768457+261585568+262380282+262415627+261806515+261346299+261594296
4167+262172658+262191444+261385141+260404827+259971749+260208793+260810421
4157+261454532+261951972+262174797+261991537+261545656+261350634+261615220
4147+261800474+261222170+259900104+258680809+258562056+259747566+261318409
4137+262132111+261996248+261530570+261179888+260960069+260898973+261137404
4127+261637156+262118383+262288146+262078442+261721026+261561349+261723165
4117+261943967+261817988+261288728+260796606+260676494+260579619+259996170
4107+259161140+258848376+259465379+260821201+262464903+263789194+264160540
4097+263408773+262015380+260624011+259552977+258786586+258211114+257861559
4087+257948464+258518763+259277581+259962270+260594272+261140265+261380373
4077+261274914+260957381+260420116+259711498+259227699+259366885+260083075
4067+260958999+261571840+261877726+262219998+262702352+262905698+262616199
4057+262241876+262041825+261634700+260711956+259703868+259358186+259873660
4047+260661148+261005241+260845593+260616641+260509997+260419827+260345176
4037+260280669+260033828+259704619+260001979+261490456+263644083+265196286
4027+265545205+265200881+264714250+264071439+263344440+262915206+262815152
4017+262656226+262240460+261649872+261018737+260654645+260892846+261545425
4007+261994312+261961394+261766256+261874518+262500278+263529925+264556481
3997+265065106+264937220+264787745+265344778+266425089+267053132+266678838
3987+265709275+264821443+264316171+264110802+264002366+263976009+264339783
3977+265359518+266748662+267780564+267955125+267373121+266458816+265550870
3967+264869216+264678153+265213887+266387634+267690625+268534441+268695967
3957+268375458+267911976+267568635+267555543+268017059+268779028+269245631
3947+268982201+268431121+268454906+269138583+269615388+269240487+268362568
3937+267707272+267745450+268734926+270612580+272552139+273370176+272830049
3927+271858405+271385069+271489054+271737774+272014296+272679418+273996716
3917+275399241+275473025+273420376+270302330+268011308+267432975+268203556
3907+269971705+272906145+276745468+280136887+281653860+281067607+279037704
3897+276381347+273945099+272571243+272765427+273972468+274863305+275299013
3887+276444380+278645896+280607681+281454386+281775619+281386210+279324111
3878+276632466+275712237+277367731+280471529+283866098+286669964+287402252
3868+285864413+283919478+282691484+281429734+279397519+277223602+275905409
3858+276181498+279049033+285369112+292458240+293962178+289662235+284311199
3848+280834089+279993308+281446121+284276113+287410951+290172767+292240993
3838+293052873+292268015+290662375+289238116+288048560+286623001+285040654
3828+283879190+283522034+284358827+287082609+291299608+294152952+293703372
3818+291944066+290823930+289506575+286893685+284152823+283394784+285710748
3808+289887834+293091224+294747961+297105628+300564791+302137686+300617188
3798+298298277+296523625+294884286+293456328+293122177+294275260+296502989
3788+299259458+302349384+305792189+309615299+313864550+318329141+322173406
3778+324638787+326275380+328500624+332351131+338087761+345076141+351827072
3768+357294405+361892749+366398350+371126343+376355764+381996501+386564008
3758+388434495+388739861+390702888+396399721+404378329+409839332+410759012
3748+410895597+413640910+418989634+423914846+426219191+427833733+431987872
3738+439969947+449501739+456260329+458765708+458889375+458234108+457879177
3728+459534556+464166743+469927100+473384441+473142831+470761378+468274987
3718+466244737+464492107+463671325+464859234+467407010+468734018+467558075
3708+465134572+463188076+462657140+463427865+464504130+465147635+465807006
3698+467274038+469616330+472359360+475450326+479499151+484187926+486787666
3688+484936802+480647581+477618520+477585111+480145170+483453991+486189362
3678+489303362+493612930+496460118+495570668+492896248+490524304+488252530
3668+485769607+483586385+481622491+479605564+477876893+477285872+478568806
3658+481097479+482723870+482652832+482990133+485551406+489383128+491282025
3648+488947189+483376797+476907850+471307112+467625413+466222483+466554842
3638+467444495+468145194+468923058+470476012+473482791+478294625+483149723
3628+483907906+479797089+474631914+471908999+473232221+478149312+483464973
3618+485194655+483126805+480306263+479018936+479578628+481254584+483252350
3608+485096393+486565245+487523190+488101090+488717601+489473877+490196916
3598+491269193+493049596+494570528+494939244+495809966+499886883+507078377
3588+513110893+513631396+509760485+505595190+503367981+503132555+504274771
3578+506113265+507393280+506710413+504333440+502637832+503992353+508509948
3568+513468743+515187298+512782176+508745663+505793507+505006828+505924659
3558+507549402+509453501+511759782+514062133+515146201+514368019+512557906
3548+510907961+509982847+510266190+512049252+514248717+514919908+513581513
3538+511730477+510719123+510411619+510299079+510597740+511599556+512714144
3528+512666631+510843801+508150307+506243839+505952403+506415162+506019222
3518+504422859+503128046+503454336+504705393+505237572+504612043+503533813
3508+502563846+502281138+503526588+506194650+508785315+510132438+510438092
3498+510161454+509273911+507838988+506481981+505895700+506107254+506361985
3488+505894139+504856544+504123158+504277257+505168557+506190488+506564059
3478+505548717+502889153+499325052+496407114+495342294+495920656+496694561
3468+496445379+495465700+494882367+494826473+494108636+492002001+489580636
3458+488583560+489505090+491188849+492030555+491544386+490750597+490676380
3448+490679559+489136605+485927521+482854878+481344841+481318917+482022246
3438+482512288+481869390+480164042+478480572+477452196+476912879+476957299
3428+478118186+480570358+483696555+486083932+486311150+484536151+482517692
3418+481540933+481172766+480273576+478281706+475360416+472345632+470595199
3408+471076744+473478022+476344863+478115295+478247863+477373442+476278912
3398+475190248+474342560+474495936+476035683+477975618+478775909+478119631
3388+477106745+476777392+477175789+477784555+478301012+478795360+479402680
3378+480179706+481209412+482568413+484046890+485013563+484893509+483995736
3368+483639476+484968998+487543132+489668726+490415291+490541009+491023363
3358+491694265+491997666+492288292+493508598+495764823+497872152+498462306
3348+497155471+494617694+492170839+491499474+493525245+496840337+498385661
3338+496681556+493388024+491049547+490559505+491099834+491516294+491441384
3328+491328093+491525427+491743397+491608777+491100470+490356738+489568903
3318+488887538+488261027+487693300+487623418+488444200+489689592+490379800
3308+489940971+488430154+486490103+485240896+485363725+486124855+486072718
3298+484879001+483801840+484263646+486485768+489281109+491028507+491228038
3288+490901691+491234396+492164423+492518458+491496411+489908255+489477634
3278+490688981+491883219+491185901+488878405+486914367+486546980+487298978
3268+487959072+487924564+487520705+487328052+487503075+487840232+488084559
3258+487927743+487216438+486384500+486150750+486655820+487311059+487476487
3248+486907430+485695679+484208937+483058628+482701212+482994671+483548120
3238+484484505+486131849+487808036+488068953+486639347+484724931+483133308
3228+481693529+480598450+480572901+481497784+482308422+482250996+481319929
3218+479948009+478906627+478883160+479781743+480673447+480605299+479469817
3208+478090672+477416995+477540719+477605399+476771063+475091003+473387014
3198+472395746+472024949+471584675+470766841+469921406+469402291+469206546
3188+469214754+469330877+469315733+468778323+467463222+465610509+463895682
3178+462791066+462251633+461986006+461587551+460712320+459624524+459163007
3168+459537475+459671170+458513867+456537257+455108749+454839885+455258398
3158+455730983+456020077+455978634+455355995+454227623+453071910+452088156
3148+451065416+450117904+449678959+449621215+449338999+448736014+448204731
3138+447790294+447213087+446489441+445924373+445770650+446010468+446027607
3128+444891720+442734595+441106788+441083898+441864219+442000313+441243344
3118+440324877+439665737+439201215+438850158+438507828+438042294+437617598
3108+437596876+437963944+438213242+437948858+437320035+436698235+436126231
3098+435310911+434109940+432763713+431618780+430863718+430556214+430698897
3088+431186974+431799814+432347397+432770476+432992116+432697299+431552482
3078+429914501+428932222+429412379+430770022+431574793+431093797+429774419
3068+428307272+426966160+425913045+425389710+425314770+425237200+424960100
3058+424789556+424944060+425111309+424880045+424316249+423800688+423491449
3048+423223424+422834853+422343135+421831042+421366549+420996937+420720039
3038+420557241+420616458+420852231+420812203+420051506+418871603+418095849
3028+417963021+417863660+417405929+416999960+416920165+416585234+415483508
3018+414137743+413333666+413012318+412748339+412686838+413085264+413524498
3008+413437593+412935616+412454447+412035415+411437111+410604884+409762224
2998+409265651+409338337+409724335+409831991+409390214+408647579+407914627
2988+407293174+406767180+406325980+406119080+406370979+406856281+406838998
2978+405993650+404887560+404097384+403551738+403096146+402944301+403247933
2968+403730373+403935251+403602776+402828756+401964305+401298026+400842608
2958+400453893+400058993+399724957+399571061+399643428+399848277+399964921
2948+399766517+399266302+398782590+398534621+398334455+398001778+397752133
2938+397701788+397417635+396561826+395605875+395272447+395530068+395665093
2928+395166207+394149276+393080410+392410085+392311707+392481441+392388410
2918+391952615+391683144+391951690+392483175+392768426+392668892+392379364
2908+392033653+391622886+391165734+390689738+390127820+389462207+388865059
2898+388503626+388319990+388170140+388049103+388040346+388153811+388256322
2888+388127916+387698393+387228668+387017750+386929198+386534096+385718054
2878+384780599+383995539+383448563+383185364+383206317+383435211+383813522
2868+384219664+384338244+383950251+383276719+382687143+382174530+381451693
2858+380519267+379812788+379682792+379965384+380219884+380213642+380031682
2848+379892005+379962176+380136101+380020238+379419853+378702363+378374136
2838+378469278+378586268+378343270+377696760+376956380+376448940+376108518
2828+375616280+374990116+374687930+374971995+375480880+375664834+375419235
2818+375051819+374789314+374522906+374012143+373227400+372408121+371767882
2808+371280211+370905397+370856236+371336654+372090039+372492309+372133622
2798+371201485+370295388+369834565+369661190+369390476+369030777+368891042
2788+368979449+368926503+368483194+367773825+367087778+366592737+366234165
2778+365905159+365691322+365778140+366059113+366044691+365332779+364098860
2768+362957829+362375536+362387530+362811909+363398046+363718382+363351920
2758+362348225+361193206+360293958+359800882+359784900+360162777+360533892
2748+360518228+360237630+360090612+360087867+359818801+359113651+358286135
2738+357617255+357059586+356544863+356156061+355950837+355926069+356071209
2728+356269930+356344205+356280826+356182679+356030834+355742433+355379729
2718+355079045+354811250+354361034+353600510+352743371+352226626+352294687
2708+352763428+353174802+353123359+352561932+351887591+351587225+351732682
2698+351969004+351978686+351726353+351288824+350748033+350228137+349790204
2688+349387761+349074187+349006068+349111989+349087828+348834542+348565129
2678+348410799+348235978+347910584+347529123+347268062+347136246+346984459
2668+346757443+346571120+346494475+346466528+346461268+346492944+346468089
2658+346268992+345927355+345553582+345199345+344878200+344606677+344384343
2648+344214378+344141924+344205130+344333131+344354575+344176807+343897076
2638+343660032+343503939+343407237+343316489+343071150+342516053+341778881
2628+341268175+341306064+341809891+342374844+342674198+342694775+342548480
2618+342251206+341831133+341445482+341244766+341278088+341545941+341938413
2608+342168232+342007370+341559206+341127313+340893506+340841860+340889228
2598+340973474+341055755+341065205+340853623+340336501+339719759+339381880
2588+339438756+339626958+339693430+339674934+339703054+339751521+339692563
2578+339501009+339310957+339250930+339274976+339267259+339260670+339353499
2568+339470634+339447196+339286767+339099779+338868775+338512256+338130534
2558+337982013+338171111+338485493+338659967+338758143+339079664+339641611
2548+340034112+339935445+339518956+339172927+339010592+338831985+338483528
2538+338092559+337905773+337996868+338221600+338424021+338595952+338815020
2528+339080994+339272635+339285756+339168476+339050648+338982009+338933629
2518+338917531+339003511+339211336+339442571+339592162+339713285+339947150
2508+340281474+340528951+340567476+340468462+340367483+340304075+340217835
2498+340080700+339972438+339951543+339954057+339929578+339916775+339896747
2488+339804958+339744093+339902643+340218528+340386268+340262168+340065585
2478+340113907+340485803+340980006+341311758+341321382+341083471+340848132
2468+340812295+340945440+341072748+341066968+340925528+340749117+340661924
2458+340686981+340740245+340773192+340821427+340902436+340992549+341119221
2448+341354762+341684260+341975926+342123754+342134563+342048409+341902056
2438+341790759+341802637+341899224+341999914+342095460+342160718+342121297
2428+341991128+341872722+341829949+341901276+342140487+342534578+342962512
2418+343268167+343372932+343395937+343610236+344154062+344852796+345399656
2408+345621672+345557252+345369860+345204200+345132787+345235587+345621730
2398+346336995+347303437+348290456+348950954+349098001+348949769+348866448
2388+348908933+348864946+348573106+347984281+346995875+345435175+343209007
2378+340404852+337269465+334093992+331081954+328341958+325990938+324114238
2368+322556775+320928014+318965218+316919159+315595042+315900263+318140564
2358+321755790+325870162+330079097+334622125+339637767+344295358+347142171
2348+347291385+345201773+342618882+341283926+341325601+341687843+341861104
2338+342365335+343753382+345681237+347260115+348114190+348646716+349358455
2328+350340128+351405959+352413036+353421037+354630534+356154154+357852132
2318+359429854+360698598+361710154+362647492+363660580+364821813+366102522
2308+367303638+368147309+368549059+368706221+368876447+369158490+369489172
2298+369774654+369972884+370058488+370004906+369881847+369884535+370149497
2288+370584049+370958170+371136314+371166342+371158047+371147845+371136198
2278+371181544+371307782+371375554+371242553+371007590+370898461+370968545
2268+371080420+371117210+371053426+370877507+370590581+370283683+370124267
2258+370221084+370511392+370805660+370958112+370975423+370939471+370869126
2248+370721010+370516219+370385154+370438476+370641677+370876178+371069351
2238+371199260+371269980+371382491+371706295+372254716+372810275+373163472
2228+373281994+373192806+372894146+372473524+372113998+371859960+371513700
2218+370893547+370132099+369571424+369361662+369331836+369299901+369274555
2208+369253053+369113231+368860349+368714516+368821478+369100775+369433191
2198+369791388+370183976+370621996+371103454+371562600+371924814+372217463
2188+372501124+372721695+372780219+372752676+372919058+373495253+374363374
2178+375164706+375689457+376051959+376424924+376754393+376861817+376766126
2168+376766704+377122878+377719274+378212177+378482370+378678144+378812966
2158+378703172+378405205+378341710+378809787+379608344+380279622+380574988
2148+380613860+380688626+380972056+381378025+381677928+381737001+381635242
2138+381590966+381761451+382084678+382376720+382601192+382885345+383245940
2128+383528936+383670521+383790979+384014613+384401248+384991893+385714817
2118+386364651+386863131+387375282+388019018+388690296+389311778+389975195
2108+390696616+391324399+391821290+392358093+393033099+393751717+394420250
2098+395017657+395483076+395761823+395956383+396255449+396695058+397110189
2088+397365383+397542545+397820339+398260208+398816115+399421384+399930355
2078+400157284+400144741+400197774+400509295+400959772+401385480+401832286
2068+402419579+403098198+403664017+403967475+404046259+404076893+404251367
2058+404651412+405185585+405708400+406221013+406837986+407566575+408295741
2048+408988493+409683672+410344691+410904354+411404222+411934406+412530629
2038+413230722+414078063+414999911+415859912+416668873+417582051+418686436
2028+419925123+421200485+422445791+423621734+424725483+425826054+427057487
2018+428501918+430088802+431722649+433427679+435187476+436827971+438294569
2008+439795935+441417153+442919386+444189720+445516554+447176065+449078748
1998+450976112+452774781+454583478+456558007+458630713+460389412+461459434
1988+461994069+462558732+463586877+465053563+466591402+467897688+469084180
1978+470535952+472369071+474227419+475739536+477019754+478593488+480877776
1968+483764732+486716512+489338679+491752125+494236088+496743693+499034772
1958+501083953+503069031+505124512+507302994+509575462+511801977+513926820
1948+516154491+518747584+521722919+524733281+527182332+528806382+530199920
1938+532185865+534754855+537196623+539194534+541211981+543726406+546548335
1928+549158306+551568515+554343740+557583574+560589891+562990157+565266556
1918+567657401+569581268+570742963+571881942+573899563+576791201+579599026
1908+581418735+582355871+583165324+584140898+584893474+585248781+585851015
1898+587448707+589874349+592263114+594208945+596038595+597848939+599056645
1888+599217737+598742320+598448977+598834744+599752806+600593299+600958373
1878+601089814+601463212+602268330+603545166+605466894+608047443+610520367
1868+611467098+610283554+607981203+605969131+604865411+604489990+604414790
1858+604376294+604292424+604055091+603531351+602838253+602288560+601973310
1848+601842159+602035447+602384800+601904064+600022335+597639524+595744154
1838+594356281+593086207+591889600+591221472+591551577+592512701+592896387
1828+592258143+591408286+590587216+589041776+586678213+584334880+582449625
1818+580858175+579551340+578766742+578527675+578486520+578150231+577303958
1808+576273761+575696035+576135616+577751863+579858093+581000425+580317326
1798+578765759+578219650+579747634+582729616+584784750+583872584+581257295
1788+579816187+580653558+582749037+584657066+585930145+586722489+587179352
1778+587867191+589781578+593488044+598370714+602370523+603488983+602176483
1768+600319782+599201784+599544432+601591473+604360688+606114271+606624254
1758+607167126+608214317+609380809+611010524+613957709+617887174+620814070
1748+621339486+620497838+620306342+621793980+624624348+627588585+629366849
1738+630138789+632016934+636383032+640699073+640742251+637458314+634418415
1728+633244581+634003689+635935243+637886045+639627722+642486008+647690748
1718+654003023+657388922+655850303+652210308+649610684+649101395+650599437
1708+653631822+657013906+659314118+661037413+664452849+670089829+674741986
1698+675949923+675173301+673310473+670383750+667836031+667032821+667989494
1688+670520566+675226478+681832559+686599106+686251198+683357479+681265353
1678+680995362+682288613+684289587+686454082+689383175+693395353+696556924
1668+696391901+694173478+693236977+694610746+696344157+696334735+695245350
1658+695104025+697337650+702821687+710502472+714903366+714283849+714086167
1648+716484007+718478333+716646834+712690838+709840239+708958072+710028210
1638+713134985+716974973+717915982+714705164+711080660+709984512+711360304
1628+713683348+715769522+717609287+719216979+719921464+719933429+720843110
1618+723343085+725417755+724613216+722151332+720545432+720387114+721013162
1608+721765680+722224336+722148269+721845851+722176649+723726193+726120333
1598+728503780+730602034+732756933+734955935+736776279+738392468+740499681
1588+743166182+745704363+747625455+749039975+750399120+752478878+756294820
1578+762217455+768313148+770753240+769422244+768117432+768317368+768160899
1568+766411824+764797832+764645351+765571794+768074485+774107348+782924338
1558+786748026+781943330+774730796+768944514+765277816+763740179+763704573
1548+764578417+766813487+771074328+776770901+782536894+786917269+787473551
1538+784022914+780632622+780192984+782092342+783520908+783452875+784181810
1528+787798569+793896458+800524792+806924521+813813598+820791516+826041920
1518+828988411+830483795+831808606+834504759+839409220+846038653+853635914
1508+861578540+867130031+866951771+863715521+862048004+863522984+867558283
1498+872343615+876055457+878908483+882773326+888683360+895750466+901246237
1488+902714454+901041619+899525831+900431986+903705403+907975203+911928656
1478+915187738+918462600+923535148+931396389+938542278+939692009+936656387
1468+935698731+939100063+943802970+946142719+946594727+947618739+950414715
1458+953586401+952473086+945662272+938614472+935443422+936096059+938300783
1448+939205493+937248911+933526780+930360527+928939419+929304956+931547540
1438+934965172+936486046+933908328+930139321+928901616+930292379+932122665
1428+933452910+935598677+939256994+943110508+946147343+949084759+951635484
1418+950972269+945821227+938406618+931429972+926932722+925799234+927322420
1408+930256196+933517301+935908551+936462463+935365794+933908155+933494411
1398+934921358+937677972+939970554+940571343+940597701+942274061+945907813
1388+948969388+948949388+947086271+946394965+947783069+950743606+954767865
1378+958509475+960130923+959786195+959682962+961516484+965570280+970856925
1368+974514260+974500156+973444122+975527983+980728504+984758658+985391932
1358+984920965+985148356+985136912+984484795+985105237+988483043+993658362
1348+998386297+1001428508+1003700340+1007124388+1012474499+1018410255
1340+1022491737+1023473670+1022738781+1023205355+1026440970+1030738284
1331+1032698103+1031190985+1028913027+1029776928+1035781700+1045261500
1322+1053372443+1055947387+1052855466+1047009881+1041735605+1039430595
1314+1041308336+1046989072+1053726767+1057953447+1058706023+1057956799
1305+1058147545+1060783873+1065893645+1071323406+1073741823+1071782004
1297+1067430935+1063811980+1063048884+1064890095+1066325885+1064213932
1288+1058453199+1051648686+1045468082+1038997546+1031493172+1025551404
1280+1025131072+1029987904+1035465988+1038550740+1039985606+1040054505
1271+1037574935+1032700993+1027346836+1023494479+1022157991+1022541216
1263+1022264346+1020546831+1019413112+1019540159+1018117895+1013308344
1254+1007746217+1005161447+1005263178+1003326017+995891583+985353668+976125882
1244+969521362+964742331+961757806+959970409+956243596+947896013+936731240
1234+927078845+920872231+916313654+910510437+902661739+894632006+888970692
1224+886757066+886795215+886657011+884852332+881726251+878242436+875100113
1214+873195147+873407915+875318256+877067793+877243336+876460992+876492205
1204+878225211+880852523+882899969+883752310+883999643+884605172+885967266
1194+887829284+890266198+893994686+898881691+903305185+906474039+909892827
1184+914719487+919935730+924654417+929809101+935541338+938975038+937681440
1174+934292940+934389526+940587528+950104032+957579274+960525477+961271406
1164+963571849+969174842+976867476+983427258+986066707+985107202+984222607
1154+987279153+994300190+1000549231+1001431861+998861310+998593920+1001932653
1144+1004217895+1002197269+999587760+1002005945+1009293333+1015134757
1135+1015149207+1012358664+1011090036+1011864808+1014182650+1018664928
1127+1024180236+1026593913+1023563378+1018690361+1016803141+1018610826
1118+1022362956+1027032627+1032340080+1038110986+1044390083+1050174053
1110+1052589579+1050606061+1047400388+1046495909+1047739799+1048145450
1101+1047904186+1050689411+1056459971+1060848033+1061838635+1061382697
1093+1061212182+1061057274+1058842435+1054430327+1051121304+1052111098
1084+1056893945+1058403259+1051066162+1039810814+1034250074+1037812730
1075+1043992524+1046145748+1046063438+1047433566+1048383130+1045070754
1067+1038206706+1032016045+1029065276+1028566448+1027510530+1022899932
1058+1015218222+1008952073+1007594314+1009561879+1010361390+1008203543
1050+1004471644+1000342417+998307687+1001540412+1010540690+1022315790
1041+1031676403+1034023955+1028407957+1018406209+1009876435+1007656046
1033+1012596922+1019993555+1023209286+1020260135+1014405648+1009078774
1024+1006043499+1006509148+1011066684+1018582157+1024981712+1025429790
1015+1020593766+1015993919+1015140421+1015949181+1014225654+1010183708
1007+1007525299+1007073522+1005195319+998459243+988022827+977194286+967984593
997+961176727+956415614+951914029+946393577+941069073+937866925+937059379
987+937558496+937832822+936343103+932430516+926995032+921491805+916567981
977+912182751+908689226+906550800+904983684+902733008+900261183+899030010
967+898544650+896282876+891682971+887825759+887494845+889812571+891625690
957+890972706+888371752+885564793+883918374+883361745+882496225+880363868
947+878030247+877719390+880609756+886039228+892761664+900354070+908528942
937+915242649+917728578+916823695+917547775+923617284+933366554+942471511
927+949541681+956152790+962304551+965944429+966740414+966766945+967072426
917+966010843+962464661+958377398+956782942+959175291+963466708+965208847
907+962346341+956914672+952467364+951497685+954279037+958464505+960722522
897+960395250+960269474+962868231+967387040+971272980+973796133+975605668
887+975968431+973457647+969123977+966799199+969473618+976164263+982474226
877+984801778+983694879+982051234+981281433+980261120+978382801+977273127
867+977765134+978213327+978291591+980975201+988071612+997191424+1004331533
857+1007548420+1007456631+1005690331+1003634793+1001970571+1001089907
848+1001210943+1002783723+1006011014+1010490172+1014659397+1016386970
840+1016439569+1018343667+1021514429+1019717610+1010368210+999567876+994918898
830+998002379+1005639235+1013882082+1019100521+1018951046+1015217298+1013663130
820+1018544470+1028324376+1038328782+1046407357+1053822139+1061521767
811+1066226813+1061126289+1045925292+1029988135+1022032562+1024428320
803+1033076934+1041300244+1047144674+1054909964+1065429614+1068239232
794+1057322485+1044182114+1040692288+1045398374+1048530755+1045046131
785+1038401150+1032955088+1029590345+1028208426+1027357125+1023281769
777+1013949941+1002272526+992130783+984623865+979569351+976359632+974326636
767+972974889+973218118+977771608+987397761+998931597+1008294522+1014254671
757+1018654640+1022992761+1025756022+1023493438+1017049260+1013933178
748+1019408025+1028506797+1032949193+1033169995+1032618337+1029915190
740+1022383764+1012989973+1008794390+1012960494+1023556673+1036652653
731+1046860059+1048447174+1038960322+1024038391+1014273398+1016236570
723+1026151616+1030400838+1021240334+1009809154+1011134659+1026022718
714+1041136435+1045875930+1043483062+1040145485+1035657195+1027405215
706+1020698387+1023496906+1031669004+1032306208+1024468666+1020404524
697+1026052081+1032379616+1025918329+1008834042+995997591+997710597+1012725704
687+1029554624+1036576008+1033931703+1029878544+1030437600+1033592524
678+1032685155+1023915158+1009334719+994811387+985670767+981281896+976940422
668+974499116+982760921+998025962+1008413940+1009124899+1001126900+989373302
658+979181966+973420076+971713081+969752915+963026203+952499443+945774638
648+948909968+958901080+966882953+967756103+963907676+961622435+966829776
638+980515563+996098859+1005587445+1005525250+993736857+976663090+964090214
628+958037178+956940452+959151881+967632234+983799268+994385621+982212500
618+956039499+939689061+942391341+956032794+969139756+979597212+986629348
608+978223732+949541970+920255719+909986639+916065917+922826270+924053107
##END=
