##TITLE=<SNM>
##JCAMP-DX=4.24
##DATA TYPE=INFRARED SPECTRUM
##DATE=29/4/2025
##SAMPLING PROCEDURE=Instrument type and / or accessory
##ORIGIN=Admin
##XUNITS=1/CM
##YUNITS=ABSORBANCE
##RESOLUTION=4
##FIRSTX=4497.3318
##LASTX=599.83466
##DELTAX=-1.4281778
##MAXY=2.2150738
##MINY=0.52526438
##XFACTOR=1
##YFACTOR=2.0629483e-09
##NPOINTS=2730
##FIRSTY=0.53497279
##XYDATA=(X++(Y..Y))
4497+259324384+257676533+256403597+255608463+255395666+255833423+256516741
4487+256820031+256668632+256588974+257027742+258023537+259306471+260411452
4477+260910982+260756434+260334510+260157830+260482124+261099047+261540791
4467+261578669+261389478+261114591+260552190+259584681+258590995+258152660
4457+258533440+259479279+260331910+260438352+259761534+258992318+258863108
4447+259541399+260706189+261804988+262311394+262202092+262021512+262215701
4437+262719565+263151977+262967582+261888228+260607058+260254448+260894080
4427+261378990+260933952+260032464+259439580+259346603+259557695+259766995
4417+259737727+259704153+260291864+261667111+263061282+263369021+262121337
4407+259957140+258299320+258376002+260267479+262794369+264348780+264004925
4397+262138817+260077392+258975011+259032248+259789965+260728957+261337038
4387+261097978+259905595+258298685+256991684+256238185+255818341+255553075
4377+255546719+255868933+256263899+256337259+256006550+255683902+255885257
4367+256713907+257863875+258863686+259137505+258299349+256722661+255392026
4357+254973165+255398325+256199092+256862908+257149295+257292921+257658302
4347+258234398+258665423+258634854+258182333+257659660+257252991+256760049
4337+256073293+255488962+255207371+254981804+254629483+254618302+255730073
4327+257925244+259810710+259932754+258435753+256664095+255566828+255202344
4317+255306647+255659026+256110131+256623212+257229790+257910306+258448697
4307+258465455+257917991+257357757+257197546+257168855+257048054+257132277
4297+257414503+257223521+256219144+255069350+254742628+255482374+256587818
4287+257005581+256329313+255317973+255070679+255716031+256378315+256480019
4277+256438008+256833639+257599996+258265111+258509777+258430928+258468546
4267+258913295+259485289+259641687+259246460+258627342+258081785+257627531
4257+257141291+256625899+256268407+256142202+256135441+256433154+257480986
4247+259029127+260018422+259965894+259584594+259580954+259829520+260016544
4237+260059739+259764973+259044383+258361614+258141334+258184702+258312553
4227+258840688+259854512+260898269+261700858+262262941+262238786+261310398
4217+260101055+259696670+260343814+261270584+261610105+261080093+259843301
4207+258249422+256873627+256371208+257064696+258726271+260617459+261721343
4197+261383700+259944687+258497902+257978811+258532573+259484278+259872137
4187+259383413+258773887+259018235+260154565+261313230+261732322+261370409
4177+260599228+259725476+259035917+258991682+259926311+261450991+262483712
4167+262278919+261254231+260388714+260029748+259788492+259460903+259398321
4157+259867889+260589288+261119994+261379973+261624580+262039627+262484376
4147+262670505+262521417+262222606+261994872+261952920+262066238+262195707
4137+262254446+262167594+261735934+260921673+260236563+260328443+261062901
4127+261497249+260961256+259772687+258734390+258388629+258910811+260182678
4117+261608834+262366118+262202179+261627238+261233370+261273820+261741828
4107+262278341+262293625+261674247+260965879+260600846+260504516+260541875
4097+260698850+260833174+260763484+260483656+260085280+259723251+259651308
4087+260027118+260725085+261502797+262221220+262803557+263123055+263013377
4077+262454443+261794644+261568499+261908540+262300791+262120470+261315744
4067+260363923+259682917+259412681+259689591+260631068+261872279+262556898
4057+262191691+261280408+260727599+260847302+261312883+261751623+262012584
4047+262121481+262309343+262859002+263626370+263995997+263635731+262969865
4037+262556638+262434478+262489635+262911761+263750205+264515984+264725140
4027+264410207+263910763+263604816+263731569+264117261+264371866+264463081
4017+264573076+264466519+263763843+262739559+262145896+262331995+262976077
4007+263521344+263664133+263569220+263629779+263905042+263992386+263740237
3997+263734979+264487091+265459887+265705448+265208432+264689833+264440284
3987+264289405+264323123+264667238+264853771+264351670+263593548+263678059
3977+265029353+266831002+267863433+267617497+266499744+265298289+264636554
3967+264726469+265472687+266689860+268033670+268907855+268922100+268439154
3957+268236066+268622855+269169799+269344341+269243187+269338562+269551012
3947+269344283+268960209+269392968+270688181+271444598+270718345+269374881
3937+268799449+269409032+270759748+272186135+272971705+272527245+270970407
3927+269313050+268716064+269465345+270813258+272010553+273056940+274164262
3917+275005826+274882454+273560688+271666871+270282148+270267326+271845256
3907+274780288+278684447+282754307+285645739+286403976+285109226+282399877
3897+279202353+276639058+275597612+276282374+277764871+278395200+277988849
3887+278214619+279946433+281743083+282163013+281927969+281691393+280790887
3878+279419686+279044135+280225654+282241573+284687245+287311099+288555547
3868+287439788+285608872+284975192+285239851+284710330+282845753+280760087
3858+280206354+283036128+290254134+298237485+299173675+293241462+286491580
3848+282200082+281049796+282572801+285574807+288708391+291332101+293275440
3838+293911374+292763486+290789087+289408698+288890243+288396116+287424966
3828+286441480+286024728+286557427+288724947+292610441+295921572+296368083
3818+295059320+293797680+292367191+290062256+287498586+285952495+286487679
3808+289084664+292087536+294272767+296531213+299304155+300775066+300085883
3798+298768075+297509961+295893199+294550717+294854815+296986190+299918795
3788+302929150+305840808+308139039+309551615+311171816+314267434+318324957
3778+321826637+324690765+328195306+333332153+340256549+348187171+355520170
3768+361259696+365590083+368514569+370245805+372514103+377098200+383007962
3758+386805101+387165165+386780427+389363803+396426740+405100979+410566686
3748+412866073+415656611+420681787+425379260+427159989+428445119+432723239
3738+441032300+451216946+459020786+462078988+462106639+462035533+463356576
3728+466295162+470184296+473470666+474843630+474265367+472424308+470144540
3718+468200507+467187838+467714643+470039340+472776802+473390170+471472315
3708+468707173+466443383+465601644+466825145+469365210+470867874+470021311
3698+468260951+467969334+470273980+474506767+479279217+483542226+486245854
3688+486503348+485138792+483857679+483682530+484797104+486686991+489001316
3678+492335041+496378840+497940330+495389199+491961571+490455267+489736352
3668+487551353+483999688+480804302+479280603+479295079+479824022+480596215
3658+482028149+483433068+483761985+484334268+487805206+494268095+498781404
3648+496581148+490228746+484491763+480882255+478598961+476412690+473785686
3638+471597941+471492684+473941737+478052220+483632343+490794528+495778098
3628+493113302+485648290+480382754+480439326+485762359+494378004+501838913
3618+503756364+501247301+498921419+499038666+501010783+503879968+506954350
3608+508773912+508247252+506531069+505662836+506210126+507319384+508458054
3598+509773261+510856111+510793818+509676759+508807948+509343565+511568437
3588+514944693+518035082+519149021+517899517+515609404+514437564+516024423
3578+520315198+525354358+528384477+528319178+527259154+528435501+532867159
3568+537968728+539470294+536193430+531435224+528798801+529104720+530994318
3558+533053692+534718965+535793783+536154020+536111432+536468722+537639695
3548+539064290+539924318+540319804+540817398+541158451+540554935+538765942
3538+535948475+532278378+528689586+526950346+528156627+531595580+535424531
3528+538293138+539808977+539663068+537558564+534291465+531612801+530368555
3518+529719735+528642317+527272965+526088470+524801578+523248409+522600687
3508+524157497+527247250+529802022+530925611+531384546+531644756+531213442
3498+530009647+529078138+529609595+531674342+534079275+535505547+535763098
3488+535312484+534157402+532438330+531064470+530634254+530456678+529398041
3478+527515435+526046228+525708932+525838777+525653573+525334480+524928476
3468+523911156+522772716+522809930+523886654+524507795+524100809+523436271
3458+523140234+523066673+522343887+519720292+515138334+510730080+508758310
3448+508895262+508972580+508345545+508453374+509819548+510934931+510748167
3438+510148407+510222662+510670560+510399949+508903815+506935107+505766792
3428+505825387+506574061+507361625+507615710+506797982+505094454+503411960
3418+502242374+501409737+500825637+500484585+500143070+500070144+501375701
3408+504254016+506513502+505646367+502282419+499406762+498466586+498487447
3398+498600707+499213122+500440899+501344785+501302139+500837368+500827775
3388+501567897+502491893+502629770+501750327+500903937+500897234+500985242
3378+500226860+499195439+498987064+499401331+499706787+500267194+501673992
3368+503091075+503097027+501793146+500825579+501517392+503524642+505045336
3358+504576230+502731127+501492313+501811695+503159956+504967325+506992142
3348+508571777+509169283+509296412+509526920+509457692+508747908+508073200
3338+508048179+508205010+507813915+506959031+506292933+506268721+506803298
3328+507298003+507123489+506366725+505762979+505866242+506682814+507823219
3318+508649788+508846376+508910807+509360034+509664335+508919590+507477428
3308+506797924+507770865+509893745+511818708+512379173+511535153+510491944
3298+510407981+510994335+511122273+510897486+511768434+514044967+515730928
3288+514862233+512119079+509883517+509568988+510877145+512854809+514618319
3278+515281412+514323495+512386281+510985147+511104648+512346351+513435962
3268+513559912+513213486+513372571+514007580+514110554+513172574+511793051
3258+510683967+509968809+509690685+510211798+511622178+513229782+514219538
3248+514459754+514213124+513640581+512939870+512555883+512797312+513268209
3238+513268383+512871105+512929642+513783544+514582376+514179955+512333176
3228+510013419+508769925+509392105+510923778+511651880+511200861+510479636
3218+509940262+509427066+509078039+508789283+507587568+505038344+502527836
3208+501739983+502509691+503193587+502767012+501593843+500345321+499402660
3198+499276109+500238301+501380382+501298326+500023453+499084375+499259351
3188+499465068+498439427+496547748+495211392+495188913+495974454+496522900
3178+496083150+494562341+492463962+490484391+489081754+488333022+488026237
3168+487828494+487519859+487079993+486454577+485455632+484043143+482522478
3158+481436739+481286091+482116677+483256446+483824596+483636157+483009180
3148+481816537+479856266+477944305+477215047+477537810+477797673+477412675
3138+476666659+476009200+475660549+475565520+475484880+475225306+474734964
3128+473916369+472645917+471016182+469415079+468411194+468348872+468884229
3118+469164346+468568401+467133808+465409478+464051249+463369578+463242478
3108+463434645+463742846+463921202+463849432+463683298+463496245+463067936
3098+462334488+461701444+461625080+462010974+462306693+462156739+461648223
3088+460940115+460099013+459388073+459181777+459369841+459288565+458494703
3078+457330664+456464512+456110573+456036723+456069516+456096242+455869375
3068+455427804+455303246+455712919+456104939+455982751+455482238+454813598
3058+453982926+453302815+453280798+453749528+453863627+453077912+451598622
3048+450034098+449018251+448829436+449101752+449229777+449131281+449176411
3038+449403741+449359506+448704763+447583312+446399915+445473492+444847642
3028+444320403+443770224+443349398+443065121+442427338+441082574+439478264
3018+438324540+437788316+437643562+437710594+437818625+437878375+438095621
3008+438593793+438961774+438689285+437837058+436828695+435941364+435337992
2998+435106878+434996593+434522431+433560932+432597063+432243471+432629019
2988+433246519+433349724+432626014+431445419+430288142+429208008+428210421
2978+427736924+428151306+428993882+429325111+428737428+427653047+426672854
2968+425947786+425261521+424521833+423910198+423573942+423448980+423388045
2958+423198796+422646941+421758772+420996085+420795308+421054420+421321968
2948+421354184+421217434+420926106+420292195+419223272+417975761+416943878
2938+416327679+416144440+416338976+416685547+416805539+416506353+415979519
2928+415551759+415332750+415117296+414675147+414144210+413887583+413967876
2918+414121009+414127539+413834940+413126138+412197057+411421657+410822129
2908+410168368+409458584+408806499+408220492+407875135+408036473+408532970
2898+408861598+408780698+408402865+407959127+407706603+407703713+407624344
2888+407149171+406411072+405774358+405381876+405133802+404970268+405043020
2878+405567456+406446581+407130737+407038858+406121796+404804653+403459716
2868+402271002+401471708+401302077+401616779+401810102+401439868+400803299
2858+400550832+400770621+400874491+400503332+400021976+399772601+399376998
2848+398317176+396838378+395702654+395323752+395521727+395898953+396225876
2838+396465428+396499001+396064509+395193098+394471613+394465978+395002318
2828+395363653+395098272+394345177+393511471+392948319+392807263+392934884
2818+392981979+392742543+392314003+391854808+391372498+390910760+390697501
2808+390817493+390923444+390567078+389711182+388661617+387629273+386635847
2798+385782927+385352653+385467272+385675041+385233008+384057672+382985021
2788+382764539+383205937+383607375+383605844+383256586+382646858+381861028
2778+381153122+380783639+380701496+380632124+380468215+380298902+380119448
2768+379851726+379575452+379426711+379373606+379308047+379163005+378808922
2758+378114220+377209784+376421094+375889030+375491868+375149169+374967981
2748+375032990+375215016+375248589+374952639+374409827+373958577+373884900
2738+374073571+374098448+373689584+372967318+372212490+371579879+371076102
2728+370677928+370367387+370073950+369697822+369226549+368746637+368374236
2718+368226477+368308273+368381228+368180162+367786669+367477717+367233225
2708+366767413+365995971+365146259+364523673+364385594+364812718+365513083
2698+365956359+365836453+365271914+364540374+363781645+363032162+362424312
2688+362155723+362214203+362286580+362080746+361653333+361263278+360980416
2678+360685159+360404609+360311689+360392012+360438616+360360489+360213251
2668+359988608+359618663+359118468+358597731+358206463+358048274+358069684
2658+358133017+358174883+358132410+357891154+357498788+357168339+356936416
2648+356618478+356159629+355758075+355631986+355817103+356148447+356420099
2638+356583488+356693137+356752079+356792500+356918242+357073079+357024510
2628+356702701+356249602+355708292+355003160+354238797+353714159+353594282
2618+353723781+353780237+353559495+353129308+352752487+352647085+352742894
2608+352700653+352292222+351678016+351172765+350919287+350928013+351171205
2598+351494112+351688013+351726065+351711561+351627511+351368139+350979991
2588+350669825+350558414+350557172+350534115+350523078+350688490+351091171
2578+351535631+351698096+351449617+350995420+350618772+350393436+350255732
2568+350226868+350368963+350544199+350416348+349864579+349307870+349315844
2558+349888271+350424033+350405282+349841956+349128907+348744920+348952516
2548+349575043+350157554+350385923+350253160+349928982+349632656+349542712
2538+349671285+349797808+349636383+349196632+348887738+349064707+349578828
2528+349978244+349989859+349636816+349129225+348804728+348951938+349543376
2518+350215513+350563673+350453706+350061167+349641930+349314255+349076524
2508+348962281+349088341+349520638+350126089+350647029+350961702+351170511
2498+351364614+351432512+351218242+350798052+350423340+350209012+350070499
2488+349988645+350106153+350456885+350813192+350929429+350802444+350630040
2478+350604672+350761358+350985308+351149102+351192874+351096892+350900507
2468+350755320+350853989+351264962+351825168+352209964+352201556+351894106
2458+351536267+351243495+351012958+350908395+351005359+351217722+351393103
2448+351538607+351745105+351937417+351934585+351746348+351587928+351605090
2438+351781077+352092081+352547607+353036620+353305151+353190706+352811370
2428+352480691+352466678+352808972+353312836+353744844+354067087+354397015
2418+354752138+355028615+355229103+355479778+355799305+356019845+355976159
2408+355741953+355654494+355995979+356668463+357344124+357860788+358254627
2398+358523361+358612235+358577390+358594177+358800935+359147766+359398614
2388+359334732+358908215+358106002+356793569+354875453+352478726+349741871
2378+346548623+342780405+338737560+334924385+331459255+328067339+324624803
2368+321422396+318925843+317354096+316464800+315983444+316198147+317657732
2358+320386468+323909645+328032956+333195287+339601719+346011127+350191214
2348+350696840+348039643+344524932+342513608+342461370+343311371+344192721
2338+345041509+346145133+347434163+348378153+348706088+348901057+349673308
2328+351159041+352848816+354183930+355144129+356267804+358064801+360466180
2318+362908529+364839907+366122002+367079283+368165744+369542060+371034005
2308+372427656+373610995+374496448+375061883+375427985+375710761+375899258
2298+376019222+376246754+376703551+377274273+377739536+377983768+378055336
2288+378132885+378398844+378858647+379340379+379708041+379966026+380154091
2278+380298180+380451543+380606496+380616118+380375122+379966258+379513505
2268+379121284+379018916+379387763+379973250+380259059+380082465+379728122
2258+379439106+379200075+379011750+379031802+379297704+379529021+379424197
2248+379057892+378781589+378813574+379099672+379483023+379862272+380224012
2238+380599446+380976788+381262453+381342804+381167106+380824291+380557494
2228+380578297+380839980+381124431+381312842+381403884+381326075+380942377
2218+380263855+379515557+378949428+378662464+378593149+378597657+378508551
2208+378250190+377938435+377751267+377699982+377655053+377606831+377753029
2198+378249468+378971705+379635462+380105724+380464112+380811029+381159449
2188+381513908+381911446+382356340+382767428+383037115+383190363+383458259
2178+384058567+384879445+385530171+385739588+385593303+385412577+385506335
2168+385967322+386595108+387078949+387310988+387440486+387628955+387871222
2158+388074888+388229812+388462458+388896373+389424564+389705895+389519969
2148+389070250+388796432+388958666+389488822+390097452+390478088+390589066
2138+390730641+391150484+391655417+391871739+391799940+391808839+392129926
2128+392634397+393105410+393504826+393913516+394358612+394776000+395074782
2118+395234473+395417452+395928886+396915060+398144108+399254030+400151503
2108+400947243+401591989+401913799+402023159+402334913+403082634+404051559
2098+404878619+405437871+405873634+406378654+406966308+407435587+407616659
2088+407614752+407702991+408044939+408615603+409285111+409912868+410434530
2078+410856078+411161794+411326830+411376989+411341479+411271905+411345004
2068+411735290+412390582+413104671+413707638+414087147+414233980+414332419
2058+414598349+415055811+415585217+416053398+416383789+416690198+417265948
2048+418256311+419460223+420575721+421465913+422111583+422520216+422769476
2038+422999232+423348115+423970613+424983975+426283609+427577839+428697383
2028+429670786+430501949+431195582+431994559+433230772+434915288+436708384
2018+438268025+439533074+440710288+442005010+443426571+444930825+446557208
2008+448259869+449872673+451424369+453177419+455199232+457182386+458803569
1998+460087831+461384806+463051409+465091106+467059727+468440578+469170819
1988+469673065+470403680+471521230+472926179+474426214+475813306+476944031
1978+477902006+479018342+480582895+482565962+484753649+487080109+489603156
1968+492165440+494381818+496088119+497554031+499180762+501182176+503576476
1958+506307148+509205573+511914864+514125232+515958200+517898419+520278157
1948+523048586+526073503+529324017+532619951+535485726+537631200+539360096
1938+541163247+543183326+545219758+547004475+548484950+550043839+552254901
1928+555211111+558445792+561622166+564769648+567832935+570621855+573116587
1918+575289857+576943284+578107554+579176189+580475157+582053174+583859966
1908+585850285+587900701+589809080+591384728+592514615+593276580+594071252
1898+595400500+597237745+598917754+600072951+601259411+603005874+604749390
1888+605575554+605637963+605807449+606465688+607439785+608476406+609142735
1878+608928638+608085311+607721029+608654444+610671923+612876859+614172938
1868+613790511+612128994+610490186+609654775+609322853+608862415+608180022
1858+607653592+607470758+607390840+607152820+606890299+606962762+607506007
1848+608448495+609734347+610833434+610353291+607674684+604243416+601684657
1838+600159226+598888630+597618727+597158867+598264484+600198173+600867854
1828+599273195+596752343+594752085+593208971+591521565+589752855+588310577
1818+587258642+586326441+585318077+584338895+583588083+583039926+582596997
1808+582448199+582824154+583573348+584405696+585174248+585528706+584981127
1798+583868749+583447606+584666310+587237204+589551297+589885011+588385120
1788+586698813+586091657+586810571+588494625+590616233+592469022+593409488
1778+593703329+594631081+597392264+601993870+606688684+609150362+608936959
1768+607198702+605261893+604651038+606461354+609878233+612482470+613251716
1758+613359371+613690137+614454529+616503154+620568680+625285222+627778105
1748+627417983+626470930+626794069+628350300+630205112+631645367+632448822
1738+633221477+635372268+639498122+643262815+643514588+641462900+639930187
1728+639707711+640440494+641770032+643461251+645701321+649359052+655077601
1718+661607464+665423470+664615046+661483224+658875752+657825262+658324301
1708+660298787+663222175+665717889+667419510+670069744+674926070+680075197
1698+682899251+683352234+681574452+678228591+675787195+675737673+677312396
1688+679580029+683455729+689848697+695566321+696014508+692926315+690646142
1678+691214119+694206735+697391893+699122291+700538161+703041041+705229277
1668+704836044+703159328+703234508+705571311+707751168+707789885+707089462
1658+708211086+712423735+719745380+727525151+729478430+726242247+724892080
1648+727339023+730226988+729194932+724822621+720601073+718450109+718901359
1638+721947715+726531927+729376669+727887006+724313874+722090967+722398156
1628+724359583+726450565+727863892+728243545+727498627+726897770+728521842
1618+732840008+736746449+736147903+732350215+729509172+729281033+730865522
1608+732716866+733790470+734111644+734496209+735398593+736355932+736982562
1598+737782781+739407027+741823401+744544597+747050597+749019767+750721041
1588+752981047+756344705+760354814+763807348+765950800+767646469+770863987
1578+776697067+783255014+785987997+783974910+781105726+780003229+780559302
1568+781472955+781874625+781578299+781007316+781556571+784584031+788529825
1558+788256671+783868584+780286148+778582274+777214482+775114369+772866614
1548+772251772+774713451+779912447+785882827+790869980+794020582+794036935
1538+791327933+789129931+789229034+790475938+790644153+790069299+791391266
1528+795596403+800771187+804636484+807309544+809757990+811740277+813278074
1518+815359638+818145611+821035367+824072824+827866699+832749895+838827583
1508+845956801+852108455+853982798+852479267+851116849+852186235+856441067
1498+862788442+868530452+871644476+872901666+874498636+877530430+881311939
1488+884586434+886848173+888107732+889106908+891499186+895815329+900223987
1478+903286466+906616320+913000967+922537544+931108982+934679225+934607340
1468+934461199+936014773+939383228+943668340+948071046+953143434+959538077
1458+965175148+965543475+960387472+953915048+948600307+945354301+944521548
1448+945194234+946043224+946690426+946843674+945743835+943707865+942422129
1438+942715335+943217321+942625362+942448018+944284973+946610624+946586700
1428+944859249+945346037+949897947+956443817+961771675+963623770+960311888
1418+952869297+946575490+945476287+949033528+954193923+957934461+959160909
1408+959064869+959503926+960975963+961889443+960199495+955913169+951673707
1398+950870484+954630091+960462594+964781164+967438621+970785175+974652206
1388+975767243+972421325+967754826+965736018+967110397+971041976+977234080
1378+984402765+989174955+989515776+987793526+987566427+989473477+992319200
1368+995564802+999224729+1002283452+1002832649+1001014474+999761329+1001603312
1358+1006616237+1012883116+1017580531+1018431948+1015751608+1012117800
1350+1009534193+1008616785+1010225659+1015370914+1022698396+1028377823
1341+1030535780+1031486704+1033786582+1037253851+1040402604+1041601083
1332+1039767652+1036015153+1032964751+1032154131+1033700712+1037446393
1324+1042390323+1046667634+1049872901+1053280188+1056595133+1057393850
1315+1054911830+1051290736+1049041940+1049917165+1054767943+1061873180
1307+1066583076+1065903861+1062329689+1059475297+1057312603+1054576903
1298+1051905346+1050193497+1048943935+1047913729+1048160937+1050887043
1290+1055214166+1057930449+1056506605+1051314428+1044778960+1038398358
1281+1032429770+1028190482+1027355591+1029407568+1032044338+1033613225
1273+1033602939+1031722586+1027927440+1022406115+1015572471+1008968701
1264+1004920337+1004425343+1005845951+1005737198+1002062825+996838172+993131670
1254+991402370+989966853+986829541+981280941+975095540+971129810+969789871
1244+968007003+962973101+955836082+949998668+946459167+942391561+934909098
1234+925015808+915965556+909270136+904237679+900146208+897157175+895187081
1224+892831728+888756379+884280053+882375257+883542301+884746558+883146352
1214+879209399+875272967+872882018+872067353+872161428+872886468+874422359
1204+876848615+880202161+884316227+888010710+889708921+889566306+889198845
1194+889835241+892147601+896057105+900123093+902793495+904673038+907653287
1184+912294881+918004300+924554618+931726656+937674557+939658115+937484961
1174+934608842+934610980+938228377+944260010+952065727+961412883+970906525
1164+979282821+987175563+995178677+1002104431+1007156189+1010688062+1012061748
1154+1011037320+1010065592+1011265112+1013154595+1013710495+1014106444
1145+1016359862+1020163444+1024192970+1028236941+1032731874+1036726266
1137+1037098869+1031843590+1023883006+1018490890+1017685701+1019238408
1128+1020340269+1021135056+1023518840+1027368420+1030172075+1030800901
1120+1031270354+1034182878+1040075882+1046582920+1049956922+1048776819
1111+1046642439+1048242761+1053166697+1056809865+1056388722+1054209963
1103+1053577323+1054539227+1053293941+1047775042+1041910122+1039380140
1094+1038965353+1039809258+1043804228+1051137950+1058095601+1060365662
1085+1057420778+1050847056+1041967445+1034243669+1032360658+1036955676
1077+1043290627+1046764598+1046957488+1047506107+1050051460+1051521995
1068+1050064404+1048322506+1047959495+1045693364+1040355797+1037352896
1060+1039680165+1042922993+1042362470+1038265104+1032875992+1028993705
1051+1030074417+1036933024+1044617275+1046657926+1042792975+1036896850
1043+1030035700+1023088219+1020589095+1024168006+1027790257+1025124478
1034+1017957988+1011370744+1006347186+1001463932+996772527+993634176+993159985
1024+995717704+1000130581+1002935045+1001754017+999219066+998677844+999179310
1014+999190867+1000832101+1006113385+1012329874+1014708226+1012047879
1005+1006568506+1000564206+994907084+989070131+982207595+973948028+964373889
995+954574039+947126652+944439261+946509209+950363701+951214252+945749672
985+935851643+926947821+922297733+920907405+920582301+920386869+919318582
975+916005370+910720215+905316253+901041369+897882792+895719924+894465971
965+893503027+891898717+888855135+884280342+879520056+877180826+879069326
955+883751774+887297227+887611987+886078639+884238043+882432580+882137063
945+885912446+894002875+903129519+909679549+913077071+915112116+917369868
935+920100656+922950829+926174992+930519740+935385369+938470442+939216862
925+940620828+945563890+953638081+962315382+969186182+972469287+971439774
915+967735178+964111310+961261310+958394957+956448844+957153774+959906058
905+962536702+964306684+965057092+962881742+957865060+954409753+955802220
895+959799443+962445227+963959853+966838804+969817955+969670485+967657167
885+967960832+971541246+976207456+980515162+983612370+983287036+979033995
875+974690461+974433429+978735588+985095965+990840922+994633410+996570046
865+997711548+999070672+1000981420+1002257795+1000219455+993400837+984441713
855+978499822+977343064+978654919+981559007+988159888+998377473+1006881821
845+1008794996+1005798220+1002664723+1002115526+1004688962+1009873050
837+1016358937+1022468639+1027227191+1030810840+1032871716+1032485013
828+1030412233+1027077294+1022652398+1019955646+1020535817+1022196467
820+1023940330+1028355634+1034305962+1036081722+1032400761+1029076917
811+1031850062+1038248577+1040442014+1037610390+1037478985+1044818370
803+1056429288+1067060503+1073741823+1073187888+1065630881+1054490802
794+1041340122+1028284788+1019598067+1019023445+1024891717+1030038474
785+1029472173+1023918487+1015619162+1007632691+1006141815+1014937982
777+1027944545+1033006820+1025393760+1010851365+995962369+984665691+979094323
767+978936105+981783562+984688806+984919949+982222388+981104809+985493070
757+992205709+994928349+993836889+994038099+997193555+1001698543+1006931633
747+1012822441+1017875008+1020427641+1020300744+1017169211+1010090787
738+1000976913+995936944+1000536700+1014227910+1029281364+1037037501+1037178036
728+1033805536+1026229460+1014217855+1004185416+1002739036+1008821231
720+1015012295+1017350774+1018952599+1023195008+1028395275+1029631546
711+1025186425+1019404485+1017353317+1018437611+1017354010+1011484005
703+1003667308+999910994+1004850416+1016572283+1025660616+1022416169+1010840848
693+1003296323+1004854230+1011913585+1018483609+1021695348+1023403846
684+1024539916+1019979685+1006653105+991369432+982573033+980329323+980487772
674+983517948+991518519+998156962+989616786+964641495+948486296+954296898
664+970725771+984580168+990080113+990109584+991803057+996545660+995705916
654+981904797+958660888+935621135+922370254+926360774+946554340+967350324
644+970425400+960410817+956844735+968374637+985629791+991150654+981852559
634+972326787+974032395+983609943+988276847+980380290+964473627+949046877
624+939069797+936821348+942045308+946520593+942920070+943677643+958327925
614+979276926+994895757+996357856+983063867+962177852+940202400+922866115
604+914344257+915120668+919551228+919966939
##END=
