##TITLE=<SNM>
##JCAMP-DX=4.24
##DATA TYPE=INFRARED SPECTRUM
##DATE=29/4/2025
##SAMPLING PROCEDURE=Instrument type and / or accessory
##ORIGIN=Admin
##XUNITS=1/CM
##YUNITS=ABSORBANCE
##RESOLUTION=4
##FIRSTX=4497.3318
##LASTX=599.83466
##DELTAX=-1.4281778
##MAXY=2.2434435
##MINY=0.69546682
##XFACTOR=1
##YFACTOR=2.0893696e-09
##NPOINTS=2730
##FIRSTY=0.70221823
##XYDATA=(X++(Y..Y))
4497+336090965+337408739+339016810+339871382+339085761+337270951+335958597
4487+335881516+336491777+337018425+337222711+336964251+336191753+335826087
4477+337304129+340635379+344048047+345981817+346329255+345499445+343793324
4467+341919462+340977738+341499023+342695697+342980260+341711011+340072045
4457+339528195+340001097+340560894+341369023+343428200+346491120+348559940
4447+348046358+345656318+343402868+342382636+342148710+341848514+341193435
4437+340258473+339317776+338944322+339314438+339581342+338787990+337282162
4427+336403371+336730297+337546271+338078082+338166974+337841845+337266387
4417+337000053+337503023+338493044+339272046+339497557+339265799+338639932
4407+337646602+336577474+335939455+335967384+336371648+336805666+337350087
4397+338209394+339203495+339963070+340237847+339828448+338795921+337841731
4387+337908457+339164269+340865853+342200430+342676099+341940373+339974110
4377+337453585+335431322+334740356+335472430+336568089+336709243+335894153
4367+335103398+334692315+334486318+334845366+336138007+337896047+339607559
4357+341411871+343280427+344408179+343836601+341383001+338186829+336303296
4347+336970870+339189773+340721475+340579265+339709174+339306194+339460870
4337+339509424+339055836+338343417+337870201+337974184+338613402+339108612
4327+338463233+336729498+335534364+336122060+337422176+337457921+336389421
4317+336122973+337111197+337823730+337377159+336694780+336816050+337662064
4307+338540713+338842706+338284507+337196066+336452267+336492177+336773002
4297+336783443+336880323+337403034+337970704+338440696+339309189+340433147
4287+340778702+340000355+338872204+337929995+337023417+336160144+335733286
4277+335911213+336302354+336390191+336335675+336881321+338104156+339002175
4267+338930029+338473502+338248563+337945400+337303558+337061644+338029984
4257+339811103+341241904+341822583+341968672+342010123+341609967+340221102
4247+337974698+335859121+334889526+335403393+337219430+339882137+342435269
4237+343694048+343233813+341565093+339315009+337004846+335334585+334840915
4227+335440051+336821528+338871633+341119749+342411420+342076307+341005153
4217+340611159+341130190+341664340+341358296+339984237+337914276+335845143
4207+334259095+333246452+332859647+333072976+333598482+334478786+336305179
4197+338915680+340610332+339909523+337457864+335108704+333975674+334126899
4187+335245722+336751863+337799310+337874652+337261537+336659577+336481023
4177+336544325+336360066+335847853+335717425+336799875+338937389+340849707
4167+341344460+340437027+339005057+337830320+337425770+338202120+340088277
4157+342248271+343701009+344026908+343265422+341625029+339637998+338172765
4147+337883267+338725886+340048510+341010288+341038274+340183731+339087958
4137+338495754+338776408+339751395+340782325+341120833+340478905+339269365
4127+338201777+337762966+337931621+338094228+337499172+336154496+335012651
4117+335096009+336588315+338636395+340042291+340360544+340012080+339334978
4107+338381986+337494265+336984106+336669847+336667821+337665915+339484691
4097+340632583+340132524+338606327+337073284+335943934+335349448+335401682
4087+336035622+337060104+338311837+339669550+340975314+341908850+342102638
4077+341594476+340778730+339842084+338773013+337840618+337408112+337366775
4067+337356391+337370284+337626205+337995580+337947825+337172759+336070910
4057+335315728+335053474+335007545+335192518+335873385+336906340+337771753
4047+338232159+338488109+338752302+338981179+338985572+338614115+337744366
4037+336428047+335350760+335482814+336816564+338306588+339271989+339808850
4027+339948549+339625046+339209229+339186349+339640023+340236792+340341117
4017+339541432+338302223+337469474+337111396+336684110+336262673+336544924
4007+337591715+338559656+338938873+339245630+339992995+340751715+340948412
3997+340858065+340953718+340981789+340531738+339912547+339794729+340418227
3987+341462194+342344181+342448278+341547377+340132866+339039661+338804337
3977+339402959+340435943+341380919+341783871+341452181+340486380+339207888
3967+338144037+337893023+338763656+340475225+342231754+343167429+342936470
3957+341886627+340686187+339827706+339431487+339497043+340142166+341310456
3947+342460088+343053975+343135735+342982856+342618245+342068718+341589826
3937+341347085+341326916+341586745+342123149+342554686+342491012+342156869
3927+342034115+342060873+341784841+341342121+341615701+343107636+345178224
3917+346544153+346322893+344699588+342663633+341062323+340185727+340323715
3907+342135444+345888561+350510370+354181156+355993027+355866850+353609634
3897+349702241+345991403+344443668+345550366+347668453+348378847+347542390
3887+347107487+348023678+349309216+350093126+350699650+350639400+348883842
3878+346720910+346627082+348790642+351126537+352334423+352772835+352868887
3868+353027215+353547330+353560025+351586516+347932190+344825880+344127040
3858+346642059+352812146+361912927+368544304+366057755+357681831+350156086
3848+346251403+345931780+348029042+351215857+354676109+358177783+361205728
3838+362380351+360952460+358061276+355105278+352479143+350246804+348907805
3828+349023170+350669982+353690339+357773433+361203532+361203104+358325185
3818+356019929+355340973+354469370+352365775+350133350+349037577+349687150
3808+351662969+353407317+354531702+356433550+359112774+360438451+360034928
3798+359647894+359402386+357966308+355558296+353919044+353840051+354669177
3788+355734967+357021446+358412708+359650719+361307229+364323706+368181547
3778+371018187+372353249+373924405+377643659+383758230+390268508+394453560
3768+395986575+396721160+397736856+398963199+400568931+402804637+404946744
3758+406034015+406587279+408246442+412235710+418288662+423978943+426823513
3748+427898460+430306872+435118476+439374790+440931939+442562889+447373836
3738+455793093+465309179+471887979+473371727+471081705+468183931+467654716
3728+471068354+477611267+483961505+486914166+486109403+483158111+479818274
3718+477429603+476911942+478773252+482646783+486207709+486277145+482941872
3708+479306775+477748142+478454770+479841895+480007412+478931124+478361571
3698+479192322+480885548+483110299+486539199+491585328+496592088+498226832
3688+495737231+492249050+489874586+488394119+487577032+488245262+491557884
3678+497700270+504612958+508535728+508538637+507078197+505573767+503026882
3668+498510739+493267656+489248463+487252046+486621073+486817514+488345565
3658+490896501+491954817+490016882+487882734+489688986+496462002+503364363
3648+503982955+499280527+494063290+490540762+488411236+486637619+484916893
3638+484339895+485949192+488707409+490560218+491658187+494109562+497789390
3628+499143651+497279660+495155611+494570567+495517055+497803768+500864378
3618+503012504+503379483+503115831+503496617+504632357+505804612+505984792
3608+504639489+502676906+501534776+501648087+502611349+504027401+505667565
3598+507359878+508789281+509174916+508253590+507666664+509618178+513924643
3588+517228821+516528355+512968684+509730291+508827964+510911504+515581639
3578+520914070+523784971+522515095+519088819+517185117+518296323+520710269
3568+522056485+522009187+521426140+520098067+517682295+515364145+514787831
3558+516295342+519089675+522291781+524900684+525895555+525709555+526436153
3548+529332785+532516634+532460206+528153455+522099847+517351490+515006523
3538+514327567+514451833+515366427+516820078+517396563+516003391+513573811
3528+512038058+512059853+512745485+513062882+512962579+513147096+513873579
3518+514384451+513945640+512799858+511487362+510176519+509044888+508384132
3508+508065650+507475871+506343269+505329342+505327174+506450761+508077575
3498+509606596+510856446+511813660+512553950+513148066+513167350+511897702
3488+509366736+506693303+505080981+504774310+505120521+505326547+504953862
3478+503936626+502527193+501385234+501225023+501948197+502670515+502962010
3468+503235076+503372008+502246482+499382655+496009270+493863654+493561148
3458+494603545+496381840+498431432+500011175+500340897+499409528+497857229
3448+496179865+494738081+494139687+494763414+496075910+497123728+497502745
3438+497200638+496144148+494579468+493034129+491539855+489768920+488081115
3428+487279490+487338713+487558490+487809703+488540580+489567858+489968499
3418+489271342+487911889+486628605+485908569+485716236+485541533+485031631
3408+484458227+484145394+483930410+483659227+483718108+484624657+486188938
3398+487605617+488241440+487942642+487078371+486467253+486563334+486914965
3388+487158875+487963695+489903627+491760373+491456611+488712886+485446764
3378+483660254+483915062+485601840+487851810+490144799+492224517+493789596
3368+494619806+494822237+494747781+494743730+495007667+495647597+496878847
3358+498881540+501270496+503124674+503822459+503460786+502361391+500727959
3348+499021953+498183642+498971744+500945681+502639249+503301032+503787085
3338+504949926+506046469+505716690+503826966+501479603+499816160+499325372
3328+499697258+499973576+499328910+497952226+496700607+496044986+495956266
3318+496464285+497442723+498002320+497177132+495381093+494130159+494100490
3308+494298414+493493480+492063279+491854115+494128789+497882961+500593480
3298+500936552+500147309+500124258+501092826+501877905+501620358+500500423
3288+499465100+499649103+501376562+503624649+504968411+505093819+505069228
3278+505841298+506969450+507198412+505841355+503481897+501353797+500346887
3268+500499681+501063842+501297540+501361556+502038915+503396884+504063060
3258+502617055+499624683+497268990+496963574+498134346+499291595+499579382
3248+499180566+498844169+499153294+499947387+500389907+499743872+498216848
3238+496856995+496341958+496122467+495245187+493750514+492578030+492328414
3228+492759123+493334981+493780068+494186757+494578555+494368820+492883047
3218+490531862+488644934+488129555+488902252+490231181+491125064+491018713
3208+490471668+490379125+490466362+489668503+487879938+486075113+484945364
3198+484451837+484409616+484740764+485198460+485256543+484406193+482714393
3188+481000856+479986815+479441881+478601744+477283970+476034919+475299678
3178+475052600+475075451+475128569+474926280+474370506+473667786+472802802
3168+471358707+469405596+467902050+467562942+467996162+468416345+468535961
3158+468402851+468070733+467787454+467926526+468461818+468839608+468478478
3148+467321200+465767788+464128422+462608216+461707943+461887695+462713911
3138+463026088+462331214+461465345+461422496+462020120+462202925+461325588
3128+459582639+457588048+456089181+455702860+456375740+457251451+457446123
3118+456866814+456043908+455395162+454907797+454315622+453477339+452748944
3108+452736364+453384539+453774910+453311679+452439876+451611065+450562134
3098+449234233+448321550+448346312+449019763+449684683+449809463+449166794
3088+447977850+446886242+446582994+447273105+448369363+448859866+448270058
3078+447082227+446000518+445146146+444172700+442894322+441569730+440658987
3068+440402952+440668030+441196275+441868528+442658513+443360149+443466414
3058+442562946+441026451+439974297+440050037+440668230+440919244+440714045
3048+440435587+440045188+439279878+438218938+437115320+436128694+435488164
3038+435496181+436238069+437436198+438485956+438761190+438207498+437350017
3028+436573724+435938700+435577998+435526648+435408772+434928853+434258968
3018+433621634+433128991+433023696+433293110+433268320+432333528+430757380
3008+429384062+428871593+429326151+430249732+430870805+430835117+430506480
2998+430411169+430510902+430234241+429258598+428060041+427416886+427456483
2988+427492342+426811075+425409373+423932557+423086315+423180428+424072713
2978+425263597+426014043+425822195+425020114+424514234+424707138+425004053
2968+424659326+423799676+423142686+422928415+422747236+422401939+422256020
2958+422542922+422940368+423069427+422895694+422441906+421614207+420453848
2948+419130339+417689954+416247742+415328641+415465887+416400736+417161623
2938+417115865+416546312+415988626+415517493+415064304+414928171+415371660
2928+416020777+416218616+415712651+414632625+413228355+411964470+411364963
2918+411406470+411505832+411362538+411334410+411710974+412140114+412166359
2908+411939537+411984439+412523125+413275397+413700743+413389308+412466641
2898+411543003+411086705+411069959+411292816+411616490+411788455+411546883
2888+410975847+410444007+410275266+410574692+411148068+411495876+411127499
2878+410050155+408879669+408375958+408766500+409505707+409818226+409426286
2868+408595449+407654010+406746919+405937535+405310698+404952848+404853687
2858+404865526+404842218+404809526+404890173+405063250+405157876+405019489
2848+404564160+403845237+403136726+402724702+402603089+402609850+402719082
2838+402882060+402813223+402373385+401997706+402255424+403015113+403440973
2828+402939515+401834271+400932686+400683925+400934055+401255760+401290593
2818+400904101+400226657+399550268+399125635+399017829+399057454+398934358
2808+398492779+397905339+397387935+396896291+396346850+395910948+395775842
2798+395840057+395920562+396023518+396220758+396483326+396657087+396460732
2788+395736074+394796718+394174247+394032693+394166459+394376593+394526134
2778+394530642+394488193+394472303+394252954+393637586+392885257+392381831
2768+392147077+391932807+391579065+391124421+390702070+390384415+390104959
2758+389748564+389324730+389016747+388978890+389134109+389300681+389461349
2748+389701608+389922269+389869778+389419242+388636987+387663798+386705385
2738+386017044+385756644+385878286+386192117+386542094+386908787+387245099
2728+387288261+386817099+386071246+385557208+385428662+385343679+384907492
2718+384054261+383080273+382435407+382378466+382783243+383298052+383573400
2708+383394589+382888054+382487983+382372817+382204305+381757592+381381427
2698+381453088+381803863+382006637+381903453+381624425+381299895+380902649
2688+380311015+379510161+378745451+378404518+378632225+379066700+379147832
2678+378779598+378456552+378590945+378986081+379178242+379059225+378857307
2668+378638444+378224366+377647168+377314137+377530204+378090144+378467136
2658+378283247+377628511+376998508+376800726+376935462+377035650+376990720
2648+376973574+377076502+377155067+376969438+376440765+375835267+375554014
2638+375636487+375689463+375428778+375037009+374872490+375086076+375585651
2628+376081032+376160852+375676340+375031360+374738011+374782999+374800030
2618+374711709+374758095+374984176+375126756+374982122+374568186+373988963
2608+373444000+373244992+373505591+373955614+374292610+374479466+374531329
2598+374353032+373966654+373598563+373461630+373638986+374073205+374518491
2588+374692053+374594974+374519804+374669231+374874630+374788819+374362531
2578+373965513+373914449+374078996+374127778+373977723+373807984+373738376
2568+373666544+373469048+373290864+373448736+373975298+374448941+374422411
2558+373908030+373299794+372903574+372715520+372636670+372678149+372858928
2548+373088547+373255804+373278227+373058308+372617528+372247811+372273514
2538+372650392+372979971+372955266+372690502+372537109+372620409+372683027
2528+372441228+372005783+371820211+372159176+372774344+373143833+373035714
2518+372657467+372287407+372005840+371821637+371843375+372181056+372716462
2508+373100215+373102040+372888198+372775828+372796966+372727388+372491265
2498+372317646+372468956+372941088+373468848+373772381+373753468+373502168
2488+373212870+373053943+373028297+373026671+373047125+373204312+373500171
2478+373785932+373973016+374098651+374185346+374193933+374110148+373966511
2468+373795745+373638558+373549182+373524990+373485708+373389741+373306640
2458+373304700+373313458+373155558+372749325+372307291+372267409+372850370
2448+373696669+374174934+374054091+373639386+373304986+373148455+373073998
2438+373015830+373025387+373168738+373391453+373587180+373775890+374040626
2428+374293494+374312266+374023937+373592230+373237575+373105521+373262907
2418+373667057+374134653+374448970+374529418+374495413+374571125+374886469
2408+375340742+375714653+375955368+376234996+376646620+377009262+377100208
2398+376990063+377059585+377737258+379224856+381426301+384227965+387891676
2388+393029378+400166435+409483997+420975360+434682945+450701863+468951437
2378+488974770+510071481+531565696+552571746+571692923+588059706+602280530
2368+614556231+623052199+626892695+628804556+631055153+631083453+624529014
2358+611112781+594190852+576363401+557912964+539342712+523591383+514155260
2348+512812753+519220616+530635526+542575399+551952299+558401813+562383406
2338+564452568+565507518+566548546+568359077+571063491+573732474+574993621
2328+574411487+572790550+570872299+568245766+563897536+557745165+551074163
2318+545216197+540308313+535615869+530569627+524971148+518546852+511092654
2308+502976902+494879806+487161557+479852165+472943871+466387778+460119271
2298+454270034+449045238+444366602+439957180+435698013+431610354+427670040
2288+423936808+420692024+418167077+416253562+414622013+413012801+411397170
2278+409979122+408998201+408463823+408167478+407927390+407645766+407187670
2268+406444612+405497069+404543963+403708789+403019078+402505525+402216997
2258+402146306+402169071+402062577+401660110+401050847+400506398+400132230
2248+399793408+399459465+399318624+399437613+399620588+399680097+399595598
2238+399430623+399287757+399263366+399368890+399594942+399975272+400429402
2228+400694709+400606644+400307903+400017008+399702177+399160838+398397383
2218+397717428+397365370+397239021+397065288+396727236+396351528+396156200
2208+396211030+396335724+396302660+396093325+395844165+395647896+395544198
2198+395607472+395918965+396428039+396890471+397066743+397000759+396952576
2188+397075358+397343546+397727071+398231039+398826809+399463658+400069470
2178+400503802+400661645+400680217+400857772+401274902+401683902+401875237
2168+401955485+402131528+402432979+402765097+403027237+403140549+403143202
2158+403203908+403395956+403582869+403641550+403663716+403847804+404245850
2148+404646690+404775749+404663408+404666375+405006423+405476529+405764800
2138+405875744+406047394+406429065+406993854+407588083+407984930+408095474
2128+408110594+408239253+408439089+408606689+408809891+409115107+409421664
2118+409637618+409825415+410090722+410466572+410900477+411272448+411491454
2108+411636973+411922933+412449239+413073508+413625887+414135190+414682577
2098+415171482+415491819+415805907+416405814+417336012+418323608+419041647
2088+419364865+419421806+419468933+419705969+420121159+420473931+420549158
2078+420479408+420624813+421089841+421605306+421934029+422161679+422519758
2068+423049486+423499394+423605660+423487299+423553739+423970042+424526216
2058+425055003+425586928+426070157+426372121+426583796+426927610+427396375
2048+427836812+428292227+428938005+429784875+430689313+431549762+432340632
2038+433040185+433640976+434228073+434968592+435943379+437026885+438060638
2028+439066977+440146803+441316348+442578179+443957830+445368262+446626128
2018+447638714+448464245+449261077+450237462+451510676+453023294+454724222
2008+456684095+458845486+460839535+462297494+463272852+464171927+465292576
1998+466617967+468132296+470074396+472562029+475110996+476982006+478005347
1988+478646418+479386081+480384261+481569182+482827363+484134154+485484250
1978+486745910+487802800+488795845+489963136+491351173+492970170+495047377
1968+497734161+500639352+503072184+504827257+506337906+508029249+509947272
1958+512043193+514342173+516689136+518765944+520557875+522462319+524792051
1948+527447626+530247722+533309529+536637042+539487632+541044895+541795056
1938+543086842+545398944+547965856+550007061+551602665+553304791+555479733
1928+558205086+561495571+565216365+568699982+571137549+572754777+574643302
1918+577119553+579350295+580853527+582110223+583577454+585272391+587165880
1908+589202977+591085797+592486216+593393564+594101162+594917792+595982555
1898+597400147+599326386+601633982+603836196+605684840+607269604+608327863
1888+608373963+607671158+607083889+607113216+607700827+608580161+609486710
1878+610303625+611029994+611553875+611956399+613024414+615551158+618752637
1868+620193850+618569091+615479783+613285270+612795110+613215948+613456607
1858+613186736+612673867+612010715+610988572+609779232+609179011+609769646
1848+611313559+613219771+614718439+614522968+612087683+608789439+606186583
1838+604529644+603343867+602554738+602715633+604218751+606290309+607115213
1828+605854066+603505162+601034731+598560991+596301265+594708856+593770926
1818+593019567+592091166+591059323+590336321+590042487+589473419+587867830
1808+585687867+584252302+584340281+585704641+587506842+588877991+589375797
1798+589235213+589286620+590526428+593172988+595626702+595606105+593373708
1788+591254737+590520380+590807596+591539842+592752663+594363786+595747659
1778+596680340+598012121+600930435+605595549+610050129+611665703+610677622
1768+609279828+608532919+608543246+609548386+611308367+612794083+613760312
1758+614962007+616489430+618054510+620367925+624345011+629343841+633222279
1748+634509443+633615959+631991713+631178221+632002155+633932216+635561654
1738+636651008+638833253+643121918+647328879+648292769+646880482+645277575
1728+644045697+643470410+643963823+645354257+647497876+651100966+656775842
1718+663237623+667051360+666379935+663158658+659899269+657945872+657976511
1708+660144321+663487924+666299373+668450409+671906753+677675200+683182904
1698+685353339+684599983+682073980+678911528+676941699+676939987+678251000
1688+680642524+685422547+693096236+699476257+699520475+695537854+692163841
1678+691529958+693592445+696400813+697947978+698793022+700241138+701473872
1668+701128517+700492067+701653653+704371817+706289098+706089519+705367543
1658+706197924+709478595+715448047+722568586+725873848+724801040+724668672
1648+727001429+728557722+726188450+722026677+719631102+720203137+723748087
1638+729990891+737439440+742275606+742381043+741013317+741529381+744167440
1628+747456612+750742932+754938083+760254481+765059723+768737954+773366325
1618+780635151+788397161+792149964+791845574+791134953+791978741+793784137
1608+795061773+795497960+796275564+798283164+800782921+802353649+802801361
1598+803095994+803884610+805052586+806456827+808281565+810409722+812240279
1588+813489616+814445461+815362793+816369532+817606658+819147775+821401396
1578+825135028+829609920+831666302+830691458+830486516+833875877+839715699
1568+843990727+844834858+844141866+844658101+848542359+857280982+869815770
1558+878514056+877783122+872206837+866326791+862529314+861784402+862916091
1548+864488075+866769311+870288415+874536114+879195123+883401228+883606113
1538+879411647+875564647+873873589+872257788+869319961+867212173+868170357
1528+871355860+874095933+875316685+876741295+879848005+883779846+886899337
1518+888615327+888895981+888567914+889252291+891467799+894561444+898536419
1508+903939085+908889360+909628510+907360682+906530244+909472863+915325809
1498+920175211+920394303+917725605+917180443+920918697+926935904+930785015
1488+929631759+924668589+918421279+913196454+910980261+912562571+917064450
1478+922908723+929398860+937193107+946225450+952641416+952067783+947165263
1468+943573755+942562909+941984142+941159296+942341421+947274352+954931153
1458+961376046+962133966+958252390+954044573+950069427+944898576+938711002
1448+933365791+930373819+929997483+931516462+933020721+932405553+930195921
1438+929584689+932235928+934948386+934194802+931517033+930110053+931746965
1428+936260883+941239686+943640168+941946543+937929632+935776371+938192656
1418+942947632+944887564+943028536+940302270+938693030+937745743+936594313
1408+935615989+935165253+934697116+934577243+936429766+940224961+943258526
1398+943530850+942501062+942029501+941466994+939737082+937826704+937811071
1388+940067203+942273868+942435733+941979520+943729972+948214564+953971828
1378+960045748+965594589+968568418+967998437+966230982+965801813+966197434
1368+965059069+961808524+959848451+963816522+974312616+985921627+992380726
1358+992750671+990348992+988463091+988372488+990128189+993635825+998351547
1348+1002620755+1004987175+1006091762+1007234691+1008354113+1009165323
1340+1010669069+1013610376+1016859210+1018852489+1019493903+1019737414
1331+1020143532+1021061322+1023780912+1029052922+1034362474+1035965381
1322+1034309527+1033161349+1033961262+1035265201+1036484926+1038030550
1314+1039621475+1041661083+1045512990+1050627071+1055126440+1059250957
1305+1063771094+1067390786+1068761707+1068460570+1067851450+1067726499
1297+1068446763+1069630087+1070492532+1071257642+1072568313+1073741823
1288+1073617215+1071938082+1068617928+1064127916+1060503203+1058885690
1280+1057983077+1056574271+1054094997+1048676241+1039629577+1030565910
1271+1025779326+1024986716+1024905127+1024868497+1026929558+1030964041
1263+1033560393+1032595818+1029894143+1027519280+1024545451+1019756128
1254+1014482178+1010714256+1008876168+1008080020+1007095477+1004633547
1245+999733537+991845092+981087686+969629986+960745929+955683197+952328754
1235+947317771+938979675+928539610+919263470+913701221+911015692+907976136
1225+903285461+898635695+895098333+891470253+886582167+881254757+877113694
1215+874811861+873914669+873631162+873157091+871842940+869816455+868299187
1205+868583037+870621218+873394840+876546965+880246421+883866285+886658963
1195+889122547+892148011+895465083+898080947+899809832+901908207+906248278
1185+912962413+918921595+920657784+919232375+919048771+921717583+924659689
1175+925722055+926298883+929289771+935836164+944331790+952086441+958064222
1165+963374802+968837147+973198443+975164905+975415606+975372358+975899433
1155+977079220+978644699+980264951+981082437+980837671+981340212+985371501
1145+993966288+1004617115+1013418328+1019033582+1021432066+1018671053
1137+1010764237+1003025048+1000712489+1003361217+1006814765+1009498982
1128+1012982655+1017630481+1021248120+1021730807+1019746999+1017774945
1120+1017681146+1019209197+1021181936+1024242260+1029989996+1037286094
1111+1041766521+1041388930+1039405579+1039263854+1040266198+1041097378
1103+1042951214+1046425872+1050554611+1054993387+1059561451+1062476969
1094+1060966605+1055176877+1047918777+1041699196+1037395412+1035806198
1085+1038730616+1045304168+1049295176+1045536154+1037949303+1033338220
1077+1031788602+1030195394+1028969507+1029646181+1030501210+1029709627
1068+1030235789+1036012167+1044695618+1050565223+1051702561+1050433882
1060+1050844679+1051593585+1045739727+1034336115+1026454973+1025393405
1051+1026914039+1026161824+1021553822+1013977925+1007075621+1006145965
1043+1012480113+1020334895+1022736233+1019795496+1015965840+1013599307
1034+1011180283+1007146256+1004509737+1006057187+1009972311+1012234548
1025+1012435496+1013038341+1012662233+1007867547+1000731660+996882377+997962773
1015+1001611450+1006497310+1011708614+1014744062+1015072471+1015307082
1007+1016492574+1016633157+1013613228+1006165820+994211968+980180852+967666147
997+958247484+951568551+947381502+944777163+941535517+936458123+931107491
987+927830300+926803193+926148771+923918485+919454034+914079439+910464653
977+909965535+910859931+910645461+909073420+906991079+904526467+901453991
967+897751568+893853903+890635479+888221989+885340191+881517439+878487867
957+877542863+877079005+874835596+871784401+871149662+874351883+879776515
947+884924030+888883829+892198276+894882093+896120875+896077855+896792357
937+900348547+906744429+914184934+920883551+926324843+931266618+936399014
927+941346893+945522645+948929922+951774349+954301664+957537489+962374967
917+967521227+970163451+968627413+963407551+957112999+953216988+953391349
907+956514947+959152606+958027935+953186178+948331071+947751676+952392884
897+958543828+961152504+958809134+954973716+953587105+954433860+954578666
887+953613579+953741040+955741051+958812900+962479606+965946733+967791783
877+967906920+967320051+965912614+963696478+963754903+969124249+976846321
867+979870015+976319017+970980253+968185349+969382823+975585516+986129421
857+994972513+995711834+990368391+985344343+983742805+985508661+989754477
847+994609186+997410936+996580783+993613916+992110855+993639476+994917055
837+991272258+983730595+978402329+979206578+984274901+989340599+993369606
827+998768278+1005517217+1009656340+1010060062+1010986866+1014906212+1019188886
817+1021198710+1022108968+1024023967+1027118638+1031604885+1038787329
808+1048344066+1054806703+1050813984+1036297785+1020738732+1014530219
800+1018339905+1025037495+1028729648+1029377223+1029521345+1030364848
791+1031494426+1031326912+1029966831+1030550391+1033211329+1032273229
783+1025271763+1018575885+1016868567+1015685357+1009827619+1001592850+994185951
773+987587865+983139618+982503453+982719121+979103422+972192104+966802903
763+965273711+966403175+970338839+978746485+989772963+999037692+1005646276
753+1012512977+1020396059+1024028189+1018979493+1010128414+1005118858
744+1004721640+1004996874+1004759981+1006512145+1011777194+1018448196
736+1020693658+1014637254+1004238383+997027069+996655297+1001174750+1006536907
726+1009831271+1010161278+1007218488+1000810396+992938611+987422405+987062730
716+993437729+1006618838+1022969930+1034291612+1035588361+1033727108+1035168549
706+1036233655+1032305750+1027379495+1023401496+1018817457+1016938859
697+1019794355+1023498033+1022622350+1017043612+1012503848+1010958909
688+1008337453+1002852742+997655588+997112195+1002603182+1010570706+1015568965
678+1015752682+1014148634+1014553497+1015671550+1010826427+996231948+975817959
668+961270151+961291376+967082245+972116791+978818261+988411856+994594351
658+987887291+968453965+949827855+941464655+938877831+933499585+927720412
648+932683753+950886400+970424421+982969365+992535573+998160755+993575004
638+977741630+956861386+940518224+935938636+941541280+945482079+937488367
628+923576668+916548957+917756244+920816796+925720857+936511127+946283247
618+940461796+925956952+922485317+934475684+947660787+946274860+936509130
608+932058201+931862559+930951616+929732975+925560646+917374317+913995226
##END=
