##TITLE=<SNM>
##JCAMP-DX=4.24
##DATA TYPE=INFRARED SPECTRUM
##DATE=29/4/2025
##SAMPLING PROCEDURE=Instrument type and / or accessory
##ORIGIN=Admin
##XUNITS=1/CM
##YUNITS=ABSORBANCE
##RESOLUTION=4
##FIRSTX=4497.3318
##LASTX=599.83466
##DELTAX=-1.4281778
##MAXY=2.0775998
##MINY=0.43093178
##XFACTOR=1
##YFACTOR=1.9349156e-09
##NPOINTS=2730
##FIRSTY=0.4351314
##XYDATA=(X++(Y..Y))
4497+224883922+224420002+225565185+227120380+227795189+227355081+226535197
4487+226213549+226722921+227649621+228264700+228302544+228136060+228162274
4477+228384362+228676914+229054966+229576245+230313403+231269291+231999379
4467+231746534+230456845+229182852+229049344+230257277+232151524+233712833
4457+234132425+233433111+232433357+231935767+232098232+232395652+232086280
4447+231010885+229714681+228655767+227893210+227550076+227867904+228798809
4437+229966557+230795082+230651054+229435667+227868905+226706502+226097199
4427+225892363+225930992+225918870+225647665+225322182+225289914+225709198
4417+226606125+227855536+229010299+229590831+229615136+229419371+229139479
4407+228843707+228796345+229071000+229373210+229548921+229590630+229133749
4397+227855613+226207896+224909737+224121057+223689544+223586548+223791061
4387+224298077+225137815+225963614+226091161+225442043+224915405+225407218
4377+226909259+228633896+229606772+229261096+227816953+226050006+224621573
4367+223723968+223252778+223061511+223098431+223395220+223933472+224634419
4357+225527003+226566464+227211916+226905024+226074327+225858832+226669182
4347+227576999+227407172+226057076+224415890+223324430+222962181+223231985
4337+224205924+225605370+226358470+225647881+224127434+223178061+223303360
4327+223958978+224448758+224389829+223786055+223174627+223330068+224402952
4317+225558809+225879810+225441258+225001797+224957715+225206294+225664284
4307+226214904+226467796+226172101+225620557+225292363+225337723+225514527
4297+225400980+224739509+223714203+222850437+222713479+223568774+224933318
4287+225680164+225204261+224221527+223889066+224466440+225181620+225234111
4277+224702929+224331346+224543144+225063529+225476390+225682505+225766371
4267+225873295+226255258+227025239+227808574+227914435+227051316+225794188
4257+225053811+225177384+225793803+226272694+226258601+226018092+226131069
4247+226668274+227187627+227675174+228518871+229489853+229887096+229628597
4237+229113033+228327203+227126479+226041566+225904038+226720195+227427149
4227+227106287+226251608+226099294+226835451+227482398+227476653+227203060
4217+227083260+227273002+227895351+228642028+228746287+228015351+227155744
4207+226804723+226970484+227367881+227658509+227564908+227168281+226840688
4197+226831385+227166833+227724385+228193618+228331639+228355020+228656707
4187+229122044+229156360+228528466+227811100+227707288+228205755+228724970
4177+228975967+229287804+230096691+231379587+232569529+233063638+232920149
4167+232690993+232507751+231984085+231047234+230187165+229930869+230473665
4157+231455536+231966649+231414027+230352587+229805417+229996514+230372656
4147+230597993+230844739+231209914+231489637+231603908+231718440+231809760
4137+231637161+231327666+231431231+232105456+232751401+232720180+232010654
4127+231142514+230570823+230301820+230062221+229830399+229913572+230342791
4117+230662159+230675559+230932117+231954527+233310708+233963353+233405694
4107+232152972+231231755+231303992+232149029+232969791+233160966+232713234
4097+232150600+232214674+233175691+234329976+234633727+233852533+232712987
4087+232065902+232142637+232476222+232551432+232450069+232524062+232759379
4077+232967358+233181497+233455922+233716422+233917454+233936029+233566942
4067+233002752+232845910+233334813+234027920+234410454+234364847+233968744
4057+233329791+232780049+232762121+233217893+233453519+232959888+232086280
4047+231675837+232258694+233549429+234568790+234527928+233619587+232606326
4037+231921982+231674866+232071308+233143161+234323138+234813750+234292903
4027+233160735+232293411+232453288+233619418+234936938+235513989+235178694
4017+234402291+233720150+233380866+233291563+233120458+232697724+232395852
4007+232736060+233568698+234146087+234117454+233946750+234121243+234396961
3997+234188013+233393357+232500234+232019356+232095567+232581759+233239672
3987+233866195+234339541+234621713+234747658+234754220+234678933+234793958
3977+235555082+236877547+237771779+237341944+235957177+234777662+234374751
3967+234460250+234718055+235189707+235856091+236408883+236597994+236507689
3957+236271293+235805217+235161844+234930500+235741559+237307736+238469168
3947+238520504+238020219+237784809+237674959+237029199+235914112+235118070
3937+235125263+235903238+237485803+239897724+242347444+243389076+242454336
3927+240462807+238752957+238083924+238427089+239346858+240524910+241814506
3917+242939019+243454490+243066134+241815614+240047605+238395807+237711971
3907+238796099+241953712+246443493+250505565+252632789+252523263+250535508
3897+247287821+243993220+242256000+243016030+245174306+245982038+244766050
3887+243970070+245320336+247540128+248881214+249769039+250488484+249694722
3878+247298033+245383008+245446250+247127729+249449239+251540067+252330517
3868+251962400+252183717+253599366+254451657+253219389+250728900+248548461
3858+247811518+249982700+256429093+264129749+265430788+259983549+253331072
3848+249003324+248020282+249627075+252014214+253829185+255236224+256894384
3838+258276225+258263857+257019005+255533259+254211041+252941700+251894368
3828+251305396+251064595+251522185+253853644+258011550+261027553+261035008
3818+260437580+260845128+260190649+256920768+252989478+251127036+252505550
3808+256003325+258913268+260428770+262455940+265412275+266581871+264792082
3798+262344920+260754223+259719429+259116209+259260684+259978096+261004912
3788+262601123+264798459+266935725+268900454+271763234+276107909+280695480
3778+284069096+286767626+290405608+295935436+303300335+311227143+317790964
3768+322599097+326716617+330323056+333222895+336533915+341355202+346784513
3758+351136397+354801118+359999178+368590015+380617894+393044850+402000815
3748+408091906+414484236+421587664+426052509+426479032+426073517+428195659
3738+434387850+443884840+453187637+458549979+459573128+458547114+457604580
3728+457907791+459501199+460848693+460139351+457445319+454123856+450841822
3718+447499904+444559188+443405579+445250354+449580644+453863863+455902739
3708+455652974+454508915+454490309+456937472+460754122+463424280+464690418
3698+466445366+469201624+471471074+472511751+473812144+476801039+479767293
3688+479405768+475860077+472194524+471023665+473255594+477603319+481807032
3678+485149011+487908380+488736166+486707302+483880440+481868795+479432445
3668+475196573+470334870+466920777+465953599+466980907+468814069+470618921
3658+471888386+471865067+470762348+470882579+474614824+481671491+487579231
3648+487199223+481527386+475688771+472952106+473298074+474661370+475031890
3638+474254224+473744158+474629672+477110473+481585330+488779816+497118423
3628+501913403+501550738+499302975+498104823+499050099+502162983+505911863
3618+507590970+506478887+504581528+503809652+504712109+507301959+510949646
3608+513482568+513103516+511133150+510420820+512033080+515142268+519012581
3598+523202708+526624626+528318704+528806590+529568084+531581669+534340915
3588+535656402+533997380+531011288+529203725+528975031+529153514+528915824
3578+528575862+529108415+530824365+532706475+533959121+535626707+539192113
3568+543592576+545336126+542867431+538547862+535493075+534908586+535886452
3558+536708139+536713376+536486961+536349325+536127346+536491520+538669294
3548+542228109+544652445+544011644+541032144+537972244+536624843+537276734
3538+538522725+538417496+536559783+534360199+533106260+532747507+532375940
3528+531190449+529323802+528011149+528376371+529913344+530935878+530725420
3518+530280599+530952636+532838751+534744211+535711666+535847700+535501947
3508+534743595+534058004+534392236+535871235+537256895+537405190+536559414
3498+535705567+535345397+535166422+534645389+534021470+534509417+536973491
3488+540473099+542799353+542675764+540722125+538295756+536428493+535666260
3478+535864766+535985028+534975432+533124804+531611858+530696895+529604064
3468+528223209+527380514+527333321+527427645+526993852+525727345+523780483
3458+522128669+522140991+523982377+525963556+526099281+524388014+522774275
3448+522812658+524179466+525328361+524872574+522292735+518509415+515518641
3438+514620990+515328483+516177432+516236978+515697925+515118918+514468106
3428+513403523+512158148+511534474+512319935+514739835+517708060+518933905
3418+517024995+513161983+509881490+508859203+509936476+511638009+512779911
3408+513437101+513847852+513483708+512278194+511454135+511857062+512444417
3398+511653812+509848313+509076099+510405972+512706750+514263254+514510401
3388+513791417+512582761+511444401+510971301+511350508+512069122+512342484
3378+512080828+512096384+512851533+513793235+514404555+514783608+515120582
3368+515781498+517294660+519277317+520494845+520686081+521068800+522802493
3358+525725681+528400214+529422932+528967822+528310510+527976709+527529363
3348+526943394+526967853+528063702+529794808+531195193+531329194+529872189
3338+527693860+526517426+527201353+528582886+528809363+527554314+526195392
3328+525994360+526808531+527485250+527011473+525366313+523403247+522011549
3318+521575661+522004033+522900205+523882878+524893090+525841692+526035392
3308+524879535+523226982+522849501+524536124+527490548+530329640+531863718
3298+531479398+529730734+527873267+526640337+525972366+525666474+525811503
3288+526767006+528807514+531418096+533323865+533786552+533342779+532922293
3278+532908739+533118212+533258127+533489533+534233406+535123233+534983195
3268+533410611+531523941+530573614+530677426+531331535+532410072+534025844
3258+535729471+536548509+536011766+534672621+533304457+532035485+530729424
3248+529738866+529726852+530823810+532192590+532913853+532997026+532830680
3238+532438658+531826752+531082139+529945628+528291165+526924233+526734599
3228+527366036+527818126+527800321+527434176+526409424+524654537+523182747
3218+523119535+524301946+525452751+525487622+524363309+522889855+522051349
3208+522322554+523398688+524321538+523880475+521594144+518600413+516746119
3198+516517240+516704748+516360844+516043524+516494259+517270201+517439812
3188+516658110+515062422+512926819+510689037+508805602+507698602+507910477
3178+509466211+511112541+511323492+509975352+507995806+505973257+504091455
3168+502623022+501770469+501579695+502087450+503018062+503612101+503377030
3158+502633834+501693179+500213749+498112309+496228720+495296844+494978046
3148+494444261+493412516+492165385+491100217+490598592+490757391+491084229
3138+490964830+490482027+490235773+490273047+489796990+488378985+486876574
3128+486346886+486608726+486761087+486592431+486466562+486305207+485715511
3118+484777844+483882165+483016458+481852499+480442811+479286153+478513169
3108+477559145+476065206+474574901+473963119+474498506+475604428+476464035
3098+476860277+477192353+477597928+477673123+477300015+476964428+476835418
3088+476312075+475017874+473527601+472541108+471987546+471346807+470285860
3078+468710534+466833568+465459490+465460507+466708039+468009972+468338566
3068+467876064+467616626+468117973+468911012+469131851+468422232+467043072
3058+465533976+464483287+464241962+464639652+465076710+464985405+464340229
3048+463667422+463387191+463352659+463140045+462494284+461510934+460627114
3038+460162763+459813344+459160160+458444503+458082393+457893375+457478065
3028+456761730+455859859+455142385+455231164+456085874+456657949+456183586
3018+455061491+453942261+452870686+451697794+450522038+449545619+449034383
3008+449275307+450159465+451050062+451328568+450910640+450168091+449436108
2998+448592580+447218780+445304663+443503446+442440158+442117816+442218517
2988+442516800+442721005+442454266+441734359+441042083+440718879+440603977
2978+440434428+440342137+440595352+441017223+441178948+441109360+441170323
2968+441237231+440796045+439906865+439187851+438774173+438145356+436984570
2958+435536869+434249937+433458409+433117985+432742074+432019579+431305740
2948+431047164+431177530+431493526+431989236+432437138+432357569+431760911
2938+431270099+431238277+431214650+430466956+428843452+427036814+426002543
2928+426123421+426961866+427821134+428399679+428721804+428643837+427892386
2918+426613464+425420795+424737206+424423983+424149636+423780933+423324653
2908+422773309+422129797+421469466+420918553+420504322+420000479+419079816
2898+417785492+416687825+416389358+417007178+418148126+419149681+419432593
2888+418943567+418165161+417502889+416910821+416273871+415742981+415448857
2878+415273424+415073593+414805746+414408641+413879785+413424860+413240894
2868+413228418+413154486+412954317+412621379+412007378+411099469+410352268
2858+410346384+411120324+412081094+412574063+412396935+411782596+411067709
2848+410455988+410020008+409763373+409553931+409117150+408305013+407349233
2838+406668818+406406299+406324636+406178683+405968070+405726006+405270681
2828+404393515+403238367+402270819+401766792+401461362+400912082+400145413
2818+399651397+399719937+400040646+400063934+399629895+399110650+398933152
2808+399077504+399151928+398881154+398357411+397828739+397424519+397130303
2798+396903888+396728578+396567469+396340838+395968377+395388046+394563525
2788+393561446+392574615+391778404+391220776+390887838+390728269+390598642
2778+390378820+390109185+389799443+389234607+388284064+387260390+386648176
2768+386593806+386834144+386969408+386769300+386377803+386148060+386139959
2758+385980328+385394206+384626890+384110756+383908183+383727975+383359704
2748+382823547+382168915+381442908+380831433+380510293+380356054+380073974
2738+379622130+379295568+379351602+379692765+379997486+380095692+380028938
2728+379737093+379004925+377881845+376886820+376554990+376838856+377093427
2718+376769792+376089037+375732903+375855599+375856431+375232264+374197716
2708+373323015+372914112+372847913+372821112+372703900+372590046+372455922
2698+372063438+371409761+370903176+370832110+371018232+371170746+371194959
2688+371065610+370812857+370628274+370597008+370441197+369897246+369151154
2678+368552710+368132687+367703391+367225917+366835036+366624084+366540912
2668+366428597+366147658+365700249+365234450+364932841+364895135+365029629
2658+365045278+364693734+364038177+363366264+362867442+362530314+362317268
2648+362251870+362293210+362280611+362108874+361876483+361740295+361683799
2638+361545362+361205709+360664654+360049975+359620772+359594249+359884985
2628+360160256+360174611+359927434+359569729+359281858+359132178+358993648
2618+358726047+358420156+358272601+358260495+358167526+357924908+357702959
2608+357626286+357604877+357500664+357270614+356929359+356556775+356335350
2598+356417260+356751091+357107842+357263282+357171885+356981696+356816952
2588+356598639+356213086+355766139+355516159+355616675+355974842+356282212
2578+356230491+355809389+355311245+354987672+354857830+354864514+354998484
2568+355193448+355258939+355066840+354729281+354457676+354302574+354164630
2558+353999763+353876390+353852608+353917329+354073140+354356420+354694102
2548+354882381+354841750+354699524+354533887+354364368+354401426+354826286
2538+355356652+355520379+355223113+354673432+354090144+353761981+353905007
2528+354270290+354373209+354177445+354089220+354262527+354343790+353997329
2518+353403505+353072878+353293625+353931345+354689482+355342820+355725231
2508+355719778+355366078+354864822+354403398+354033710+353746301+353584299
2498+353625762+353875250+354189120+354337629+354229536+354049050+354029150
2488+354165616+354334272+354518731+354689605+354691330+354497999+354334734
2478+354363598+354510722+354687079+354882874+355006894+354926001+354712185
2468+354624145+354787626+355033694+355113971+354993186+354853332+354835527
2458+354855550+354713571+354360240+353992277+353857814+354012393+354303898
2448+354563367+354747087+354893471+355008095+355034988+354940849+354788242
2438+354662219+354543529+354375242+354238222+354274788+354455304+354644075
2428+354822774+354994880+355037884+354943467+354977106+355299016+355689774
2418+355927187+356122489+356441688+356828843+357193232+357561842+357911969
2408+358114727+358147010+358184099+358403213+358776198+359119024+359329051
2398+359477037+359632632+359808558+360174180+361046448+362595620+364909121
2388+368386457+373710015+381464194+392114022+406178837+424014957+445511825
2378+470287862+498069305+528539390+560791253+593205519+623980294+651606142
2368+674726976+692266170+704143137+710982167+712938271+709874181+701935666
2358+687772184+665490595+635825347+601589656+567553210+540598536+526222193
2348+526438627+540179468+562512624+584886073+601298551+612425545+620988041
2338+627558700+630665608+629294611+625139416+621227579+618769234+616423697
2328+612122241+604836849+594885304+583550316+572286672+561585955+550808225
2318+539422471+527794838+516464995+505486572+494752555+484295934+474103742
2308+464158512+454725873+446219103+438778640+432211185+426257853+420735173
2298+415512038+410566084+406050750+402171197+398985336+396343302+394004234
2288+391858034+390023148+388631418+387602878+386798935+386242169+385946443
2278+385726127+385428399+385142100+384994545+384964448+384982500+385027105
2268+385110432+385281614+385566990+385845927+385917672+385742824+385499466
2258+385356871+385293875+385215538+385154576+385195330+385275885+385312019
2248+385458588+385917980+386498372+386705072+386337910+385728161+385310941
2238+385174845+385087883+384812889+384323401+383777910+383337956+382986320
2228+382516208+381734290+380666135+379533350+378578310+377939326+377596192
2218+377368791+377066442+376714467+376548614+376748044+377265195+377921922
2208+378557147+379069831+379440597+379763247+380181545+380739419+381337894
2198+381895646+382518796+383409855+384593405+385852889+386976832+387913698
2188+388631418+389055600+389273452+389565912+390086944+390718319+391346398
2178+392029555+392759105+393285066+393343287+392955947+392438920+392149478
2168+392208192+392449578+392671804+392843541+392966359+392887961+392482385
2158+391936710+391620899+391659713+391797996+391736941+391487299+391281800
2148+391205774+391135785+391105966+391480860+392544118+394104657+395788323
2138+397596780+399856710+402648178+405622780+408505337+411518753+415084467
2128+419272716+423828588+428629113+433762421+439148636+444418132+449313505
2118+454049801+459102709+464627084+470197512+475231197+479603350+483753894
2108+488346640+493984900+501081982+509765818+519959273+531619190+544623365
2098+558194533+570820365+581327135+589848045+597210202+603698551+608793107
2088+611796449+612429734+610763072+606553230+599157434+588619427+576258209
2078+563578469+551031190+538162741+524726436+511358025+499116236+488615873
2068+479789503+472262572+465712521+460031781+455308761+451556185+448561930
2058+446116400+444096469+442270916+440447273+438799803+437683315+437256083
2048+437471224+438183553+439245209+440720851+442894066+446043146+450506481
2038+456818011+465390796+476236080+489127017+503641274+519011718+534446637
2028+549642819+564577715+578876554+591741984+602626606+611894655+620370528
2018+628093594+634153633+637995482+640151508+641309768+641343469+639647481
2008+636047511+630990907+624902404+617759946+609486091+600418581+591132543
1998+581942307+572834196+563859471+555251568+547150343+539589556+532764327
1988+526908523+521901021+517404694+513378418+510054674+507459711+505346410
1978+503583915+502265933+501436791+501003830+500956144+501450099+502565817
1968+504060927+505465656+506502575+507367235+508409668+509632865+510832095
1958+512134952+513892026+516075191+518317563+520489793+522742362+525047853
1948+527193467+529274823+531746598+534719999+537550958+539595779+541066707
1938+542600785+544518752+546896142+549717798+552659038+555265184+557502473
1928+559717891+562171122+564904184+567831069+570815436+573820319+576818486
1918+579416253+581066404+581925672+582786974+584019165+585212542+585953089
1908+586456069+587187683+588275338+589519851+590732142+591920098+593232258
1898+594767753+596375577+597630441+598238589+598556124+599278065+600467376
1888+601414315+601673075+601506853+601222956+600855640+600507053+600516048
1878+601221847+602552059+603851774+604527138+604839745+605442163+606156772
1868+605945575+604398435+602318312+600514815+599031565+597632474+596385866
1858+595454145+594645643+593542647+591957125+590137856+588601560+587769215
1848+587795091+588594845+589479681+588960313+586371849+583104633+580764209
1838+579563377+578735652+577742445+576952918+577089692+577973850+578260643
1828+577201143+575530538+573632779+570885732+567435597+564662305+563438369
1818+563247072+563128658+562851169+562790298+563039509+563203267+563020410
1808+562682605+562501781+562778593+563814804+565469082+566862875+567120957
1798+566382813+565724638+566303707+568462505+570906741+571487719+570092756
1788+568805116+569149822+570861397+572823230+574600850+576478525+578510285
1778+580590162+583118248+586715199+591172712+594905943+596382293+596053791
1768+595188669+594451819+594537148+596206459+598992998+601188085+602220907
1758+603204319+604614192+605979460+607692575+610907485+615385083+618816550
1748+619726277+619507255+620126986+622024498+624615550+627316390+629555835
1738+631298400+633806648+637985378+641630877+641554358+639239441+637779417
1728+637827103+638717792+639933041+641226534+642932933+646274328+652197717
1718+659343625+663729178+663226444+660156193+657512897+656848930+658556501
1708+662120367+666175262+669277919+671670218+675066568+679849811+683745075
1698+685551775+686741641+687090782+685387463+683163974+682774786+684614140
1688+688063597+693614926+701623183+708142213+708294943+704706371+702298423
1678+703022336+706620395+711493835+715863800+719714891+723878834+727121653
1668+727033983+724684379+723694313+725711903+729107822+731266867+732024172
1658+733257041+736799159+743808725+752996496+757977013+756447617+754334656
1648+754226346+753797913+750493361+745987731+743073230+742174038+742546714
1638+744039576+746474385+747436234+744498690+739743110+736594492+736389763
1628+738367061+740803657+742690942+743925105+744446383+744632444+745599591
1618+747811189+749681532+749049295+746763950+745328016+745824404+747625560
1608+749327093+749920023+749450620+748836557+749036234+750143173+751500370
1598+752820970+754491452+756552908+758422388+760021464+761974487+764393710
1588+766640980+768363829+769767788+771086972+772654011+775122583+778955498
1578+783639611+786944101+786202076+782597177+779900157+779569314+779870708
1568+778447219+775684462+773629352+773693118+776885910+784057200+792914437
1558+795409008+790012688+784136061+780671016+778358563+776071986+774354373
1548+774601982+777733103+783495444+790716701+798354992+805087561+807433098
1538+804504242+801333444+801347984+803355162+804187199+803675470+804754500
1528+808831697+814421409+819552314+824446947+830413032+836855605+841489567
1518+843502043+843934296+844207719+845438001+848029915+852016299+857990393
1508+866554430+874958528+877451250+874921932+872887091+873873275+877814993
1498+883584297+889288541+893212453+895765615+899067333+904464700+910680180
1488+914688251+915413642+914684185+914870615+917181405+921245294+925996685
1478+931075530+936731473+942621839+947392513+949608609+949707616+949506337
1468+950232776+952408825+955449750+957822888+959164498+960652492+962596951
1458+963239600+960633578+955827108+951046268+947098205+944722540+944735601
1448+946498620+948158443+949027754+950040677+951904243+954481987+957501902
1438+960339700+961159354+958837474+955261163+952447146+950828602+950838767
1428+953062872+956684713+959807517+961797629+964028572+967489797+970360186
1418+969446578+965068357+960783042+959005237+959603281+960654094+960263119
1408+958422041+956996211+957267663+958073454+957797628+957205067+958263951
1398+960925607+962769273+962080601+959541425+956876257+955498729+956163003
1388+958395795+960504567+961436905+962080232+963722804+966894279+971820086
1378+978099271+983997647+987087920+986706126+985345479+985595367+986964332
1368+987801421+988557924+990827189+994428021+997588222+999372250+999979966
1358+999519250+998576008+998872473+1001651002+1006028485+1010078820+1012706899
1348+1013679591+1013224358+1012365089+1012409756+1013882471+1016873553
1340+1021548671+1026962426+1031350690+1035246940+1041438947+1050192802
1331+1056874359+1056540435+1050202167+1043837160+1041640287+1043217491
1322+1046155898+1048793033+1050562460+1051752756+1053651809+1057093812
1314+1060673081+1062668614+1063943686+1066631341+1070353174+1071943686
1305+1069946428+1066749138+1065748106+1068080274+1071750356+1073741823
1297+1073226890+1071790648+1070633374+1068574260+1063063162+1053429522
1288+1042940495+1036272123+1034692947+1034892685+1033279747+1030033847
1280+1027033955+1024061848+1019832722+1015074431+1011767784+1010240175
1271+1009222324+1008313829+1008283702+1008711704+1007554307+1003782139
1263+998468930+993192688+988858517+985383923+981885240+977827141+973676629
1253+969799355+965693755+960962203+955793346+950077458+943456032+936167067
1243+929013151+922538664+916229660+908715081+899389920+889578968+881314786
1233+875492744+871728277+869187068+866992966+864435492+861315399+857832611
1223+854266465+851170708+849396045+849284347+850136961+850857116+850972880
1213+850815467+851071517+852316030+854482283+857158664+860260582+863588053
1203+866477110+868809093+871361638+874435832+877415578+880261139+883970096
1193+889027501+894474402+898936905+902244291+905690114+910409036+915623915
1183+919227581+920204586+919935167+920612564+923124139+927088283+932266443
1173+939255000+948523542+958849427+967128888+971107942+972165038+973085115
1163+974492216+975875351+978086394+981880742+985691848+987939734+989997124
1153+993929846+999329369+1004458303+1008043302+1008619659+1005521192+1001292620
1143+999548700+1000904911+1002796755+1002923609+1001757772+1001506590
1134+1003512720+1006368323+1007526151+1007093159+1007516479+1009883395
1125+1013241855+1016828085+1021087216+1025882780+1029103851+1028571853
1117+1025396188+1024121117+1027247185+1033149751+1039281873+1043769020
1108+1044385485+1040060864+1033384853+1027358514+1023179045+1022270920
1100+1026530050+1034183805+1038438931+1034611869+1026792507+1021989180
1091+1021452067+1021416827+1019752260+1018066745+1017908594+1020061663
1083+1025637328+1033442642+1038372762+1035717514+1026503497+1015849294
1074+1007705312+1003241761+1001374437+1000923024+1001691233+1002845858
1065+1002887013+1001687907+1000547329+1000030548+1000057225+1000752057
1057+1001364025+1000926166+999989886+998976162+996572650+992367428+988334220
1047+985931447+984878910+984870777+985772803+987039680+989144386+993518110
1037+999236093+1002686228+1002092743+999103755+995390855+991553258+988128136
1027+984876014+980921851+977030037+975632055+977625247+980686379+981556984
1017+979940965+979051138+981608982+986238448+988146249+983966719+975796860
1007+969044514+965967240+963756997+959002341+951895802+945150911+940178835
997+935841769+930240413+922817016+915228197+909912525+907187041+904659078
987+900268349+894907209+890971159+889537751+889771005+889993169+888948949
977+886280885+882296287+877851219+873790287+869975362+865724795+861453035
967+858494298+856957571+855238541+852145002+848372279+845473488+844554211
957+846166842+850225002+855628160+860755615+864671149+867331141+868945928
947+870128092+872200329+876092267+880972052+884881363+886986808+888525506
937+891590089+897611191+906725524+917865271+929043462+937539420+940919382
927+940086729+939721631+943267630+949040815+952486207+951310450+946923603
917+941842047+937721415+935552635+936016494+938579636+940987522+940943471
907+938822008+937602447+938811966+940247407+939436440+938102347+940076132
897+945453106+949560985+948829988+945750988+945499313+950133584+957217389
887+962501579+963991791+963651707+964658530+967611106+970374849+971306571
877+970449335+967931106+964069851+960223997+958228156+959496265+964226893
867+970867233+976789144+980392132+982676491+985638864+989338148+992054759
857+992833443+991937024+989875383+987942753+988071578+990897670+994994090
847+997712303+996882300+992567721+986134328+979108559+973345293+970857376
837+972549297+976958200+981582737+986004331+992309885+1001520760+1010874877
827+1015229625+1012931651+1008946436+1009634985+1016178105+1024549549
818+1030717282+1033522488+1033248080+1031274725+1031240162+1036777321
810+1046454088+1052532980+1047984839+1035094395+1023478344+1020753230
801+1026315033+1032851314+1034405846+1031023543+1026279669+1022962302
793+1021402287+1019589302+1014636510+1006610079+999703956+996879589+996540243
783+995713566+993475291+990593566+986819919+980892710+973355397+967043313
773+964033809+963492138+963197459+962106046+960615341+959918352+961186277
763+965047841+971644314+980412463+990515999+999968014+1004647753+1001959666
753+994368568+987454374+985667635+989733558+996275630+999594106+997507883
743+994774329+996041822+999484441+1001094791+1001411156+1003578889+1006141908
733+1004863879+1001853390+1002150964+1004466189+1005269578+1007930064
724+1016994678+1028090744+1031706608+1025657782+1015738212+1007337503
716+1004452882+1009908716+1021001763+1028813424+1026621602+1017722656
707+1009140938+1001957325+992788529+982249291+974428697+970560294+968802019
697+968196582+971109667+979215882+990017763+997999712+998457964+992608506
687+986044254+983070792+983505448+983036353+978912702+973616436+971286979
677+973593394+979296961+984850939+984593965+975094696+960090428+948073299
667+944675162+948709972+958541071+972535189+983944293+984682930+974222551
657+961009950+954773893+956026970+954520000+944315054+933992681+934571811
647+946355378+959332261+964130290+960450412+954236904+951998321+956681941
637+965724560+970851831+965983135+956447023+949423904+945518536+941835516
627+936171935+929555623+925647605+925216462+922693982+912151108+895477898
617+881827562+879190858+889082888+906641488+923190555+930985704+929851410
607+926745241+927619481+932169655+932141499+918807219+894712708
##END=
