##TITLE=<SNM>
##JCAMP-DX=4.24
##DATA TYPE=INFRARED SPECTRUM
##DATE=29/4/2025
##SAMPLING PROCEDURE=Instrument type and / or accessory
##ORIGIN=Admin
##XUNITS=1/CM
##YUNITS=ABSORBANCE
##RESOLUTION=4
##FIRSTX=4497.3318
##LASTX=599.83466
##DELTAX=-1.4281778
##MAXY=2.120522
##MINY=0.37833953
##XFACTOR=1
##YFACTOR=1.97489e-09
##NPOINTS=2730
##FIRSTY=0.38930219
##XYDATA=(X++(Y..Y))
4497+197126011+197778167+198577503+198910658+198677961+198562548+199062953
4487+199735874+199969915+199903878+199925684+199962173+199790819+199425943
4477+198916604+198326395+197938400+198031931+198504675+198903249+198834028
4467+198426928+198318185+198958647+200080121+200943501+200807459+199413221
4457+197537185+196536918+196872398+197689374+198070141+198009959+198019527
4447+198256299+198257099+197594409+196614197+196039803+196060794+196359558
4437+196685772+196929923+197122691+197561240+198346073+198964472+198986760
4427+198744888+198716518+198776835+198479655+197680244+196592633+195555485
4417+194915386+194810611+194966045+195012735+194973424+195061206+195263662
4407+195514680+195865355+196180417+196176177+195899023+195589137+195190246
4397+194618281+194243672+194528990+195413240+196343321+196747251+196479755
4387+195968153+195818303+196125246+196347546+195998545+195199165+194325976
4377+193484115+192737839+192422022+192714494+193304522+193745289+193730425
4367+193120778+192181191+191574985+191756571+192582300+193606289+194406213
4357+194693553+194590349+194674237+195337848+196247073+196693906+196351907
4347+195549448+194924651+194877734+195213516+195373809+195113239+194681119
4337+194300548+193924007+193613834+193727799+194473683+195481103+196058576
4327+195859938+195155161+194487566+194273280+194670585+195445730+196000507
4317+195959415+195621295+195488829+195663081+195958570+196210584+196255690
4307+195987620+195625641+195640898+196237822+197091303+197798721+198327874
4297+198694304+198607910+197951574+197242118+197105382+197524977+197948556
4287+197988878+197794601+197712101+197762156+197666618+197308728+196893615
4277+196644816+196533131+196349025+196072127+196114683+196848072+197879109
4267+198335811+198001237+197587437+197676215+197925754+197705310+197145327
4257+197036584+197844732+199278326+200746056+201804467+202184630+201804708
4247+200860095+199760095+199014090+199099623+200139594+201593364+202495391
4237+202262090+201198925+200051977+199312295+199159216+199604042+200287859
4227+200620803+200518519+200428851+200410621+199992596+199116163+198383407
4217+198234448+198607563+199352286+200304428+201064362+201320103+201315983
4207+201497372+201767570+201559455+200723902+199952998+199969975+200531105
4197+200750507+200378810+200109744+200549772+201521351+202462599+202988718
4187+202985896+202561020+201964005+201387452+200971555+200988169+201612076
4177+202536437+203263790+203694507+204061873+204503742+204992919+205420482
4167+205572233+205265894+204544969+203636725+202905886+202787425+203370255
4157+204147090+204556604+204533017+204266441+203902063+203667872+203742299
4147+203881223+203653204+203075942+202652560+202732525+203107587+203364988
4137+203460768+203699170+204195531+204640206+204717380+204568435+204623244
4127+205001913+205281195+205016310+204367534+203933105+203993663+204205008
4117+204148327+204029202+204534843+205873065+207240713+207630579+207005903
4107+206212981+205942180+206270567+206924745+207433963+207267891+206412645
4097+205663411+205863814+206978906+208151658+208492812+207742672+206379687
4087+205228876+204933975+205598461+206724870+207535478+207599357+207163343
4077+206723904+206495432+206478848+206648994+206794664+206570010+206027336
4067+205725116+205995057+206478501+206699805+206713024+206833779+207088283
4057+207268344+207248847+207053016+206857019+206934449+207316694+207596761
4047+207359114+206737622+206282700+206270175+206415995+206377016+206199928
4037+206050546+205909494+205859664+206251507+207214983+208330301+209049400
4027+209188113+208942241+208687210+208794942+209375116+210072106+210350845
4017+210104310+209694931+209361278+209004399+208576309+208205864+207905681
4007+207572194+207282861+207274274+207606464+208021864+208215975+208233631
3997+208430578+208933987+209415770+209593326+209609835+209681214+209783619
3987+209908811+210173772+210460177+210374130+209767608+209021271+208742834
3977+209334688+210653367+211918882+212275745+211589076+210481711+209674287
3967+209499659+209859872+210431610+211019963+211698936+212447672+212871160
3957+212605324+211864178+211327827+211538779+212537688+213920593+215024276
3947+215338628+215119769+215216606+215916554+216394399+215796448+214336264
3937+212921050+212488990+213686009+216236354+218507584+218806273+217432618
3927+216279121+216599722+217808496+218419530+218120087+218069050+219111028
3917+220477620+220576342+218879462+216313015+214076599+212837237+212913791
3907+214751875+218712364+224060345+228667437+230820839+230512718+228246740
3897+224552993+220902526+219262583+220411839+222855902+224014122+223522545
3887+223405668+224816219+226532778+227196810+227315257+227141503+225682391
3878+223375397+222397750+223702757+226224054+228956875+231491315+232659194
3868+232080528+231548675+232216057+232648253+231100770+228118621+225336151
3858+224100471+226044792+232679445+240950103+242455227+236208901+228341977
3848+223096703+221918155+224229767+227958992+231234518+234087536+237357599
3838+240142106+240391026+238128126+235217899+232884557+231162807+229967238
3828+229434222+229345609+229789153+232069874+236714497+240665313+240977281
3818+239475296+238239933+236191380+232449509+228774007+227300287+228851346
3808+232316123+235033839+236143981+237779171+240919861+242958559+242084103
3798+240163640+238762325+237518676+236204675+235575472+236068331+237297946
3788+238877210+240761742+242662768+244217132+245909003+248515817+251526306
3778+253595125+254703773+256251588+259600650+265224865+272042447+277727085
3768+281293995+284088930+287302116+291054550+295940472+302921062+311318149
3758+318959136+325343888+332515284+342757713+356172885+368865881+376433587
3748+380771658+386673813+394686874+399338136+397728691+394557366+394706612
3738+399953531+409204446+418622474+423801999+423577088+420623913+418144041
3728+417260243+417131007+416614425+415790628+415575768+416340410+417514370
3718+418135409+417889009+418142532+421231401+427243989+431993702+432057415
3708+429688519+428866925+430876966+434308393+436995248+437965454+437781470
3698+437347282+437708069+440009872+444561687+450578349+456677768+460890798
3688+461429835+458767698+455306151+453306824+453908548+456974479+461909234
3678+468601895+475749388+479270031+477756562+474935310+472921707+469765654
3668+464485022+459717080+457713588+457967865+458572969+458784901+459659282
3658+462034939+464836785+466520204+468081631+472464974+480950493+489338465
3648+490380412+484065620+476438245+471452062+469653652+469954408+470808024
3638+470970248+470479169+470815720+473466328+478783992+485958437+491995139
3628+492764399+489313445+486622907+487413837+491584131+497899527+504475960
3618+508872613+509959199+508879434+507861602+508946074+512534444+516573117
3608+518258015+517020222+514786568+513840628+515185746+517905981+520154062
3598+521554894+523575831+526860335+529797333+531238849+532811654+536379742
3588+540337288+540845842+537235139+532337748+528793021+527684706+528805396
3578+530955327+532741574+533610552+534038764+534999916+537379284+541307193
3568+545326912+546593861+543480665+537648139+532704149+531553821+534162446
3558+537333469+537704216+535171526+532358694+531447341+532884089+536276824
3548+540482098+543314125+543477707+542149612+540928901+540044711+539544849
3538+540325517+542834364+545816754+547437849+547064024+545172203+542433315
3528+539935938+539241407+540632340+541840254+540387027+537200370+535820061
3518+538090838+542195366+544971739+545504680+545562809+546731608+548363689
3508+548893974+548072923+546658147+544918802+542700601+540388294+538785670
3498+538396755+539146819+540283445+540596243+539438611+537907396+538088483
3488+540778115+544501334+546935090+546862413+544723348+542139229+540836546
3478+541183932+542056533+542685570+543453562+544490469+545167616+545565706
3468+546616255+548170288+548503911+546325067+542654484+540231352+540709483
3458+542694444+543339658+541566812+538639955+536222739+535107723+535161446
3448+535564848+535326960+534093573+532657066+532504711+534441140+537413933
3438+539294888+539099917+537636851+536094891+535035590+534229087+532740125
3428+529935382+526749268+525156966+526202082+528981352+531506678+532353624
3418+531704787+531023234+531269634+531502332+530176288+527490459+525080607
3408+523853558+523543416+523972171+525343244+527366052+529025417+529318839
3398+528194467+526928364+526973334+527963339+527951870+526621963+526291781
3388+528242696+530555667+531236133+531231545+532447246+534672328+535953100
3378+535025389+532608474+530684178+530794038+532944271+535945554+538434300
3368+539574427+539436680+538934162+539072694+540241131+542123113+543886724
3358+544587713+544207188+544015115+544975542+546344745+546688751+545811140
3348+544737774+543991211+542919354+541086870+539542012+539611127+541117232
3338+542965532+544730471+546390017+547375796+547245172+546487140+545704419
3328+544786789+543553824+542526032+542434523+543210422+543847548+543560887
3318+542805571+542680077+543604287+544804656+545128923+544503568+544013304
3308+544377833+545200211+545914179+546533015+547039095+546981690+546224744
3298+545538362+545924018+547440867+549095947+549881504+549501462+548069422
3288+545983053+544337812+544269844+545682689+547505274+548950714+549804421
3278+549982672+549730598+549847520+550932536+552493450+553356573+553273635
3268+553315889+554261467+555449703+555745781+554985877+553808205+552601559
3258+551259459+549822530+548686447+547907832+547051771+546156474+545858404
3248+546195287+546238627+545306510+543995074+543560585+544410670+545525082
3238+545565646+544287048+542502612+541131357+540687028+541198057+542279814
3228+543379135+543912257+543509277+542629252+542357440+542994626+543604408
3218+543428633+542843720+542494583+542460237+542562250+542680922+542593336
3208+541926633+540353586+537985143+535648571+534472227+534713858+535181245
3198+534505185+532756483+531116796+530453171+530726794+531169553+531006152
3188+530517155+530856453+532429862+534239952+535257422+535307100+534492991
3178+532872802+530658886+528375796+526816391+526511379+526872830+526382023
3168+524142634+520729860+517383061+515051077+514177209+514742262+516205328
3158+517535295+517711735+516567745+514978461+513844008+513071670+511832066
3148+509671209+507098318+505058337+503981078+503641931+503771681+504283766
3138+504959494+505444959+505672043+505854911+506046019+505973161+505300331
3128+503877828+501838210+499726005+498417014+498536683+499940835+501752948
3118+502801836+502366019+500811112+499230882+498393231+498243472+498087918
3108+497055991+494944813+492721843+491500589+491302660+491566143+492103127
3098+492780183+493113928+492823463+492066005+490942417+489566665+488518108
3088+488382957+488989177+489639191+489797884+489271644+488167674+486933201
3078+486094554+485766575+485710981+485839372+486265320+486947114+487523546
3068+487435748+486343127+484595723+482985584+481886322+481024920+480126514
3058+479305343+478855009+478971055+479434187+479544258+478845894+477713403
3048+476757321+476138636+475860093+476016824+476335297+476106885+474939897
3038+473224697+471769448+471187976+471461025+471887969+471815927+471423631
3028+471292825+471414245+471233217+470526041+469623983+468880800+468354922
3018+467830312+466994835+465843873+464761724+463958028+463212098+462361470
3008+461624927+461306213+461423316+461687372+461788358+461655893+461357642
2998+460875013+460128842+459073615+457811073+456807758+456686460+457347188
2988+457731003+457100094+456061859+455670106+456053046+456485453+456349697
2978+455549592+454379345+453432499+453260254+453712581+453934383+453335738
2968+452216406+451223322+450628570+450260812+449789351+449095695+448522583
2958+448494243+448867766+449061379+448750180+447977993+446838802+445591984
2948+444753217+444573669+444728408+444789133+444650148+444392370+444153576
2938+444114884+444231595+444097258+443349940+442051724+440608909+439517676
2928+439076275+439148076+439243208+438886133+438007980+437110540+436804563
2918+437016888+437040369+436472811+435645543+435133759+435195088+435516035
2908+435429113+434669391+433684154+432965327+432528363+432132506+431569263
2898+430825205+430239357+430167586+430421652+430505314+430289941+430003249
2888+429732161+429299634+428551893+427604051+426737125+426079144+425588547
2878+425371725+425688719+426459699+426979390+426514900+425269984+424226075
2868+423808397+423415196+422583069+421740257+421400809+421479099+421647933
2858+421674070+421410346+420995475+420892134+421311442+421847220+421985450
2848+421713154+421370024+421106059+420778079+420252744+419506181+418463057
2838+417098985+415798626+415214921+415523132+416129382+416359152+416117461
2828+415593092+414781065+413722790+412733962+412044109+411647558+411556984
2818+411729258+411877358+411770697+411479720+411120714+410725128+410357007
2808+409988132+409434336+408688377+408016029+407560021+407203761+406880731
2798+406665901+406552540+406414190+406134259+405587133+404689120+403644275
2788+402928678+402810669+403027491+403146466+403008990+402588324+401808139
2778+400830689+400075735+399645562+399207089+398636090+398199880+397942525
2768+397494937+396672951+395769052+395147922+394923706+394996684+395058888
2758+394664057+393676979+392583512+392026246+392115643+392438612+392597607
2748+392486721+392156297+391664554+391047257+390328188+389562671+388857848
2738+388321166+388018055+387971305+388111828+388208801+387964484+387302035
2728+386484908+385775468+385098533+384319706+383676453+383513504+383719310
2718+383798174+383395345+382554736+381618605+380975442+380771417+380830995
2708+380895915+380849979+380654012+380216927+379517748+378806588+378414775
2698+378261544+377832397+376866145+375810133+375314587+375431328+375564518
2688+375228842+374653889+374399280+374470780+374261292+373492696+372724523
2678+372584210+372845308+372689332+371761439+370535869+369632273+369235933
2668+369239132+369491025+369775785+369863311+369672625+369269555+368802078
2658+368459671+368287729+368103110+367769517+367364967+366988879+366663283
2648+366409006+366168311+365758812+365143748+364602025+364416712+364519479
2638+364575194+364350223+363949114+363681587+363707302+363868560+363890955
2628+363675612+363377330+363223889+363215861+363028858+362390132+361523749
2618+360950637+360891663+361122097+361320569+361338738+361216504+361075467
2608+360956945+360808333+360658875+360574307+360417787+360010159+359510811
2598+359248083+359266312+359379100+359489805+359570600+359523366+359289854
2588+358926019+358453562+357843417+357213474+356808985+356706369+356759488
2578+356887909+357148192+357486645+357733678+357862371+357955722+357963328
2568+357796697+357556092+357374431+357192167+356962487+356896330+357193223
2558+357644070+357797361+357474935+356892919+356355059+356048448+356041295
2548+356267896+356550060+356714035+356644317+356314526+355882602+355594673
2538+355500477+355479230+355547439+355849403+356353430+356803402+356970183
2528+356831531+356552867+356343228+356305773+356431146+356689860+357021341
2518+357263092+357254129+357056623+356958865+357157368+357463073+357457973
2508+356992336+356385090+356066255+356149767+356397434+356494648+356318118
2498+356001607+355754030+355617400+355501534+355419682+355465105+355584442
2488+355658506+355765801+356053036+356401448+356499688+356191900+355605297
2478+355049238+354849981+355146602+355774644+356363571+356586429+356413671
2468+356173368+356243751+356626781+356940063+356872879+356540070+356330552
2458+356505694+356980294+357359552+357164007+356261467+355180254+354708159
2448+355054459+355683497+356043378+356125048+356210582+356434859+356745514
2438+357033745+357169350+357085234+356927236+356935203+357090788+357111402
2428+356882779+356629407+356579306+356731450+356978513+357232096+357458124
2418+357703135+358006004+358307122+358561339+358820596+359107167+359371343
2408+359586747+359738347+359822583+359967061+360321539+360742296+360880134
2398+360691954+360581219+360929510+361684072+362448714+362876231+362959531
2388+362960618+363019411+362882690+362126800+360585022+358412183+355828306
2378+352992506+350060881+347178542+344392239+341616047+338686203+335580703
2368+332671050+330525405+329378064+329078395+329517924+330675828+332353362
2358+334385315+337018749+340754342+345878515+351894633+357253706+360173319
2348+359822160+356899499+353485638+351555849+351107084+350855191+350388680
2338+350325269+350897837+351476291+351518032+351358644+351774421+353055585
2328+354787445+356367192+357449431+358029907+358429930+359132489+360328390
2318+361676013+362729490+363494886+364353392+365529495+366809330+367772173
2308+368258604+368589934+369238891+370303564+371439285+372271834+372740429
2298+373092945+373670343+374623557+375725897+376548759+376905924+377040230
2288+377328129+377866321+378376958+378499916+378145739+377543714+376993449
2278+376630490+376412762+376266685+376188877+376164642+376034591+375595182
2268+374881999+374202982+373809358+373664005+373612968+373648794+373878111
2258+374328173+374919907+375583683+376266685+376836175+377148973+377273380
2248+377442727+377691873+377789691+377647718+377469196+377357978+377167203
2238+376865149+376656687+376622703+376566626+376305166+375888514+375478954
2228+375146025+374863709+374679604+374757019+375168782+375769720+376375428
2218+376976940+377714268+378703036+379935487+381354519+382969034+384782988
2208+386652173+388404919+390104545+391997573+394171831+396410796+398431491
2198+400193895+401937254+403946601+406282630+408691123+410824485+412628931
2188+414395107+416337361+418307563+420003236+421256573+422079645+422620493
2178+423097116+423661837+424293048+424802477+424978011+424798553+424470815
2168+424188470+423922150+423509542+422895384+422178761+421388978+420377966
2158+419083070+417700980+416393559+415044185+413478080+411754188+410154461
2148+408916124+408043162+407653281+408487671+411418965+416286657+421897894
2138+427332782+432582810+437910585+443347888+448856388+454488209+460296559
2128+466184589+471873603+477080502+481672609+485618083+488951873+491775872
2118+494144708+496053189+497574444+498871151+500209539+502155475+505518269
2108+510827875+517995861+526642909+536454954+546835009+556524517+564166288
2098+569027884+570954956+570356462+568155646+564844944+560089768+553806515
2088+546522935+538411302+529191474+518861761+507764177+496432024+485601332
2078+475831512+467223156+459681466+453076088+447263784+442315779+438422942
2068+435487574+433210339+431433237+430049849+428855728+427709353+426639096
2058+425781104+425240980+424937568+424776400+424931864+425562078+426505242
2048+427724716+429604253+432444821+436241170+441150089+447649168+456167312
2038+466849029+479538191+493799917+508997564+524284607+538565709+550706659
2028+559852543+565753037+569015389+570683506+571385160+571170571+569928130
2018+567582443+564272587+560546651+556961481+553464139+549471884+544477189
2008+538467741+531924145+525510207+519605427+514042420+508412289+502664391
1998+497255278+492678955+489072478+486290672+484050529+481982782+479902509
1988+478066644+476889394+476451344+476499875+476833921+477413099+478156011
1978+478955271+479916091+481288432+483087536+485031933+486922094+488815695
1968+490711591+492327253+493474956+494508392+496023551+498138230+500371280
1958+502279127+503934750+505703401+507824600+510278818+512843801+515238744
1948+517427246+519855931+523083031+526908927+530188361+532076922+533135801
1938+534540014+536781937+539564890+542409533+545032524+547381772+549521562
1928+551554390+553745368+556447917+559546928+562334045+564421320+566190907
1918+567846228+568850599+569002109+569179695+570299420+572244963+574205779
1908+575680555+576722532+577449176+577881009+578251454+578991921+580201766
1898+581449218+582297371+582803450+583441120+584617645+586076607+586808381
1888+586151637+584839779+584076737+584133538+584442413+584496256+584247563
1878+583918225+583673636+583528585+583707680+584828914+587173695+589653628
1868+590142081+587744966+583830699+580159090+577362254+575260855+573656057
1858+572420437+571319486+570191069+569069896+568043975+567174212+566537267
1848+566335354+566850428+567763048+567620351+565368830+562009657+559164471
1838+557400679+556298943+555402922+555091270+556156125+558118087+558793966
1828+557022991+554200139+551580467+548868742+545989994+543836864+542829112
1818+542288445+541459729+540470810+540013987+540355880+540950269+541164616
1808+541108238+541305623+542052851+543521108+545807519+548327351+549737539
1798+549336914+548200891+548298015+550646297+553975349+555653366+555128152
1788+554297805+554598229+555940027+557707079+559666627+561679655+563425037
1778+565037319+567458338+571734780+577782256+583253694+585082557+583346532
1768+580458729+578134834+577394126+578933490+582048255+584535009+585366442
1758+585714673+586514959+587650981+589403546+592742256+597817474+602769372
1748+605266025+605238681+604620448+605141859+607067181+609408703+611096981
1738+612597352+615792218+621306030+626001387+626145593+623364632+620601720
1728+618432715+616988663+616854477+618175389+620861219+625529654+632821685
1718+641127323+645846281+644520057+640100617+636194922+634407408+635186446
1708+638547007+643651863+648572916+652431588+656859419+663134583+668941877
1698+671425372+671106356+668599260+664609963+661806125+662106428+664937852
1688+669169203+675505092+684309324+690597345+689140919+683995680+680982384
1678+682054301+686516297+691674997+694744611+696391963+699224534+702957049
1668+704225084+702617027+701530623+702767571+704599452+704984504+705050843
1658+707228299+712808510+721981255+732054186+735642978+732474792+730214578
1648+731189131+732206239+729672040+725021412+721835661+721657350+724394789
1638+729405480+734911927+736591514+732081289+725678156+722069143+722274677
1628+724757688+727917967+731803923+736421956+740114752+742142871+744545902
1618+749052385+753614100+754101406+750854447+747481089+745591019+744357028
1608+742696697+741057735+740655117+741736571+743627668+745899109+748631236
1598+751908618+755644694+759370086+762000623+762665576+761818691+760753836
1588+760178883+759827573+759252922+758474971+758063842+759002297+762169517
1578+767298881+771771017+772137840+769551307+768186149+769405713+771213208
1568+771450674+770692340+770215898+770406342+772595509+779875648+793539423
1558+805620916+807376680+803387081+799231908+796342114+794687699+793984476
1548+794418241+796703927+801117934+807305452+815086600+822981532+825757362
1538+822009696+818135872+817962813+819815398+820136225+818810846+818972376
1528+822147745+826828796+831078195+835429063+841225311+847412890+852020781
1518+855375729+858631803+862113692+865820251+869628340+873520272+878415429
1508+885205787+891052318+890820767+886502736+883608535+884514637+889158867
1498+895653690+900400536+900901485+898847409+897797162+899712223+903818321
1488+907518120+909412355+910525922+912198024+914505501+916946922+919971566
1478+924966201+932088432+938616032+940412782+936300527+930318302+927050336
1468+927854908+931821629+936173886+937337735+935077341+933103005+934931264
1458+940184793+942114159+935623199+926631541+922054012+923352289+927901749
1448+931581206+932236923+930958023+929777816+929652383+930959653+934536553
1438+940538638+945843897+946274644+943300222+941249044+940733669+939109495
1428+935620483+933079946+933450753+935681992+938443516+942111684+946554726
1418+949354459+949202104+947599058+945684239+944075457+943983706+945994381
1408+948947737+951002174+950997768+949213453+947523786+947844612+950187824
1398+952714658+953518144+951944433+948835885+946303377+945848364+946849718
1388+947512860+946662353+944704072+943350987+944390127+948136103+952994258
1378+957205688+960576753+963774456+967097049+970555156+974295880+978552402
1368+983256391+987556253+990235985+990990999+990665042+989881778+988779619
1358+988456620+990738865+996017626+1002223554+1006523778+1008219723+1009082363
1348+1010379131+1010969537+1009609207+1007652859+1007703805+1011314991
1340+1017902893+1024124214+1026141408+1024352867+1022997609+1024992831
1331+1029772574+1035079283+1039230291+1042289583+1045635234+1049651634
1322+1052580302+1053587269+1055371101+1060403885+1066397398+1068731132
1314+1066847702+1064132114+1062311822+1061057007+1060605737+1061599545
1305+1063780925+1066054780+1067927949+1069522847+1070742531+1071906682
1297+1073399809+1073741823+1070243334+1063156173+1057411837+1056635575
1288+1056932920+1050467856+1036571323+1023091291+1016127029+1014967103
1280+1015557086+1015311411+1014117803+1012731035+1011474469+1009546310
1271+1005434356+998740518+990803212+982905805+975199446+967743894+961272913
1261+956197937+951580145+946273196+940692622+936270768+933263629+929803168
1251+923759071+915191219+906162438+898395475+891448959+883523666+873656148
1241+862647780+852231084+843768987+837349496+832071641+827398739+823525519
1231+820310854+817167054+814284202+812719787+812975181+814193537+814950121
1221+814464022+812869728+810619836+808304693+807096236+808253083+811591491
1211+815142557+817038422+817529893+818831973+823047629+829900523+836595085
1201+840707582+842695138+844465932+847040574+850708440+855582169+860948213
1191+865346225+867825373+868508012+868455195+869358097+872257670+876440791
1181+880543026+884380873+889102126+895969567+905135129+915313815+924900526
1171+933617534+942167882+950310118+956519306+959775139+960707317+960494177
1161+959913791+959578236+959909506+960684620+961501265+962684188+964914583
1151+967871077+970210667+971735424+973270684+973362736+969506177+963370389
1141+959631717+959918801+961756296+963356989+965326738+967568420+969250179
1131+971978564+978433186+987518224+994502950+996762258+996567770+996870789
1121+997638117+997854457+998197074+999318368+1000054488+999300500+998000896
1111+997791317+998405989+997835201+995068667+991526535+989623306+990600333
1101+993847232+998487478+1004199219+1010640078+1016900876+1021026894+1022208550
1091+1021702230+1018843341+1011368955+1000236964+989016180+979726211+973527103
1081+972350457+975450071+977967248+976910602+974975683+974776124+973977951
1071+968748446+959528377+950909277+946691508+946985292+949067255+949764864
1061+948231476+946432673+946018768+946295349+945920739+945000754+943977368
1051+942473014+941016769+941352988+944373829+949151823+953673758+956307193
1041+957172670+957862553+959235739+960248622+959229583+954970827+948192300
1031+942872131+942996357+947585054+951007185+949883235+947086640+946672252
1021+948983954+951941717+953959092+954589759+954391951+954858191+956875204
1011+958753926+957042589+950155772+940126060+929982264+920776500+911984220
1001+903698502+896736352+891053344+885752370+880271817+874707180+869409828
991+865002460+862014275+860332335+859526435+858892508+857172600+853306623
981+847842429+842812000+839740394+838459683+837831732+836909393+835309666
971+832982632+829841609+825821889+821090798+816082823+811735697+809367073
961+809715848+811793947+813157838+812363588+810927806+811704490+815677368
951+821167760+825922212+829290077+832186812+835572001+839389024+843005039
941+846478539+851011279+858012725+867652193+878020779+886091969+890581369
931+893786739+899345460+908292450+917751192+923049631+921572078+915243251
921+908605429+904738185+903642847+903721500+903985586+904440719+905009937
911+905324788+905082010+903528702+899591860+893743398+888803090+887875319
901+891657150+897915594+903716791+908126392+911730818+914117310+914357492
891+913504268+914004915+916434686+918806268+919615729+919823799+920877004
881+922550071+923893619+924953404+926339206+928048310+929041695+928003219
871+925649806+925275015+928856141+933901480+936754151+937656268+939014726
861+940612099+941118359+940856386+940000265+938247700+937163529+938838830
851+942135769+943747810+943392395+943932036+946532694+950022612+953568486
841+956843031+958662296+957798448+955054369+953054620+954235974+959137771
831+965624808+970869826+974182821+974850793+972118786+968464441+966948919
821+968429129+972732552+978210871+981302215+979988546+976902997+977114205
811+982739990+989577913+990391298+984422715+979213733+980568811+986608320
801+992578895+997188839+1001040027+1001929166+996735094+987169208+978692986
791+974627632+973633824+972335487+968901767+963134493+955679121+948174856
781+942227037+938163917+935601227+934333615+934665427+937247192+941703211
771+945908063+947868757+947950186+948003668+948770996+949818647+951121390
761+952106748+950665955+946812233+944979144+948887374+956633090+963063023
751+965071646+962916946+958882921+956839952+959496083+964346149+966322477
741+963808319+960009587+959405901+962841855+967019181+968375889+966030021
731+962079960+960420957+962412135+963886730+961038164+957157761+957115688
721+960942489+964600999+963806207+960046589+959845642+966233262+975049566
711+978652362+974597451+968716816+967220068+969910847+971963172+971015179
701+970329098+972525810+974867996+973859278+968421402+957944163+943897931
691+931540763+927104361+931746780+939956381+944944376+944380409+940404331
681+937327474+939627164+947927249+956611057+958520142+951797692+938533094
671+919897562+897346375+877907720+872744011+882483741+897969256+911272305
661+917373202+915906454+912548187+914020850+920497988+925348838+923459915
651+918218217+916887465+920849901+923991226+921582339+916240923+913042495
641+914419967+921068956+933617655+948553087+958100140+958444085+951618415
631+941805828+934892451+936449501+945924723+956533733+958549901+948120288
621+931207200+910590631+890303943+873844660+862811302+861084270+869476709
611+878501265+875312193+863013878+858317012+869057130+886731630+896075564
601+891005114+878030316
##END=
