##TITLE=<SNM>
##JCAMP-DX=4.24
##DATA TYPE=INFRARED SPECTRUM
##DATE=29/4/2025
##SAMPLING PROCEDURE=Instrument type and / or accessory
##ORIGIN=Admin
##XUNITS=1/CM
##YUNITS=ABSORBANCE
##RESOLUTION=4
##FIRSTX=4497.3318
##LASTX=599.83466
##DELTAX=-1.4281778
##MAXY=2.1958885
##MINY=0.51718295
##XFACTOR=1
##YFACTOR=2.0450806e-09
##NPOINTS=2730
##FIRSTY=0.53114402
##XYDATA=(X++(Y..Y))
4497+259717898+259724893+259752407+259362267+258617456+257872938+257221043
4487+256667339+256655564+257706576+259479693+260794733+260835624+259946486
4477+259027270+258440457+257792263+256887533+256406925+256973949+258095871
4467+258968338+259825445+261292711+262983055+264043043+264444754+264584594
4457+264392584+263734714+262919518+262132593+261060509+259609973+258514398
4447+258635177+259799476+260857541+261008689+260539536+260093612+259863421
4437+259784933+260041529+260768648+261537678+261703835+261132236+260256942
4427+259615919+259523470+259882541+260162803+259868667+259068394+258281702
4417+257917093+258078675+258805473+259979799+260988345+261137949+260626331
4407+260380256+260800853+261396643+261565424+261097932+260120746+259008413
4397+258140609+257665539+257715407+258559020+260120425+261694859+262574991
4387+262595975+261877892+260489027+258633982+256934748+256111566+256355192
4377+257290701+258351796+258896553+258497377+257598971+257323693+258181442
4367+259478265+260282503+260444289+260254611+259604202+258224023+256555071
4357+255504788+255375616+255766048+256337122+256923556+257119646+256623009
4347+255722650+254905181+254500759+254821475+255969949+257400841+258232504
4337+258164654+257695093+257357968+257105744+256618317+256021070+255848762
4327+256237474+256525081+255998045+254945663+254448997+254967901+255659463
4317+255466725+254464969+253715670+254033326+255153383+256172742+256697709
4307+257043898+257300435+257108455+256535136+256214478+256437178+256848653
4297+257092337+257231973+257431764+257557789+257408069+257228446+257473063
4287+257981096+257979435+257007087+255338922+253681250+252891235+253514334
4277+255078683+256360060+256848419+257237073+258001877+258543223+258315015
4267+257753995+257488248+257523543+257569155+257467380+257139932+256547493
4257+255757246+254953416+254484380+254733835+255738126+257125301+258504810
4247+259686043+260473755+260613244+260131909+259434926+258861024+258386479
4237+257907912+257527448+257325180+257118889+256778121+256586024+257010147
4227+258204379+259767504+260913092+261115682+260754046+260695260+261064648
4217+261054505+260342717+259771701+260085626+260969692+261720798+261977452
4207+261609783+260788816+260148492+260114538+260383171+260571013+260686574
4197+260600304+259916408+258720106+257757726+257666618+258384352+259313069
4187+259961991+260437789+261087498+261606373+261168493+259804198+258795476
4177+259112112+260247499+261156806+261496233+261392767+260995282+260665065
4167+260641020+260495759+259872223+259326010+259438161+259848557+260031444
4157+260185419+260692928+261354674+261525524+260763605+259379025+258360744
4147+258444653+259362500+260284980+260743116+260857133+260936234+261071147
4137+261012128+260574161+260149017+260299057+260887094+261286765+261329813
4127+261289738+261123959+260557110+259700382+258874023+258109336+257403231
4117+257088694+257475949+258417053+259432915+259984841+259676279+258651498
4107+257698065+257527040+258086544+258854379+259529182+260099353+260499490
4097+260618636+260574161+260611496+260709687+260611263+260319138+260246479
4087+260709745+261497778+262039940+261961830+261476705+261063570+260722656
4077+260016231+259077196+258876588+259970501+261594132+262539171+262511862
4067+262087068+261691944+261260068+260783279+260659148+261274291+262398107
4057+263209515+263046650+262030176+260875961+260234442+260254902+260596253
4047+260828454+260943024+261347970+262221341+263091214+263261801+262517924
4037+261286182+260244264+259811543+259937451+260332895+260757718+261021571
4027+261041944+261099448+261632021+262572076+263385611+263891400+264368102
4017+264731515+264436477+263499861+262790258+262900078+263414494+263613732
4007+263311990+262775715+262406560+262591429+263320937+264100518+264587362
3997+264901724+265098572+264942965+264439566+263993584+263838793+263815097
3987+263800612+263913142+264173265+264303137+264100722+263911248+264375534
3977+265572185+266688394+266850676+266114260+265242521+264770104+264770629
3967+265206964+265939679+266652954+267135164+267349586+267195786+266663184
3957+266089399+265795438+265747552+265917266+266462255+267222687+267593446
3947+267271506+266734619+266707747+267391585+268295004+268820291+268836933
3937+268469468+267816729+267221551+267275295+268086586+268925943+269133109
3927+268937718+268930752+269152782+269129320+268806943+268796334+269378658
3917+269953755+269919014+269484077+269198627+269302035+269713422+270280008
3907+271000191+272010807+273312643+274699001+275972684+276852116+276780506
3897+275506562+273646649+272231291+271982623+272751245+273454348+273458662
3887+273460148+274130259+274937760+275312482+275830600+276660631+276657425
3878+275440431+274371232+274595739+275849165+277271489+278064914+277479966
3868+275911478+275167688+276424991+278668631+279915733+279565201+278235851
3858+276634808+275822643+277443884+281431525+283941146+282932804+280538015
3848+278856560+278482800+279145362+280337728+281527851+282426374+283136093
3838+283575080+283232127+282238765+281607418+281805606+282032328+281460787
3828+280394912+279622297+279696938+281182886+284176437+287031897+287982036
3818+287691515+287287706+286354442+284448888+282513751+281802633+282971276
3808+285628256+288051869+288940249+289148376+290088110+291576565+292367396
3798+292029746+290847085+289496284+289175948+290706983+293620559+296567740
3788+298747639+300622882+302992838+305904054+309022988+312402482+316130292
3778+319826771+323115798+326166998+329602073+334293546+340789264+348469653
3768+356011690+362696357+368316373+372682322+375905625+378290475+379917399
3758+380943287+381860696+383081130+384990036+388298415+393267352+398666358
3748+403406329+408082589+413377138+418017373+420751822+422991498+426743645
3738+432651034+439299445+444048101+446005126+446689780+447471605+448856447
3728+451521326+455883514+460840968+464593814+466577857+467167468+466483047
3718+464634647+462407969+461147257+461911011+464241476+465966474+465743104
3708+464504717+463420130+462858178+462874703+463228353+463499114+463924986
3698+465054253+466506509+467395385+468028043+470015875+474079994+478195117
3688+479664743+478788517+477701919+477813254+479486432+482507059+486331574
3678+489787720+490497118+486977406+482014502+479404767+480049491+481994042
3668+482795219+482187626+481077507+479735975+478130385+476726073+475826647
3658+474621835+472305040+470059593+469970787+472799462+477516991+481168237
3648+480710800+476748224+472011109+468272369+466299169+466353933+468031278
3638+470037297+470882950+470174892+469144136+469718621+472869178+477171356
3628+479602256+479417853+478183400+476962151+476220867+476491016+477814945
3618+479443180+481054103+483033716+485077565+486086403+486019689+486513878
3608+488643181+490946249+491392523+489990747+488203057+487287163+487625104
3598+488979985+491057701+493654845+496270468+498209044+499398874+500326805
3588+501029500+501107785+500780482+500678357+500844077+500952731+501358376
3578+503023918+506002926+508784386+509965706+510128687+510790404+511929755
3568+511982858+510604748+509731202+510661989+512258981+512736324+512054672
3558+511868957+513325119+515828648+517834666+517970659+516231204+514508363
3548+514574989+516119636+517607449+517928923+516736993+514556511+512764303
3538+512529800+513934082+516172098+517857400+517469650+514604309+510500349
3528+506861665+504762207+504660256+506414458+508860164+510166518+509466679
3518+507824045+507044406+507705715+508735013+508892748+507976301+506566889
3508+505447415+505157884+505474462+505491716+504838976+504472618+505489384
3498+507580798+509440506+510515388+511408402+512465214+513124540+512720410
3488+510996753+508139457+504874533+502327460+501371142+501981971+503299517
3478+504192415+503934536+502658960+500931572+499059739+497259487+496079391
3468+496302703+498318863+501491687+504342164+505518121+504706131+502673358
3458+500419837+498463016+496852151+495597793+494836749+494429937+493731556
3448+492151235+489790401+487525281+486620346+487867856+490668785+493273041
3438+494295286+493665279+491989537+489804508+487770831+486562463+486133706
3428+485749890+484914817+483840868+483011390+482754037+483183115+484040572
3418+484613862+484351961+483568009+482920603+482421925+481727478+481025832
3408+480735515+480665566+480497077+480566880+481231890+482104124+482556489
3398+482552671+482580301+482914628+483162072+482754707+481852862+481057222
3388+480355926+479489405+479062979+479829123+481196275+481882357+481672656
3378+481359751+481416789+481755487+482473279+483974354+486305838+488904382
3368+491093783+492480753+492983977+492958154+492973834+493172722+493334946
3358+493605764+494300357+495097891+495433588+495502079+495953658+496901465
3348+497787660+497989404+497272136+495871526+494538999+494337197+495742529
3338+497825898+498938377+498349175+496696107+494908796+493517687+492933206
3328+493355814+494182202+494246846+493001056+491102468+489567264+488610480
3318+487975489+487835941+488214190+488279796+487620149+487243970+487948268
3308+489013211+489624389+490056673+490613408+490843657+490250257+488843963
3298+487196463+486408547+487293080+489092894+489936828+489281814+488718434
3288+489626779+491399926+492748191+493578251+494629059+496245228+498156582
3278+499586104+499551946+498074625+496688996+496699080+497447242+497324481
3268+495930924+494147577+492712983+491829820+491679371+492192855+492572269
3258+491980502+490640106+489583644+489477030+489974892+490083196+489276452
3248+488226810+488085280+489047544+490137814+490405369+489904884+489500346
3238+489862507+490685747+491054203+490646984+490088267+490016803+490275147
3228+490078358+488965733+487454079+486458822+486254309+486351830+486155740
3218+485411541+484216814+482857445+481631095+480771597+480389735+480275630
3208+479963658+479332282+478811134+478740602+478847216+478617550+477945778
3198+477089429+476207256+475260906+474304734+473631825+473474149+473527339
3188+473009426+471435925+469316356+467833644+467734928+468627068+469422067
3178+469458819+469039913+468699903+468269571+467291860+465942954+464767871
3168+463887942+463046923+462219544+461643603+461176373+460104290+458006668
3158+455562915+453974900+453739318+454344551+454960480+455120197+454851768
3148+454406689+454031413+453918795+453923254+453453693+452233027+450834136
3138+449957239+449670361+449749053+450088597+450305818+449655322+448011843
3128+446461076+446184370+446941246+447359715+446770017+445807316+445077895
3118+444453338+443778623+443139931+442487541+441887117+441770361+442183613
3108+442345224+441607933+440321690+439268026+438712603+438380199+438006060
3098+437518546+436885799+436199921+435750295+435567875+435203703+434448371
3088+433873071+434086619+434811290+435260770+435093242+434522313+433822883
3078+433134498+432528274+432012430+431557471+431139205+430736795+430375276
3068+430081986+429716299+429084544+428261566+427469861+426836094+426620885
3058+427175347+428252822+428967321+428733488+427711272+426411942+425365623
3048+424879332+424846165+425085477+425623297+426243685+426371284+425924310
3038+425419192+424873590+423723834+422034976+420690879+420174947+420018320
3028+419653245+419221835+419194293+419490876+419512327+419017351+418333105
3018+417694909+417142225+416940743+417197747+417257524+416445184+415114202
3008+414060131+413438372+412965897+412586569+412369203+412244286+412251514
2998+412580478+413073414+413106348+412264105+410836360+409445864+408498464
2988+408108382+408240353+408693213+409059600+408923578+408129454+406966408
2978+406111545+406077940+406615090+406965097+406759068+406271524+405823093
2968+405400339+404873304+404264981+403751789+403478318+403424370+403489277
2958+403556020+403414199+402936389+402376798+402095108+402057277+401984239
2948+401761248+401399058+400917139+400459528+400218729+400193081+400205147
2938+400069300+399715738+399308052+399108581+399080718+398863702+398234803
2928+397352339+396518431+395892505+395461066+395198991+395103336+395000628
2918+394580818+393837844+393170560+392795401+392523591+392293780+392293838
2908+392398703+392158574+391545122+391125662+391307792+391809500+391990318
2898+391540430+390779153+390281495+390221543+390202074+389798761+389057127
2888+388332544+387890962+387821451+388046482+388218498+387934622+387301351
2878+386868776+386765164+386473273+385717096+384916414+384551223+384672963
2868+385107317+385573001+385692235+385382624+385002889+384799891+384575705
2858+384116228+383548389+383055132+382533372+381824702+381152609+380900560
2848+380932504+380684506+380044123+379501932+379349618+379385496+379444982
2838+379595051+379743722+379579575+379005236+378277185+377644468+377154126
2828+376864479+376918690+377281083+377682852+377940352+378079084+378081648
2818+377759563+376987473+375952812+375041261+374458557+374077861+373730331
2808+373478602+373467644+373670000+373871511+373792207+373278345+372532281
2798+372023111+372017282+372303665+372470056+372349394+372067791+371736263
2788+371313159+370788980+370278440+369820945+369319032+368792113+368430740
2778+368279883+368086999+367607499+366916346+366240610+365602064+364900331
2768+364294311+364139753+364491013+364978819+365257362+365298369+365186160
2758+364902663+364443856+363968378+363666170+363537464+363423651+363218409
2748+362925178+362541391+362019689+361363627+360695556+360166276+359778585
2738+359390718+358962018+358649901+358568148+358626322+358686566+358695426
2728+358637106+358510061+358288207+357832577+357076866+356317571+355957451
2718+355987092+356031801+355813327+355337849+354806529+354501144+354528861
2708+354606621+354339766+353721213+353180333+353145680+353579392+353945545
2698+353767642+353168646+352641027+352434241+352412178+352297170+351872813
2688+351182884+350581323+350363957+350461536+350654129+350834947+350929960
2678+350831799+350522304+350086843+349589623+349072846+348669999+348579619
2668+348827617+349129971+349154424+348864049+348446891+348039205+347703392
2658+347504533+347399056+347184197+346723758+346140471+345685191+345472897
2648+345421164+345371879+345180947+344800775+344366742+344066632+343919652
2638+343869201+343969141+344239435+344554555+344874571+345269520+345593325
2628+345521773+345009223+344387668+343970744+343748918+343493838+343108594
2618+342792017+342779193+343039986+343336191+343413572+343111247+342511610
2608+341961928+341741734+341803377+341974373+342216367+342520295+342737137
2598+342707029+342472118+342226859+342070815+341891483+341537571+341070691
2588+340739600+340661869+340653155+340472220+340103823+339708087+339454668
2578+339470435+339740700+340019505+340059930+339912775+339801672+339803567
2568+339838920+339850695+339827233+339732889+339550935+339360849+339271343
2558+339294251+339373556+339474457+339529425+339424211+339187871+339020780
2548+339007373+339040570+339092682+339263328+339530620+339710127+339652419
2538+339373177+339081315+339058349+339363443+339741954+339920731+339852706
2528+339647610+339454959+339416983+339585793+339888642+340205103+340412414
2518+340399881+340172198+339900563+339772818+339839620+340043492+340310114
2508+340572334+340779150+340916541+340993165+341008787+340959065+340863643
2498+340782298+340795326+340913743+340990250+340834497+340505125+340339259
2488+340537856+340869792+340999926+340964515+341037553+341270599+341479543
2478+341581901+341678547+341862484+342102933+342271743+342264195+342153704
2468+342127415+342230240+342343849+342394299+342369788+342211267+341902471
2458+341584932+341449931+341594550+341972624+342376113+342555677+342467221
2448+342282381+342129251+342008123+341952864+342047324+342264573+342474420
2438+342595636+342608285+342514699+342440262+342634283+343188453+343872815
2428+344368345+344527858+344374844+344060074+343848683+343940025+344279889
2418+344651667+344904066+345046004+345186193+345387909+345564151+345603147
2408+345604051+345826634+346347170+346908510+347212672+347276296+347361051
2398+347592902+347854686+348098691+348491571+349105897+349709614+350003108
2388+349859305+349265585+348254706+346887730+345082144+342501380+338819881
2378+334092239+328786002+323473354+318449856+313609917+308784928+304122105
2368+299904478+296201091+293040974+290720478+289634638+289991231+291825088
2358+295087738+299681457+305628309+313097803+321623409+329304615+333676218
2348+333453343+329514083+324703172+321843661+321391441+322106552+323189011
2338+324558203+326148695+327786316+329348624+330780479+332132416+333564416
2328+335115475+336583207+337826578+339031826+340523866+342505023+345021143
2318+347853520+350486368+352565745+354303480+356154386+358278822+360474052
2308+362386688+363758328+364684684+365549632+366561151+367510270+368070066
2298+368194983+368178224+368355807+368767922+369204520+369571635+369993282
2288+370557769+371190749+371734397+372013901+371984873+371883359+371996968
2278+372275365+372408792+372275773+372084142+372076622+372271022+372515085
2268+372672296+372677309+372503748+372201598+371918858+371783391+371802073
2258+371920024+372095800+372291336+372450645+372478158+372234211+371692515
2248+371140036+370999030+371350436+371844217+372156073+372287839+372383669
2238+372542336+372822744+373183068+373444094+373511100+373546628+373755163
2228+374075092+374200184+373900336+373272836+372616074+372094401+371676077
2218+371337962+371095501+370872889+370575810+370267365+370125252+370248304
2208+370535036+370738092+370706207+370576247+370601925+370811276+370987343
2198+370962191+370795654+370691896+370856160+371396602+372226750+373050369
2188+373561842+373723977+373780140+373963902+374275029+374585282+374882011
2178+375285470+375846023+376455540+376963195+377280325+377423371+377536397
2168+377769064+378094968+378402277+378723925+379166235+379684994+380131035
2158+380434030+380629858+380763227+380808140+380717090+380579757+380602257
2148+380818574+381020697+381109212+381280995+381716310+382268295+382627686
2138+382736224+382876500+383283661+383842815+384320625+384693015+385034395
2128+385302387+385457440+385605411+385873024+386283682+386794105+387346119
2118+387913026+388508932+389068902+389446335+389693429+390149409+391028666
2108+392082097+392860074+393200667+393324827+393537704+393951073+394502970
2098+395171274+396004540+396883098+397485242+397702492+397905839+398526752
2088+399472286+400211063+400388209+400134440+399817105+399721071+399948493
2078+400416771+400939843+401407860+401836763+402238795+402622115+403114293
2068+403827451+404554920+404882018+404735388+404578469+404854243+405437908
2058+405901698+406175403+406571838+407229474+407950443+408582403+409185275
2048+409829446+410536659+411374268+412353465+413312727+414083972+414688097
2038+415258763+415879677+416583479+417410129+418366040+419366280+420325979
2028+421309431+422466066+423800691+425151725+426441233+427790256+429288911
2018+430765387+431936477+432786619+433645241+434836734+436383974+438102444
2008+439869499+441710146+443664052+445643024+447485274+449157781+450746233
1998+452215160+453484908+454800064+456576912+458776164+460855745+462403248
1988+463379647+463871883+464132793+464679764+465906755+467720880+469745172
1978+471712194+473569920+475381772+477233436+479189003+481296710+483580163
1968+485964080+488248698+490282783+492165400+494137901+496282651+498492278
1958+500748888+503186025+505788882+508299348+510526113+512536911+514498162
1948+516554193+518895500+521671772+524710586+527564501+530037603+532400244
1938+534894330+537429279+539901623+542420541+545087576+547821762+550450850
1928+552876387+555212156+557676339+560239559+562619862+564736166+566818078
1918+569032020+571315502+573490155+575379008+577006486+578661885+580484579
1908+582184746+583477868+584441530+585290768+586283985+587787595+589826430
1898+591767046+593023270+593851349+594995771+596694422+598339387+599147938
1888+599187459+599374922+600215767+601214287+601786469+602118785+602732062
1878+603736470+604852330+605806841+606553662+607214504+607797528+608075226
1868+607948910+607747923+607793740+607930548+607720002+606955868+605891654
1858+604940349+604306029+604014633+604065055+604322642+604364553+603706975
1848+602375905+601067220+600447123+600320515+599863282+598728828+597222595
1838+595713563+594384301+593272580+592402765+591827552+591453617+590985017
1828+590267750+589464037+588737326+588126614+587610216+586977120+585883760
1818+584232675+582352040+580741233+579664312+578917549+578061666+576985502
1808+576032506+575567696+575759647+576553217+577473220+577858872+577746779
1798+577954819+578943780+580299623+581304322+581440139+580697049+579847986
1788+579978499+581527925+583751310+585331047+585878281+586213977+587087872
1778+588390030+589726870+591218064+593331628+595972724+598182235+599298387
1768+599555099+599501238+599817174+601113502+603199670+604977830+605828117
1758+606322015+607177490+608675096+610955255+613941083+616866696+618687349
1748+619345277+619718804+620403429+621296327+622046762+622494143+622761698
1738+623343323+625141010+628841948+633294896+635721540+635754299+635184157
1728+634953034+635168827+636026109+637646592+639709444+641938016+644491500
1718+647401142+649785117+650411743+649349918+648055572+648058953+649739301
1708+652188037+654204897+655347629+656271596+658072489+660991865+663550071
1698+664532154+664823666+665126486+665136279+665201331+666248175+668487065
1688+671475690+675191026+679676616+683237307+683884043+682629043+681348279
1678+680881953+681439737+682846584+684675515+686674830+688579247+689660249
1668+689755554+690200313+692035889+694626971+696397902+696771196+696849772
1658+697852432+700324892+704458056+709358852+711841746+710920869+709660098
1648+709892154+711051674+711257090+709958897+708474872+708042880+709166434
1638+711787711+714957912+716488802+715327184+713314287+712194697+712125389
1628+712619170+713643689+715618987+718208438+720033463+720661138+721449637
1618+723387338+725433635+726015843+725714830+725767641+726115170+726126129
1608+725694719+725263484+725343517+726236182+727729591+729146115+730085237
1598+730836255+731937368+733670410+735955524+738378205+740361489+741698504
1588+742993958+745281520+748940606+753180617+756906154+759858639+762523285
1578+765224012+767620636+768942962+769061176+768816296+768903033+769144298
1568+768724022+767203566+764876133+762393296+760583252+760403949+762601511
1558+765881881+767349118+766837267+765847490+765323398+765268488+765256830
1548+765547118+767212368+770656594+774497896+776789772+777192386+776525715
1538+775284530+774326172+774693637+776657977+779443983+782088110+784365064
1528+786378893+788340027+790984678+795406557+802062545+809727838+816509792
1518+822281276+827480987+831324154+833301668+834442768+836121600+839157499
1508+844093152+850465148+855858383+859175652+861605386+863937132+866412682
1498+869522786+873732427+878604952+883104473+886533544+888928827+891092697
1488+893957920+897665446+901590104+904986415+907418830+909070848+910699608
1478+913073149+916503910+920664646+924588605+927197757+928070253+927530597
1468+926683341+927530947+931537679+937203890+941093049+941978777+941294327
1458+941235337+943126172+945791925+947191428+946423214+943296498+938650375
1448+934683164+932963179+932661000+932130496+930732450+928876356+927708268
1438+928348300+930238261+931257242+930900328+930698758+931323693+931973635
1428+932026214+931908699+932564121+934780393+938115907+940504837+940263688
1418+938675032+938421292+939696519+940714684+940332471+938724696+936746133
1408+935703777+936776560+939771190+942925128+944933652+946290836+947536101
1398+947853028+946784850+945609184+945129626+944013066+941350578+939152375
1388+940558465+945761731+950744191+952296474+951872992+952496936+955234270
1378+959423685+964047307+967879575+969841641+969975419+969344246+969368087
1368+971357493+975480864+980125238+983392085+985487871+988692930+994163634
1358+1000122931+1004153387+1005746124+1005569969+1003875457+1001486235
1350+1000379527+1001774658+1005134420+1009162545+1013062429+1016914865
1341+1020693622+1024093955+1026935512+1028640167+1028940598+1029102180
1332+1030923999+1034706719+1039313088+1042680195+1042642656+1039222854
1324+1035823454+1036704460+1042660609+1050420974+1055920824+1057245190
1315+1055639512+1054502376+1056232213+1059238617+1060426349+1060758956
1307+1063905958+1069809645+1073293451+1070288912+1063483116+1059495329
1298+1062257728+1069214263+1073741823+1072856853+1069539526+1066776544
1290+1064127929+1060702414+1057949225+1057280397+1057045369+1054181194
1281+1048604051+1043370008+1040705304+1040363371+1040427491+1038539103
1273+1033301679+1025933844+1020240470+1019176080+1021703684+1024093722
1264+1023797255+1020525861+1014816165+1008442421+1004329775+1003746051
1255+1005188631+1006585394+1006950177+1006199159+1004309140+1000066855
1247+991825359+981034108+972036522+967260119+964711414+960812112+954357052
1237+946401880+938181659+930833235+925576866+922481044+919355552+913539884
1227+905457346+898165464+893407831+890154099+886914882+883799008+881572009
1217+880152513+878753068+876981146+875516008+875330060+876184253+876556265
1207+875425366+873587866+872904057+874509210+877834872+881661952+885433422
1197+889130746+892547809+895498428+898351994+901323948+903976411+906274990
1187+909117247+912937973+916574733+918637293+919577873+921535976+926029902
1177+932111260+937694290+942528226+948185052+954805599+960144100+963221968
1167+966730780+973747996+983328782+990585398+991858235+988632074+984823706
1157+983004918+984394570+989494428+996437906+1000953224+1001187204+1000299669
1147+1002147369+1006912988+1011224638+1011190946+1007625767+1005544904
1138+1007538098+1012285647+1017451956+1021158899+1022438730+1022296967
1130+1022521037+1024508752+1029301301+1035760266+1040357309+1041276670
1121+1040940333+1042458690+1044750683+1043548028+1038940727+1035571288
1113+1036111293+1038938978+1041202874+1043271380+1047662772+1053192350
1104+1055161528+1051723773+1046212615+1042023608+1040764878+1043147570
1095+1046670780+1048550890+1048487120+1048073955+1048579336+1047691335
1087+1045838388+1047271875+1052122248+1056915031+1058662238+1055511040
1078+1048245680+1040617868+1036690470+1037845327+1041356412+1043802642
1070+1044911565+1044428685+1040268940+1033766723+1030375600+1032419157
1061+1035679359+1034199823+1026435844+1016619914+1011011527+1011868635
1053+1014193736+1010857407+1002592943+997583436+1000554982+1007634744
1044+1012132808+1012608111+1012150179+1013648834+1018204373+1024283983
1035+1028611372+1030143836+1030769412+1030044975+1024293659+1013780222
1027+1004629506+1001428644+1003059269+1005555396+1006397698+1006394900
1018+1007271359+1008699833+1009645542+1010337686+1010782445+1010511276
1010+1010891915+1013434324+1015954234+1013977361+1005804997+993800716+981957900
1000+974266842+972175720+972334271+969666011+963052984+955142462+948469628
990+944097646+941602685+939851165+937924130+935562655+932746163+929356497
980+925999591+923836945+923384784+923238882+920282958+913098623+904232832
970+897271284+893161552+890814999+889838804+890547562+891816376+891359319
960+888252713+883659285+879697962+878107382+878897513+880234936+880411440
950+880099060+881951424+887504726+895049007+901310075+905097459+907513844
940+909294801+910465571+911717948+914199735+918411767+924233264+931056081
930+937938936+944545785+951236631+957368935+960701943+960548405+959535311
920+960408157+963308763+966589775+968994269+969912873+968967572+966621952
910+963482703+959259829+954798721+953153231+955750842+959713739+961125308
900+959966255+959301041+960065641+960617188+961456225+964927439+970220356
890+973531796+973556978+973482191+975076443+975085070+971486082+968444295
880+969962653+973897629+976108889+976919363+978929462+981553595+983184220
870+985218101+989426461+994363688+996310949+993001433+985978213+979652733
860+978293276+983073351+991327672+998935548+1003405167+1005003966+1004832124
850+1001714502+995602833+990178062+988238962+989629196+992654486+996301855
840+1001271026+1008010603+1014401368+1017681505+1018640621+1020496133
831+1023619118+1024909209+1023867670+1023754469+1025190404+1023821854
823+1015948871+1005479502+999260578+998332589+1000066622+1004941944+1014402417
813+1025045610+1031915292+1035054599+1036060697+1031776909+1020173901
804+1008257056+1005472040+1013565129+1025678880+1034040689+1036992999
795+1036185206+1032695921+1029886657+1030429927+1030631263+1026152085
787+1020035519+1017488913+1018477524+1018816193+1016807727+1014297844
778+1011906174+1009064266+1007904280+1011742144+1018665686+1022315504
770+1020031789+1014219268+1006143900+996234471+988940199+987963130+990954145
760+993173973+991872924+987544369+982708335+981018253+985556654+995855115
750+1005984183+1008870625+1006401778+1007947765+1018375865+1032898424
741+1042451929+1043498831+1040089288+1038383700+1041922066+1048343259
733+1049844362+1041632594+1029488181+1023224840+1027183948+1037482409
724+1041369936+1030282218+1012505986+999221872+995523790+999190395+1004327327
714+1008607267+1012109609+1012787530+1010402855+1007565495+1004132635
706+1000691033+1001961655+1010821266+1024226858+1033675556+1034943846
697+1028490243+1012337759+992556325+982335507+986588284+995997228+997597659
687+991280806+987142512+990354566+998691543+1007034816+1010158267+1005668014
677+997595677+994402626+998101408+1001294459+998251098+991689075+987373460
667+987698606+988804265+985985441+981222387+978762284+975921542+965588865
657+952231247+950959226+969971688+1002283186+1025563931+1018964485+994463248
647+977185111+978432708+992272565+1003500647+1001686639+992586169+986837419
637+984842126+981337336+973241508+964051096+959138060+957244834+954488090
627+952534533+954076907+958071222+961549374+964140164+965294496+961469690
617+954834337+951466006+955501533+964508329+974154516+981057307+976726304
607+955789664+932091266+922080878+926611236+934715516+936664700
##END=
