##TITLE=<SNM>
##JCAMP-DX=4.24
##DATA TYPE=INFRARED SPECTRUM
##DATE=29/4/2025
##SAMPLING PROCEDURE=Instrument type and / or accessory
##ORIGIN=Admin
##XUNITS=1/CM
##YUNITS=ABSORBANCE
##RESOLUTION=4
##FIRSTX=4497.3318
##LASTX=599.83466
##DELTAX=-1.4281778
##MAXY=2.2248025
##MINY=0.67400104
##XFACTOR=1
##YFACTOR=2.0720088e-09
##NPOINTS=2730
##FIRSTY=0.69181108
##XYDATA=(X++(Y..Y))
4497+333884242+336240745+338157722+337811890+334590693+330186958+327347953
4487+327172765+328561070+330204822+331704569+332671989+332413061+330976687
4477+329532144+329483672+331270049+333768112+335326974+335557394+335092382
4467+333899949+331806374+330243801+331333940+335110563+338837736+339567400
4457+337103139+333851046+331927481+331266137+330705533+329978026+329703075
4447+330110237+330876464+331750077+332438951+332339879+331297895+330245757
4437+330423247+332082101+334122545+335160760+334705241+333139331+331333393
4427+330465361+331217492+332994434+334742235+336046944+336456293+335044601
4417+332067804+329486405+328657467+328919732+329074525+328933971+328897322
4407+329065003+329366333+329929439+330735681+331178859+330515616+328844795
4397+327154326+326343942+326658850+327843228+329216373+329717199+328775812
4387+327410319+327486867+329571727+332214917+333478633+332948062+331950667
4377+331603224+331325166+330060874+328450002+328371757+330389245+332829975
4367+333707270+332848213+331605036+331155558+331818455+333244013+334472778
4357+334413577+333054182+331895636+332442863+334460955+336159335+336017890
4347+334361250+332919324+332796779+333401712+333545803+332747358+331062843
4337+328794971+326734247+325598714+325288697+325436672+326083863+327280323
4327+328747103+330034092+330517083+329865232+328747391+328170908+328229822
4317+328347506+328339567+328421868+328624960+328837229+329035719+329240422
4307+329435891+329559530+329487699+329159588+328815424+328815510+329257308
4297+329732561+329398091+327969916+326609083+326926494+329034539+331417708
4287+332920331+333854642+334672476+334823501+333857518+332586265+331961857
4277+331670394+330853998+329580385+328773425+328973122+329720133+330220557
4267+330432883+331118967+332558390+333628133+332843496+330202262+327358338
4257+326021785+326565732+327924235+328716755+328569268+328186874+328214662
4247+328587765+328869937+328621738+327718956+326760597+326527329+326844826
4237+326855297+326441719+326342676+326840827+327376346+327485630+327365846
4227+327550499+328490275+330225591+332172659+333495318+333812096+333253420
4217+332016111+330421636+329236107+329156999+329906110+330532905+330596393
4207+330471229+330692042+331381462+332117110+332332716+331910422+331191286
4197+330486907+329950353+329837185+330248346+330741578+330803829+330568230
4187+330637385+331227647+331747632+331477571+330608705+330051093+330248058
4177+330895479+331628107+332178326+332196564+331747920+331592810+332255650
4167+333332729+334018870+333889679+333220050+332651162+332367926+331753069
4157+330372071+328995244+328823824+329940629+331239125+331776974+331625777
4147+331324878+331081311+330813235+330486447+329964563+328959947+327719273
4137+327260935+328173871+329677818+330659046+331084476+331536744+331993960
4127+331949085+331338082+330607439+330041802+329680493+329750396+330354466
4117+330798306+330349719+329648159+329941320+331009280+331420211+330796004
4107+330282262+330741031+331720822+332387171+332710450+333315182+334409521
4097+335296826+335166945+334115670+332893550+331861692+330802390+329702672
4087+329144917+329683255+331168071+332750263+333413074+332788695+331577506
4077+330819046+330873243+331494285+332478016+333697202+334839006+335571173
4067+335808354+335630490+335126931+334371175+333443308+332503216+331773810
4057+331386122+331321944+331529811+331955500+332376786+332371954+331677758
4047+330684160+330336544+331240995+332846516+333718029+332937908+331186741
4037+329988411+329981334+330501003+330809323+331079125+331849523+332965006
4027+333649996+333568788+333145229+332655420+331884216+331028841+330859578
4017+331581160+332443697+332716491+332322245+331575320+330869071+330407943
4007+330076120+329835603+330096401+331264526+332961698+334102034+333963552
3997+333010601+332386509+332597225+333088702+333266106+333275714+333379763
3987+333302639+332777965+332143058+331827546+331732760+331574774+331438564
3977+331649480+332278002+332883826+332839440+332047294+331125094+330723771
3967+330922088+331361210+331763885+332302166+333279597+334272534+334202459
3957+332826754+331407755+331258370+332485064+334490527+336579040+337805993
3947+337447992+335986247+334685910+334248485+334516561+335146377+335851533
3937+336250439+336306994+336713668+338004799+339487372+340048522+339728004
3927+339414132+339492176+339471090+338870817+338126625+338183900+339251860
3917+340194973+339644006+337723346+335807922+334803335+334468089+334367090
3907+334846111+336501169+339007574+341252231+342612748+343035012+342235244
3897+340223682+337998470+336780492+337039564+338256420+339459641+340426659
3887+341544874+342366736+341901033+340576101+339809069+339631953+338894866
3878+337779297+337815917+339596512+342156250+344518880+346187688+346147127
3868+344193127+342231993+341800753+341963601+340918050+338777124+337129201
3858+337411430+340953318+348411605+355685527+355615969+349884081+344326920
3848+341536158+341630713+343398910+344971810+345231486+344863015+345272277
3838+346553484+347507442+347760962+347912015+347892051+346955037+345249005
3828+343860614+343338586+343526864+344497708+346040086+346822682+346449694
3818+346404559+346970772+346534440+344637456+342769065+342179897+343036422
3808+344538729+345581230+346438763+348578365+352171485+355196696+356146569
3798+355510166+353736590+351115435+348704046+347409894+347206831+347861329
3788+349489317+351955506+354364219+355903319+356937967+358418095+360463055
3778+362435494+364156485+366154929+369223376+374016323+380267937+386386104
3768+390743869+392848146+393037315+392517388+392975381+394818140+396485711
3758+396677872+396527308+398159927+402655916+409494830+416051946+419691352
3748+421778168+425212813+430408722+434698024+436718388+438377761+441605948
3738+447152062+454582791+461998590+466930393+468484537+467900719+467096722
3728+467361806+468896676+470866239+472191545+472429646+471699377+470412245
3718+469091944+468313606+468961516+471651021+475026148+476165708+474600546
3708+472536658+471317990+471196192+472638578+475646730+478456622+479057729
3698+477902664+477510662+479831551+484579737+489818652+493536505+494421250
3688+492307941+488475252+484611265+481950182+481136289+482290548+485262886
3678+489680170+494082610+496108181+496111403+497102873+499777476+501013059
3668+498607826+494582861+491150603+488359840+485967725+484787547+485574428
3658+487675828+489357984+489829699+490363204+492674830+496694272+499361914
3648+497416486+492157492+487581301+485937002+486602316+487628651+488227629
3638+489197006+490891359+492372551+493097066+494205041+497092862+500742020
3628+501847175+499667703+496730518+495575251+497640060+502228160+505763575
3618+505062878+501554734+498759368+498452256+500548076+503988043+507120726
3608+508373914+507534734+505982719+505343583+506237706+507969168+509532862
3598+510775234+511659347+511462411+510186037+509629863+511680864+516092682
3588+519873822+519771815+516486152+513578021+512832564+513158547+512750867
3578+511481282+511018600+512629241+515523276+517993809+519663883+521200307
3568+522339810+521967397+520172476+518300519+516941585+515742593+514787369
3558+514861069+516067023+517233566+517365144+516929100+517369114+519699554
3548+523237615+525677771+525354607+523144066+520944457+519484207+518738749
3538+518815671+519279676+519153046+518200871+516930481+515779011+515366268
3528+516425569+518418347+519558540+519067897+517871609+516668302+515144018
3518+513344954+512179102+512078304+512224208+511839311+511551932+512484373
3508+514375834+515709224+515749842+515453776+516050395+517445806+518371515
3498+517868905+516278227+514678689+513905673+514365823+515992747+517955320
3488+519052248+518919058+518180562+517247891+515810194+513576008+511160361
3478+509749705+509786354+510395515+510337694+509359860+508228872+507645658
3468+507642609+507881545+507996151+507537093+506187134+504358557+502866203
3458+501840731+500871067+500054728+499872981+500201783+500487263+500674706
3448+500868248+500402171+498481541+495585550+493514987+493858115+496357358
3438+499119239+500397339+499734384+497553760+494624170+492109854+491055386
3428+491340463+491850955+491946978+492142188+492986372+493998151+494549262
3418+494986572+495817408+496331007+495216877+492583755+490129101+489160012
3408+489498595+490177889+490336854+489659976+488713382+488439466+488834777
3398+488873842+488054972+487126386+486880950+486993600+486729177+486465905
3388+487552880+490423326+493503711+494515375+492808998+490015991+488204443
3378+487914649+488377618+489084011+490357623+492282857+494038309+494734749
3368+494382358+493891485+494331384+496018027+498166662+499586121+499726962
3358+499136499+499140008+500611477+502811604+504223411+504432142+504291013
3348+504439621+504662505+504749552+504944187+505217240+504975830+503922110
3338+502719609+502191626+502079034+501544033+500789197+500881020+501965291
3328+502858494+502529749+501111843+499378541+497941419+497155113+497198665
3318+497743045+498061491+498055392+498717312+500680229+502816437+503309324
3308+501705816+499081094+496841384+495959055+496555042+497723023+498198707
3298+497494501+496378472+496136603+497204131+498728128+499833974+500873713
3288+502450813+503879305+503892135+502499544+501123580+501194576+503039723
3278+505723820+507727586+508117661+507367600+506918957+507652045+508951259
3268+509574862+509089166+507828959+505986919+503848582+502316531+501975129
3258+502299731+502599077+503025340+504026475+505475506+506630255+506520021
3248+504671480+501775776+499115096+497423735+496808418+497152351+497977147
3238+498393055+497767554+496448375+495619379+496114913+497397500+498240304
3228+498278736+498086748+497979621+497652890+496878781+495979537+495493266
3218+495489182+495426758+494846363+493899942+493001504+492352011+491960440
3208+491711897+491513120+491605921+492210250+492796283+492522367+491409388
3198+490159306+488975273+487598964+486152464+484970732+483959529+482827506
3188+481729887+481204638+481438338+481863853+481779913+481203344+480533801
3178+479583985+477922686+476006456+474799726+474494513+474513959+474480647
3168+474374728+473996275+473044791+471711632+470698357+470479443+470829360
3158+471277458+471676048+471931639+471610402+470361874+468403991+466272357
3148+464521593+463622349+463440746+463038876+461937116+461201151+462022811
3138+463674417+464185829+462921624+461198533+460246215+459867877+459386180
3128+458842002+458704297+458992509+459267921+459193271+458679241+457885484
3118+457406549+457838710+458825548+459194940+458343477+456774921+455151852
3108+453697355+452582448+452208827+452745267+453481490+453212465+451646412
3098+449830664+448900899+449121021+450061947+450937862+451032274+450429469
3088+449855173+449522056+449022006+448467961+448517152+449076576+449073987
3078+447845999+446012531+444741536+444746369+445909000+447385762+448170342
3068+447833111+446669618+445134977+443480581+441957591+440939541+440637463
3058+440862418+441225855+441543237+441897555+442259698+442288062+441741266
3048+440921159+440375342+440234702+440176306+440010524+439922441+440071135
3038+440285734+440220031+439726425+439074775+438603722+438121364+437121322
3028+435712161+434608559+434060354+433655033+433273329+433302182+433752696
3018+433994997+433550294+432674322+432052043+432042809+432304269+432271877
3008+431839631+431303565+430907880+430795173+431090721+431680868+432063406
2998+431614963+430096403+428002138+426232531+425246355+424796417+424542638
2988+424494828+424727636+425027815+425063256+424800732+424613173+424856510
2978+425370828+425612611+425254007+424436805+423608931+423230938+423303142
2968+423238907+422647696+421913025+421527927+421447150+421423763+421271271
2958+420726892+419787461+418948685+418537064+418302702+417999042+417733124
2948+417560495+417299611+416835088+416294305+415981928+416191205+416819007
2938+417307694+417315404+417117490+417038813+416963933+416694103+416354743
2928+416125071+415945826+415749379+415519476+415073968+414300779+413514214
2918+413064535+412770857+412260796+411571951+410907960+410197195+409416384
2908+408950595+409161051+409849378+410446861+410530658+410021978+409172702
2898+408462512+408176227+408020053+407539593+406911503+406802190+407363858
2888+407876191+407621290+406760450+406018329+405789577+405921817+406099882
2878+406094676+405817049+405371541+404996597+404910844+405229319+405813108
2868+406186067+406013295+405624860+405545838+405650865+405416417+404871865
2858+404580459+404723573+404886421+404764508+404499970+404251312+403957749
2848+403662805+403652161+404056418+404533742+404550628+403934189+402983137
2838+402094421+401534997+401471682+401821743+402142577+402049632+401654206
2828+401301182+401099730+400924254+400607648+400047390+399311742+398622782
2818+398153512+397935634+397972484+398275396+398731491+399019358+398794835
2808+398079036+397354002+397102496+397319799+397572743+397437828+396815693
2798+395924216+395073732+394443053+394074696+393998752+394181938+394359601
2788+394185103+393659652+393187362+393111821+393384068+393671187+393592482
2778+392940314+391875001+390845761+390252335+390216894+390508185+390630069
2768+390257656+389606007+389142145+389043706+389123792+389107510+388894839
2758+388683663+388695199+388720168+388318788+387535301+386948261+386941328
2748+387296538+387520284+387331662+386808052+386196819+385670793+385273383
2738+385032865+384982035+385045321+384993311+384595699+383879814+383169394
2728+382787431+382778341+382959685+383131738+383177851+383048315+382711027
2718+382167223+381590108+381318177+381453236+381600579+381352352+380850806
2708+380470310+380218487+379924119+379714928+379806406+380019595+379922105
2698+379347694+378563890+378003200+377889170+378100834+378394570+378623466
2688+378642308+378255225+377518426+376884611+376782058+377168681+377631910
2678+377817224+377662690+377329631+377022576+376823252+376653155+376440915
2668+376256953+376200973+376242196+376225540+375961836+375373099+374653359
2658+374133029+373892022+373728139+373541185+373434576+373435956+373443004
2648+373420336+373400113+373365076+373304148+373266291+373229297+373054943
2638+372699963+372351858+372256411+372484760+372891807+373192390+373147715
2628+372825587+372496813+372179173+371706854+371302280+371392147+371794563
2618+371864178+371469357+371071083+370946035+370989904+371075830+371129019
2608+371077786+370973708+370947933+371029084+371191212+371468896+371853621
2598+372201323+372371103+372346824+372143042+371714045+371075226+370414054
2588+369969553+369907848+370331868+371158447+371937907+372121265+371635599
2578+370960418+370593788+370627704+370828034+370953025+370909703+370692975
2568+370384741+370217578+370393400+370822453+371238418+371497778+371606919
2558+371608472+371545013+371393988+371076405+370622411+370169797+369774199
2548+369423447+369208676+369293681+369732056+370364432+370848372+370862612
2538+370380109+369712523+369261376+369213192+369418212+369606173+369731998
2528+369936874+370200635+370311731+370173652+369917571+369758780+369838780
2518+370077629+370180153+369963109+369635112+369589431+369948754+370417592
2508+370601325+370425963+370156909+370026913+370009078+369992911+370014313
2498+370217837+370650631+371119238+371263532+370891752+370291767+370044950
2488+370404417+370981792+371199152+370950206+370618815+370532860+370660958
2478+370838534+371031328+371247566+371344567+371132155+370664007+370251839
2468+370141980+370307790+370594622+370922446+371254441+371460871+371368530
2458+370991054+370614845+370525151+370674162+370784079+370773867+370838994
2448+371048070+371158735+370981590+370667977+370478434+370479498+370577132
2438+370675312+370744151+370841698+371033888+371219490+371168228+370835830
2428+370485999+370366388+370398463+370355399+370253565+370368315+370883180
2418+371679525+372457087+372957482+373088887+372913497+372571779+372278273
2408+372303847+372764026+373466938+374135474+374668461+375059141+375270517
2398+375330007+375369647+375534566+376011603+377120929+379263810+382810214
2388+388087188+395424713+405134188+417374519+432025866+448746451+467133485
2378+486797987+507401545+528591597+549599671+568994054+585381005+598557257
2368+609682969+619885043+628288745+632155609+630294985+624847052+618048181
2358+609093427+595738533+578025385+558581984+540524615+526284631+517554716
2348+515684484+521341148+532812060+545175598+553971043+558833864+561551042
2338+563497045+565110909+566315021+567427828+569202842+571561358+573216128
2328+573288102+572085255+569984258+566778796+562248575+556633507+550497937
2318+544353276+538371550+532545278+526972785+521459782+515115711+507282681
2308+498637053+490461528+483172993+476254798+469282523+462471081+456308959
2298+450959810+446121930+441446955+436899819+432596020+428546833+424709628
2288+421097262+417806392+415016837+412808397+410953613+409163583+407508151
2278+406287757+405593763+405251642+405015525+404653268+404066429+403389666
2268+402773601+402183943+401592300+401128094+400847447+400564844+400082629
2258+399463342+398937086+398579920+398226349+397753513+397276074+396938066
2248+396742223+396687336+396769407+396805279+396598649+396266539+396108926
2238+396235327+396480936+396561080+396309113+395911961+395773278+396008099
2228+396293665+396315672+396105589+395851091+395600937+395252228+394707446
2218+394009597+393387290+393111159+393194410+393306427+393127757+392706327
2208+392336273+392228427+392381724+392596007+392600437+392370132+392243904
2198+392533871+393156438+393805038+394314034+394698241+394968388+395110006
2188+395232840+395534400+395999671+396288315+396103288+395609883+395349517
2178+395721239+396562834+397290025+397528385+397509946+397717008+398300941
2168+399027470+399624032+399995380+400191309+400299644+400372740+400430360
2158+400489907+400554258+400599507+400602959+400573589+400559666+400627267
2148+400809130+401073552+401359262+401623081+401851056+402053285+402259829
2138+402510559+402831911+403197045+403524236+403759144+403931945+404075922
2128+404136735+404065393+403994771+404222948+404950110+406041889+407103031
2118+407792423+408038061+408016543+408038291+408357427+408936442+409491436
2108+409860137+410136814+410404948+410667731+411080502+411835396+412751209
2098+413385397+413594329+413633164+413752287+414022031+414457989+415021268
2088+415549365+415886452+416026085+416049271+416042338+416126423+416420648
2078+416908817+417444940+417921200+418329167+418643443+418796337+418844464
2068+419026067+419516710+420194912+420772487+421117773+421330099+421567049
2058+421932328+422462640+423089033+423649694+424033555+424285148+424551843
2048+424983889+425659846+426544850+427522829+428451731+429178030+429621668
2038+429916641+430353807+431130361+432220184+433478895+434778714+436029227
2028+437142235+438068779+438895272+439807432+440921648+442260647+443818387
2018+445414416+446636306+447250271+447552292+448103805+449283725+451128613
2008+453374651+455652995+457749447+459630667+461322517+462903156+464417890
1998+465729531+466781641+467952326+469653986+471663822+473373795+474639611
1988+475811534+477036128+478114242+478975284+479811587+480767012+481875159
1978+483254287+485018197+487032837+489018538+490870934+492748473+494854590
1968+497159198+499365423+501246644+502903370+504536104+506197893+507924925
1958+509848087+512049192+514481523+517004756+519435304+521728980+524049869
1948+526472534+528887548+531327243+533899092+536351732+538359180+540127348
1938+542008281+543930235+545815252+547978558+550565366+553182608+555502635
1928+557729917+560299350+563420238+566872518+570121762+572759199+574699851
1918+575923698+576598504+577447004+579241982+581963878+584783120+586800464
1908+587798434+588355874+589266221+590800747+592540666+593941829+594947855
1898+595934606+597198381+598748210+600542440+602556447+604489448+605838831
1888+606511279+606891113+607219858+607512414+607884884+608372881+608736261
1878+608824516+608796958+608907594+609427464+610651253+612533279+614300699
1868+614939260+614416628+613708970+613471013+613426482+612961959+611865721
1858+610385335+608932046+607848753+607192702+606761549+606471179+606615472
1848+607661771+609705350+611816473+612148727+609899582+606478600+603639567
1838+601921741+600809279+599777651+599151172+599496659+600329682+600323009
1828+599107217+597473217+595747393+593683275+591541889+590012657+589316563
1818+588975506+588338153+587293523+586373337+585987117+585815380+585274165
1808+584313361+583355606+582864675+583226041+584447413+585746398+586113920
1798+585595143+585305751+586193891+588160951+589854671+589724186+588077355
1788+586707260+586769338+588132817+590073872+591964068+593341528+594136061
1778+595048308+596978834+600083383+603555626+606025757+606745612+606326252
1768+605524010+604673324+604480645+605792172+608299929+610537222+611874179
1758+613069661+614527782+616023876+617955495+621098246+624921730+627389731
1748+627608185+627067027+627409292+628999740+631383686+633704632+634982445
1738+635531484+637366333+641727924+646247502+646995549+644710791+642484543
1728+641455907+641480014+642315856+643643952+645326914+648024070+652624194
1718+658349092+661772433+660744257+657675321+655725061+655894208+657628316
1708+660139871+662765628+664803742+666365998+668586204+671727402+674101394
1698+674826197+674934187+674352009+672684179+671383583+671957534+674277043
1688+677684159+682579601+689035631+693645421+692981028+689610330+687237661
1678+687061495+688699982+691117240+693582882+696444699+699945996+702525612
1668+702302671+700620228+700386643+702330057+704603711+705381445+705181172
1658+705618597+708049317+713477402+720653920+724172132+723433867+724333973
1648+728430107+731609621+729578412+724646264+721210784+720622910+722583929
1638+726798696+732449088+736724035+737454476+736828918+737790355+740979708
1628+745508261+750651901+756316908+761717606+765272985+767129064+769610010
1618+774654348+781664884+787454794+790387146+791833186+793086777+794293535
1608+795343689+796760271+799257097+802237777+803806419+803249210+802264760
1598+802545177+803711605+804566433+804997989+805835385+807625876+810032604
1588+812302404+814167688+816063579+818312494+820333578+821243120+821358705
1578+822181602+824507784+827066746+828746485+830476450+832573018+833646012
1568+833340108+833210658+833972513+835699199+839664790+847257848+856297694
1558+860592317+860144422+859861128+859980222+858284143+854435345+850644828
1548+849904318+853760308+860786434+867709289+873047334+877052335+877215269
1538+872366199+867167787+864854952+864671709+864532248+864090739+864689141
1528+867076539+870304554+872278460+872107587+871393830+872543228+876181628
1518+880901306+884779043+886617517+887075193+887878644+889836902+892349491
1508+894277774+894878133+894813408+895559786+897558777+900675983+904872282
1498+909378110+911749801+910184035+906589418+904707852+906920982+912798228
1488+919265247+923362876+924347039+923157195+921414284+920507504+921240534
1478+924289679+929976202+937027528+942383639+943673188+941711996+939244800
1468+938495143+939780837+941651989+942178648+940866316+938951266+938413215
1458+940589754+943030600+940661325+934251321+928463252+926094783+927438298
1448+930635360+932721571+932029792+929818159+928911033+930668442+933602289
1438+934899721+933391315+931241702+931020832+933054343+936421301+939451862
1428+940503339+940101124+940508574+942299986+943439661+942944818+942522754
1418+942770492+941434859+938078948+935599900+936157454+938662967+940645043
1408+941100591+940411804+938801334+936611276+935222482+935820885+937965952
1398+940105785+940853774+939882498+938615272+939174667+941975268+944751130
1388+944417667+940913493+937964054+938887001+943664098+949953339+955411916
1378+959272739+962294095+965436615+968619697+970963715+972142455+972336342
1368+971495436+970389073+971214790+975361207+981324063+986130271+988370844
1358+988185932+986311155+984313027+983441054+983830094+985434119+988185357
1348+991378564+994810419+999093421+1004271984+1009618544+1013481207+1014275626
1338+1013259935+1014048255+1017973284+1023090517+1028393237+1035030842
1330+1041639565+1043711796+1041002557+1039233757+1041736336+1045187062
1321+1045200755+1042200744+1039366083+1038717684+1040407779+1043286740
1312+1046671763+1051852973+1059838926+1068077795+1072746959+1073741823
1304+1073113215+1071834828+1069610824+1067225843+1066788361+1068162139
1295+1068692480+1067537558+1066754761+1067169346+1066613345+1062451278
1287+1054862304+1046891080+1040797279+1036445928+1033304616+1030924467
1278+1028224664+1024935607+1023039658+1024753226+1029148993+1032437130
1270+1031301080+1025945429+1020022732+1017532810+1019068026+1020818646
1261+1018990586+1014333274+1010163613+1008040638+1007071779+1005703295
1253+1003269180+1000281826+997579262+995584011+993702330+990468274+985444820
1243+979598872+972853795+964274963+954815757+946246360+938373920+929915217
1233+920931408+912827397+906431604+901187281+895967639+890633909+886398430
1223+884044805+882644332+880668699+877551263+874093805+871738857+871054269
1213+870971709+870143461+868594265+867320019+867091900+867995574+869398636
1203+870449710+871204833+872926342+876842339+882681958+888719377+893244996
1193+895866093+897386235+898959365+901741383+906389433+912152360+917252391
1183+920717442+922864581+923990621+924571073+926127979+930005487+935349227
1173+940193925+944379293+949132916+955080237+962164645+970003831+977628936
1163+983522291+986621029+987231456+985921655+982888850+979910817+979682065
1153+982664011+986703992+989918602+992097499+993350917+994241186+997392624
1143+1005516542+1016652897+1023704166+1021292374+1012066121+1003170338
1134+999043252+1000375720+1005892464+1012917152+1018490048+1021019322
1125+1020266212+1017333515+1015351151+1017281275+1022613222+1027972554
1117+1030714816+1031833837+1033885586+1037747329+1043082958+1047715070
1108+1047364118+1040539185+1031512802+1026509600+1027340955+1029799923
1100+1028700464+1023658485+1018526063+1016779355+1020494274+1030561663
1091+1044546602+1054806267+1053778724+1043421943+1033286895+1029525260
1083+1029852624+1027539444+1020211786+1011539692+1004861239+1001728786
1074+1004102031+1012941661+1025273326+1035332776+1039582983+1038176987
1065+1032012995+1022118321+1010556220+1000472837+995504960+998412343+1008742083
1055+1021063162+1027861630+1025654887+1017133185+1008454187+1004671609
1047+1005875779+1007472670+1005558771+1001337906+998749257+1000288960
1038+1005327948+1010656443+1013841365+1015992071+1018755160+1020685744
1030+1019890175+1016043161+1009813811+1003281147+999476937+999816383+1002059257
1020+1002524700+1000659589+998951544+997968071+994701221+987844760+981436137
1010+980025078+983910640+991050395+999405481+1005110933+1003477335+994985665
1000+985216298+977241967+969008391+958480679+947689926+940170337+936781516
990+936076390+936931045+937816999+935980136+930078496+922248919+915861180
980+912295158+910849636+910554491+910400014+908603137+904167385+898602890
970+894101435+890925200+887792862+883834061+879231347+875073538+872661574
960+871959036+871420353+870013378+868879572+869847510+872914893+876106949
950+877899972+879459294+883290372+890067092+897991369+904514368+907904512
940+908211279+907127008+906245484+906167815+907312783+909958447+913818694
930+919316509+928185884+940693026+953381397+961964430+965001032+963523004
920+959543318+954384776+949793109+947593500+947677729+948867630+951028347
910+954241231+955989895+952977974+946519067+941184302+939476371+940315551
900+941067222+940966826+941982920+945283082+948832938+950579933+951750331
890+954659440+959055091+962511973+964099659+965607374+968924278+973459390
880+975955295+973400821+966673464+960173421+957505377+958268037+959612530
870+960549516+962557884+966329531+971142068+976693216+983562794+991265914
860+996626857+997076537+995119027+994939409+995667204+991863109+981391837
850+968947982+960822913+960722230+969133123+982381408+992562022+993798640
840+989091504+985250013+985617075+989664305+994965529+998755240+1000172283
830+1001014224+1002358430+1002795912+1002697645+1005465567+1010904526
821+1012723955+1007471980+1000990520+1000441884+1006037332+1012578512
813+1016275710+1018975167+1024852874+1034470813+1042360686+1043431954
804+1040519048+1039057820+1038783157+1035359932+1027315870+1019414951
795+1018210551+1024337837+1031566308+1034205355+1032283056+1030581224
787+1032990599+1037157959+1036195774+1026660222+1013954821+1006559273
778+1006488508+1008881543+1006847630+996873215+982764579+972880145+972944237
768+980292492+987279439+990524081+991405144+990619471+987710938+983694891
758+980604322+979817383+982407643+988068219+992710918+992546833+991082613
748+995861206+1008483759+1021565082+1026277741+1022089094+1016508489+1015058192
738+1016845404+1019263179+1021421364+1023523972+1024338182+1021366247
730+1014116834+1005227840+999776570+1001684371+1010937320+1023421448+1033323256
720+1036481944+1031847530+1022179536+1011581231+1003144908+999274765+1001985729
710+1011049279+1019861064+1019590658+1011142713+1002745973+999811090+1001698524
700+1006448580+1013628492+1019416792+1014483321+997922965+981999042+973093594
690+971332042+977062924+987443869+994675792+991296752+979565733+968805069
680+963442227+962365896+963210886+961910233+955458058+947056255+943010521
670+947352206+958977996+966760569+963676790+956497050+951184319+951570597
660+956804392+959032423+954055168+945634380+940848768+942785221+945836321
650+946186353+947774212+955450463+967280670+975134526+975011405+971708194
640+970001990+967558325+960202763+951239724+946588740+946592652+948672535
630+949300165+943726636+935357627+934365122+936872074+926826835+906894919
620+894685052+895645281+902174953+906192842+905804435+900276645+890437836
610+883876578+889478297+907866885+925631813+925374179+912012555+906029677
600+916570219
##END=
