##TITLE=<SNM>
##JCAMP-DX=4.24
##DATA TYPE=INFRARED SPECTRUM
##DATE=29/4/2025
##SAMPLING PROCEDURE=Instrument type and / or accessory
##ORIGIN=Admin
##XUNITS=1/CM
##YUNITS=ABSORBANCE
##RESOLUTION=4
##FIRSTX=4497.3318
##LASTX=599.83466
##DELTAX=-1.4281778
##MAXY=2.0980387
##MINY=0.45494246
##XFACTOR=1
##YFACTOR=1.9539508e-09
##NPOINTS=2730
##FIRSTY=0.47267422
##XYDATA=(X++(Y..Y))
4497+241906923+241058420+240313114+239804800+239541575+239605650+239772663
4487+239598176+239145212+238984010+239368827+239935909+240281664+240495166
4477+240929873+241538716+241620575+240623423+239113899+238379331+239043921
4467+240502594+241731765+242251488+242230333+242070733+242105569+242272979
4457+242083087+241450176+241182498+241845975+242806247+243201236+243054097
4447+242689536+242024747+241097329+240364942+240157266+240532641+241565743
4437+243063996+244310127+244587979+243842445+242818082+242541008+243385149
4427+244560861+244905182+244227536+243436763+243321166+243670505+243613141
4417+242557771+240815267+239306628+238673061+238816966+239232196+239391995
4407+238930657+238039158+237509277+237817542+238347164+238067970+236893372
4397+235795173+235612145+236222482+236909295+237269281+237611849+238421595
4387+239541925+240242603+240171039+239763374+239592868+239812365+240225688
4377+240485252+240254576+239367134+237882471+236156882+234845623+234518186
4367+235235031+236590155+237949444+238550844+237785527+235886321+234149293
4357+233965533+235553698+237831025+239608898+240547589+240807199+240478068
4347+239669938+238613454+237529135+236726450+236581812+237036393+237390003
4337+236931274+235696673+234543673+234504886+235824381+237399307+237612443
4327+236166903+234551527+234212834+234997506+235990632+237083080+238594267
4317+239977273+240244555+239330711+238003864+236903652+236402033+236762675
4307+237798003+238754173+239016299+238761906+238543553+238463097+238120590
4297+237246128+236144878+235457181+235549930+236232869+237108186+237965200
4287+238550035+238297975+236896788+234936253+233419041+232832101+233108976
4277+234124050+235690054+237298428+238391807+238830922+238781490+238342283
4267+237610857+236942088+236706470+236745028+236453906+235579901+234585769
4257+234092844+234353125+235337786+236773092+238002644+238502219+238551835
4247+238734238+238957593+238670895+237828783+237107255+237249316+238359991
4237+239744843+240527410+240447289+239859296+239156087+238565593+238299089
4227+238479569+238962825+239355969+239211682+238411437+237467089+237108384
4217+237462894+238048889+238540701+238988937+239270891+238983171+238163892
4207+237524132+237701731+238646079+239774539+240483574+240517023+240035140
4197+239414553+238969978+238842651+239082952+239692954+240371988+240383824
4187+239265919+237733883+237190182+238135888+239630648+240482949+240501969
4177+240336786+240373453+240264749+239678434+238989470+238777509+239022934
4167+239319943+239580682+240008327+240550837+240824602+240603778+240144088
4157+239880771+239874213+239795343+239503139+239255014+239181314+239007941
4147+238583926+238270902+238498604+239215754+239980262+240403835+240366848
4137+240010172+239709183+239859632+240425844+240874187+240852879+240630439
4127+240557350+240603138+240718781+241051267+241537877+241872010+241943330
4117+241748192+241124920+240196053+239649241+239968671+240772744+241303418
4107+241274713+241031545+241071918+241520840+242031595+242201903+241979921
4097+241553038+240967424+240038176+238659486+237106844+235919373+235487991
4087+235837040+236782640+238092236+239302037+239756068+239299993+238709590
4077+238933662+239950109+240816014+240823366+240151531+239423949+239080146
4067+239186775+239512214+239681972+239482716+239089541+238852184+238905949
4057+239168914+239569883+239999618+240302712+240610703+241292513+242300815
4047+243048881+243200931+243104445+243171662+243263329+242878436+241723376
4037+240098849+238765673+238340361+238813626+239642271+240218153+240368923
4027+240544050+241274561+242359048+243021350+242977393+242755548+242839878
4017+243022738+242746198+241843717+240798139+240203160+240091025+240052193
4007+239884707+239686091+239605451+239995942+241238611+242936364+243966218
3997+243791807+243106138+242930248+243596059+244654403+245337311+245170939
3987+244415079+243770530+243602007+243663657+243557806+243284789+243276492
3977+243893342+244932499+245725880+245773040+245230896+244694456+244513472
3967+244520655+244531210+244786290+245566051+246623953+247433547+247841212
3957+248042573+248093013+247910854+247667000+247757873+248255404+248623581
3947+248347147+247747258+247597647+247974944+248105993+247494938+246593662
3937+246209395+246909797+248813045+251230938+252689946+252233352+250641435
3927+249481860+249401633+249832420+250068938+250322234+251318517+253042992
3917+254374613+254138903+252333469+249986011+248226547+247767787+248806258
3907+251179598+254475934+257899749+260449086+261598777+261385336+259854703
3897+257320709+254909497+253921329+254586834+255506184+255096232+254172779
3887+255024424+257966371+260597431+261326065+261250017+260915228+259324562
3878+256972925+255994976+257256863+259837071+262744014+265100715+265428548
3868+263739504+262342573+262725224+263754665+263486895+261686173+259613472
3858+258827549+261120708+267875664+275749319+276442965+269552049+261586575
3848+256899745+256530974+259238600+262748804+265512223+267696388+269914018
3838+271357133+270756587+268696515+266649864+265028296+263501690+262213019
3828+261558938+261470291+262210366+264992087+269823998+273322916+272980226
3818+271117305+269887235+268131568+264836788+261600241+260511377+262413435
3808+266229174+269268630+270519078+272075518+275051738+276885008+275764053
3798+273872549+272969855+272338377+271376015+271038939+272222734+274629004
3788+277451907+280072717+282108752+283933511+286866048+291592871+296607108
3778+299814614+301642943+304382507+309667962+317735016+327292468+335837073
3768+341927668+346330439+350006040+353303657+356971540+361626279+366333792
3758+369685494+372496195+377445549+386723243+400021484+412719545+419371091
3748+421067700+422494343+425946314+430200161+433559642+436683016+441037284
3738+447344981+455189626+462760552+467428928+467811060+465192324+462121449
3728+460334393+460055214+460232080+459486698+457356434+454583406+452313004
3718+451058682+450519725+450686342+452288265+455155217+456902433+455762626
3708+453287141+451953689+452701512+454881346+456885717+457302014+456418233
3698+455848253+456855182+459720822+464304242+470370341+476771291+480835125
3688+480898361+478621797+476135085+474347115+473849980+475027186+477908170
3678+482451232+487463883+490007821+489411821+487640414+485157912+480665824
3668+474695478+469863049+467074921+465507773+464439621+464096535+465228503
3658+467831467+470522529+472290398+474456138+479089738+485732895+489458279
3648+485544346+476583474+468135782+462712050+459927430+458643457+458598951
3638+460221495+463159035+466011589+468217535+471422570+477246127+482945377
3628+482772599+477546263+473515160+474285556+479857297+487689160+493375416
3618+494049569+491632348+489526030+489094297+490636797+494393205+498937548
3608+501101336+499968454+498199213+497844687+498420982+499131954+500364618
3598+502502477+504831967+506319986+506973060+508254379+512080307+518658031
3588+524338307+524285900+519311746+514888140+514420809+516843795+518655896
3578+517793589+515605183+514287442+514293604+515271523+517841299+522876706
3568+529118757+533226456+533758397+532671210+531888094+531311128+529886804
3558+527378587+524898922+523781231+524116965+524673188+524793925+525709615
3548+528801752+533073140+535423037+533926905+529761796+525530064+523000311
3538+522347511+522576296+522383506+521136719+519468906+518661264+519298751
3528+520669021+521612226+521731499+521494234+521356719+521187845+520805987
3518+520623569+521011833+521392348+520781889+519067587+517084477+515509216
3508+514325268+513315014+512637078+512989834+515114973+518584759+521249220
3498+520986941+518102541+515115522+514277864+515812554+518433882+520919282
3488+522661831+523125868+521835093+519149278+516548083+515504701+515936281
3478+516167446+514833964+512696013+511413017+510960297+509971091+508118481
3468+506695132+506873036+508110976+508571567+507271854+505372724+504584574
3458+505042267+505748175+506331089+507025315+507216396+505630397+502390037
3448+499566219+498898776+499827796+500591939+500543589+500323345+500217036
3438+499543310+498020974+496694752+496667359+497483329+497547511+496119556
3428+494159661+493091082+493483616+495016537+496971765+498357349+498147904
3418+496372531+494535051+493904184+494012232+493817154+493435571+493476722
3408+493591450+493037699+492114596+491919611+492889324+494214905+494690686
3398+493888596+492388437+491093971+490526126+490671115+491367110+492577596
3388+494082392+495286961+495745935+495631298+495522671+495812099+496266833
3378+496315396+495956356+495939883+496668915+497538573+497829618+497692225
3368+497849293+498886117+501108535+504334680+507425536+508827104+508124124
3358+506474034+505384621+505790302+507909615+510860546+512818520+512718037
3348+511429184+510416551+509806061+508731503+507133759+506133602+506627778
3338+508210330+509580631+509722173+508410014+505955485+503104731+501104814
3328+500918217+502307034+504030213+504990348+505112000+504995015+504925708
3318+504612395+503923629+503401054+503586644+504131793+504177581+503428447
3308+502507450+502352486+503300114+504827300+506205929+507140928+507647244
3298+507733054+507580897+507684857+508381950+509440920+510297369+510610713
3288+510615807+510848589+511583721+512613040+513326850+513062496+511800701
3278+510456420+510111687+511083627+512752508+514010460+514050238+513085680
3268+512066518+511587015+511427476+511047082+510167572+508998693+508121684
3258+507883442+507936246+507746690+507220758+506655324+506488280+507021807
3248+508090599+509187792+509884702+509900106+509186144+508208988+507584832
3238+507294366+506894907+506391031+506113499+505919856+505281545+504176330
3228+503421461+503866921+505308359+506438832+506116428+504570176+502883206
3218+501523765+500141232+498764129+498230053+498986874+500261207+500842535
3208+500158803+498286059+495722294+493492310+492602275+493049961+493897015
3198+494380423+494517908+494662347+494808861+494560858+493679670+492353814
3188+490997698+489999066+489638043+489838429+489896571+489036583+487367183
3178+485657122+484253540+483016972+482050614+481589688+481362795+480970443
3168+480743397+481295135+482318811+482650763+481519101+479150290+476428205
3158+474424413+473814838+474288851+474814172+474735897+474267833+473859284
3148+473574340+473190133+472544532+471672464+470730815+469775775+468790840
3138+467967518+467487802+466977245+465856198+464479491+464107151+465239820
3128+466654810+466766701+465530225+464106419+463113735+462272386+461463188
3118+461099420+461351327+461672450+461397512+460622937+460205694+460716617
3108+461557082+461522062+460334057+458980748+458247446+457800003+457169746
3098+456708820+456853077+457206931+457014477+455982016+454413343+453103258
3088+452841467+453399581+453590174+452899914+452163287+452079887+452146693
3078+451532877+450149521+448491469+447054394+446204899+446242085+447245872
3068+448794930+450009626+450140461+449232153+448093231+447498603+447535025
3058+447844007+448205396+448400626+447916181+446580778+445038644+443898684
3048+443077498+442478387+442440896+442938977+443186766+442673861+441919175
3038+441661929+441860819+441902550+441436591+440663846+439919196+439241535
3028+438498807+437765413+437240916+436915034+436668374+436471374+436105562
3018+435093203+433446500+432044138+431717403+432309621+433006409+433305324
3008+433304226+433169670+432736412+431857877+430850094+430160078+429810098
2998+429577438+429452095+429498675+429559807+429463870+429230631+428867747
2988+428247373+427284676+426108751+425019277+424284236+423940051+423851313
2978+424006979+424472053+424924041+424713803+423686832+422481013+421732245
2968+421451022+421356519+421333121+421343859+421251033+420952789+420582249
2958+420436863+420641184+420936866+420962246+420664794+420241359+419745109
2948+419002076+417979772+417013262+416459023+416247595+416026283+415607454
2938+415007152+414268176+413571663+413283058+413552445+414017855+414102048
2928+413593565+412901597+412613847+412767163+412768963+412102008+410896952
2918+409804945+409481870+410055724+410922453+411187997+410438070+409068410
2908+407892515+407456085+407638899+407848771+407542413+406579380+405314046
2898+404428098+404365442+404796992+404923098+404411138+403709225+403305221
2888+403042210+402457069+401553825+400815368+400570385+400754969+401147930
2878+401460878+401397275+400982473+400667146+400832603+401291760+401494585
2868+401203174+400714916+400327202+399884182+399121077+398199348+397536450
2858+397293999+397308214+397366692+397349609+397192907+396823465+396180731
2848+395343225+394565996+394103240+394035672+394313112+394815128+395216356
2838+395031803+394190392+393394677+393395532+394009865+394352890+393951967
2828+393098050+392186570+391297969+390464123+389911836+389834080+390033733
2818+389993131+389414000+388569935+387977382+387824889+387868388+387801004
2808+387542354+387182735+386815611+386463892+386053482+385491555+384916206
2798+384679185+384805780+384716858+383901041+382655078+381764829+381630578
2788+381927114+382012954+381637777+381217850+381249849+381577591+381568287
2778+380899533+379798711+378673149+377904706+377816090+378379053+378988995
2768+378909530+378061073+377132663+376791590+376964734+377043223+376638700
2758+375859306+374924032+373942361+373126727+372745937+372758932+372891749
2748+373102506+373535612+374018562+374074507+373495193+372565959+371688858
2738+371004089+370430296+369960189+369725638+369680125+369454146+368776332
2728+367878946+367256223+367127188+367232002+367088417+366485888+365747736
2718+365384761+365529262+365863807+366003976+365751671+365110798+364290680
2708+363591757+363134095+362824137+362625491+362623569+362746228+362700654
2698+362316112+361721301+361113740+360556907+360028810+359491562+358902303
2688+358329821+358030388+358202312+358697860+359155949+359380098+359398889
2678+359235231+358892145+358532891+358395407+358502295+358614308+358471668
2668+358033591+357531697+357263439+357279454+357345588+357207219+356768134
2658+356099014+355441425+355065821+354936999+354697294+354140827+353493701
2648+353120476+353135576+353337730+353407373+353211929+352946081+352855177
2638+352892240+352839803+352651802+352437415+352231051+351997172+351768997
2628+351627882+351596157+351585816+351427985+351041247+350584225+350302362
2618+350234855+350215088+350113538+349954883+349855072+349915715+350104356
2608+350250413+350253463+350185621+350073089+349772557+349233295+348677012
2598+348336000+348209467+348216361+348350398+348513141+348431327+347972781
2588+347397920+347087016+347128808+347348655+347597329+347796403+347824894
2578+347600227+347207998+346775991+346322539+345891538+345684411+345850174
2568+346239169+346541501+346610289+346513955+346344349+346142957+346002788
2558+346058032+346294505+346498368+346477807+346245362+345927472+345609614
2548+345348585+345225499+345276258+345420027+345528105+345527831+345425762
2538+345295568+345231722+345243283+345228000+345103571+344913985+344808195
2528+344961115+345410083+345913440+346163335+346165256+346160101+346223307
2518+346227547+346124136+346014106+345985004+345999738+345911885+345615013
2508+345236175+345062421+345196794+345426982+345495740+345402975+345390712
2498+345665376+346170686+346676393+347047940+347287249+347333799+347073960
2488+346617702+346305974+346317749+346487416+346597477+346621972+346619807
2478+346631825+346728983+346952796+347210652+347372449+347386664+347228100
2468+346904964+346578320+346493273+346714005+347013531+347088115+346869945
2458+346565234+346381321+346339011+346397702+346582591+346861373+347049252
2448+346978267+346705952+346494585+346562976+346841881+347037446+346987175
2438+346849080+346868481+347090311+347378794+347589825+347647326+347556422
2428+347425344+347412593+347584609+347856436+348116427+348379225+348748149
2418+349219873+349613139+349762002+349702671+349590841+349532821+349593189
2408+349850283+350325759+350922065+351461876+351760303+351765946+351696487
2398+351880583+352392726+352983327+353380407+353536224+353607239+353792952
2388+354149796+354474609+354400575+353675936+352327293+350497409+348217520
2378+345518771+342689309+340113677+337867526+335793451+333916956+332417407
2368+331297824+330432162+329743214+329089255+328370595+328038551+329027452
2358+331759604+335602401+339872232+344837571+350659572+356008293+359030941
2348+359043601+356853853+354206473+352652931+352300053+352148231+351635813
2338+351161801+351207619+351576787+351781260+351822807+352160951+353016821
2328+354142657+355266694+356329050+357302668+358188707+359150092+360307959
2318+361506670+362534312+363414128+364286104+365149936+365882414+366402062
2308+366732092+366972743+367228738+367527227+367806680+367982204+368035801
2298+368090984+368366746+368977419+369776825+370482063+370952475+371267528
2288+371575015+371950222+372349193+372642160+372737975+372678278+372555862
2278+372401844+372230591+372102837+372053755+372004795+371794313+371322070
2268+370716674+370297479+370240649+370348757+370304983+370066985+369827981
2258+369686440+369570186+369458997+369494596+369812210+370342626+370866940
2248+371280828+371706856+372254141+372774001+373023957+372984209+372818630
2238+372630995+372443483+372271681+372065561+371722444+371253343+370800287
2228+370469983+370239856+369983586+369553714+368919643+368211081+367571947
2218+367070450+366770131+366700611+366732244+366684260+366584419+366619682
2208+366815553+366989582+367077008+367295757+367857318+368641715+369322366
2198+369757729+370095538+370509639+371006377+371497655+371905777+372193711
2188+372429085+372782634+373339497+373977350+374524116+374926625+375189087
2178+375313302+375412839+375723651+376328376+376960464+377283783+377317765
2168+377350253+377499512+377667166+377826400+378004608+378095756+378039994
2158+378052684+378369902+378906662+379381864+379630874+379678065+379664673
2148+379773361+380090824+380501478+380800362+380910698+380921069+380951574
2138+381082073+381347281+381676914+381917108+382034338+382182072+382457041
2128+382759343+383022232+383394755+384043193+384898605+385743310+386475819
2118+387159460+387851062+388508255+389057613+389463478+389763095+390103161
2108+390664875+391487311+392430516+393319758+394041560+394536956+394804970
2098+394905330+394950569+395115477+395526131+396028604+396236433+395963873
2088+395449168+395061972+395002915+395315649+395922661+396612799+397192754
2078+397636902+397973064+398166342+398251785+398399885+398713565+399118362
2068+399531365+399968833+400434639+400861430+401208116+401512278+401855120
2058+402326234+402939775+403562071+404054325+404481299+405015680+405677174
2048+406339888+406942996+407553273+408259761+409069508+409899876+410707945
2038+411578579+412566442+413565043+414491257+415454839+416583329+417821209
2028+419023399+420139107+421246702+422446298+423747140+425118844+426615342
2018+428284803+430012527+431656302+433263075+434981892+436843775+438730337
2008+440509218+442160955+443769924+445387038+447000614+448636580+450287158
1998+451812148+453212892+454824546+456819796+458720177+459881368+460340311
1988+460729032+461534783+462766318+464151596+465494870+466916083+468696367
1978+470861253+473143156+475390802+477695949+480105666+482563154+485094463
1968+487713351+490208389+492332674+494149350+495953885+497909266+499966440
1958+502182666+504868237+508130042+511442728+514118629+516143103+518106079
1948+520436210+523185719+526362720+529800964+532802380+534723443+535928439
1938+537396324+539579117+542224483+545044336+548025924+551168760+554297748
1928+557214605+559909450+562460190+564797764+566958898+569408485+572315703
1918+574708734+575528700+575425167+576032089+577912824+580276754+582219353
1908+583559851+584527215+585271712+585936226+586794323+587997245+589439872
1898+591061867+592853346+594454719+595473820+596243514+597309713+598292086
1888+598340833+597628731+597225399+597696025+598575719+599053239+598871553
1878+598480300+598386346+598665586+599296544+600569566+602717827+605106039
1868+606160830+604893543+602178566+599682490+598160001+597092032+595655323
1858+593762324+591958155+590594352+589594714+588983278+589040322+589750715
1848+590674701+591440369+591622238+590330670+587226086+583421786+580277364
1838+578309812+577255570+576696358+576670063+577384117+578274854+578166196
1828+576892199+575387708+573848808+571556747+568473761+565582954+563698497
1818+562794094+562324627+561992675+562045082+562580378+562956562+562540722
1808+561643458+560931173+560681950+561219626+562990239+565452333+566952553
1798+566822420+566496020+567774899+570871734+573814825+574122068+572035914
1788+569996859+569508846+570395434+572099364+574455119+576967179+578760732
1778+579963654+581902043+585547414+590339211+594176212+595341368+594601691
1768+593571182+592840595+592765492+593951819+596146692+598047866+599185812
1758+600266349+601395449+602331760+604032640+607818698+613052569+616904517
1748+617753950+617050574+616815688+617743640+619537620+621528966+622947921
1738+624125219+627061173+632943939+638569063+638799557+634794597+630888229
1728+628958503+629139884+630859615+632905808+634635668+637307634+642726058
1718+650214042+655373726+654961486+651112039+647340867+645478923+646033315
1708+648818392+652889791+656754246+660202373+664913943+671391795+676339105
1698+677112948+675444952+672710573+669424121+667454983+668020418+670166727
1688+672923801+677665205+685592456+692416170+692345887+687954128+684463478
1678+684072286+686693126+690460088+693285187+695723915+699327554+702550130
1668+702086886+698868520+696843375+697662243+699635103+700301325+699782806
1658+700442806+704698514+713834482+724850455+727818560+721741357+716637558
1648+715961330+716555561+714527854+710611419+707475355+706318007+707893025
1638+712693729+718932181+721568029+718263518+713457811+711415278+712651816
1628+715064370+716449893+716745727+716721750+716120503+714999212+715019040
1618+717763607+721999975+723731665+721800109+719049746+717805277+718110324
1608+718769042+719071953+719324898+720059512+721217347+722222538+722914384
1598+723917988+725697814+727971145+730404320+733003319+735614031+737946724
1588+740114021+742470874+745104038+747835244+750500011+753251228+756624618
1578+760670637+763530634+762669304+759519757+757948521+759111909+760625978
1568+759470888+756014586+752685305+751179899+752704523+758228432+765722029
1558+767667069+762429537+756907458+754330605+754111948+754587089+754362147
1548+753735764+754776279+758986047+765470244+771950414+776363648+776526238
1538+772654035+768598926+767091933+768180402+770273511+772200064+774394632
1528+777656742+782293209+788535992+796599843+805316068+811702223+814640189
1518+816514824+819008887+821636011+824250445+828152543+834578354+843720912
1508+854118493+860897792+860057327+856231674+854730783+856334597+860167815
1498+865368863+870804310+875249330+879215304+884735431+892473737+899377434
1488+901200760+898752210+896621031+897477419+901123278+906405102+912522206
1478+919040690+925530683+931417537+935612419+936788679+935969812+936706805
1468+940738364+946092058+948987318+948093043+946042640+945421138+946631991
1458+948340070+947757369+943984184+939903878+937776970+937346671+936831996
1448+934633463+931007066+927748190+926205141+926293788+927193432+928665954
1438+931163860+933989692+934736752+932739915+929751006+926981242+925138027
1428+925716761+929393247+934125316+937197869+938710535+940390245+941671991
1418+940233451+936492052+933344884+932284297+932502162+932265384+931077288
1408+930342003+930950083+931459878+930451942+929283613+930165503+933158195
1398+936508341+938646781+938541417+936070233+933513514+933819781+937164741
1388+940748919+942332356+943171052+945322120+948511689+951491386+954036453
1378+956700000+959954849+963904717+967806510+970443090+971814276+972948013
1368+973927213+973872549+972955456+972851862+975112564+979515549+984487201
1358+989003541+992838163+995636296+997270432+998623559+1000347805+1001691841
1348+1002416572+1003816797+1006589978+1010138893+1013953625+1017823388
1340+1020878981+1022292384+1022943598+1025032803+1029936247+1036384327
1331+1041047150+1042264409+1042287837+1044015378+1047450205+1050590601
1322+1052391231+1053328213+1053959049+1054094856+1053312106+1052280438
1314+1052090089+1052866860+1054354024+1056932524+1060880684+1065015898
1305+1067474575+1067871746+1067274343+1065988021+1063178052+1059759698
1297+1059275283+1063642577+1070096270+1073741823+1071967549+1065969718
1288+1059323237+1054608677+1050811454+1045419081+1038831900+1034201534
1280+1032486805+1030851998+1026650161+1020814006+1016168753+1013934651
1271+1013019328+1012141098+1011452729+1011546806+1011954592+1011607083
1263+1010004550+1006960061+1001831919+994454240+986387765+979943041+975947477
1253+973529493+971930011+970746002+968250719+961698863+950501510+937663615
1243+926566561+917900364+910579729+904093335+898402931+892956260+887442600
1233+882344291+877890730+873623491+869303967+865211215+861748995+859373474
1223+858218444+857605056+856658618+855519024+855048703+855427083+855904481
1213+855792895+855154798+854486929+854386629+855621093+858632210+862737164
1203+866554031+869495049+872170065+875290572+879073579+883407379+887785655
1193+891435113+894300784+897515977+902096133+907082428+909721632+908742188
1183+906620282+906982556+911111425+917824529+925082569+931052762+935319696
1173+939490784+945294239+952625489+960274477+967770148+975263074+982061774
1163+987032817+990099941+991612973+990866767+988342871+987355679+989999641
1153+994276764+997757165+1000356835+1001469401+999780662+997091919+997339006
1143+1000803789+1003214757+1001918064+999435715+999339259+1001826001+1004799048
1133+1007655323+1011635940+1017606621+1025703418+1035989962+1046974210
1124+1053500015+1049908150+1037579744+1025580545+1022048530+1026992180
1115+1033175112+1034944262+1034357718+1034931084+1035414888+1033734446
1107+1031804964+1032183588+1033984951+1035399880+1037403915+1041501060
1098+1045444827+1044940890+1040444622+1038014863+1041049103+1045627001
1090+1046045891+1043295711+1043319261+1048123626+1053533448+1055623873
1081+1054116332+1049030347+1040335293+1030080351+1020902835+1013555539
1073+1007867331+1004289681+1003735899+1005954871+1008434169+1008467419
1064+1005948282+1003463492+1002980298+1004151800+1005600467+1005619380
1055+1002777930+998428817+997313505+1002915994+1012148968+1016651215+1012363477
1045+1004193042+998040065+995565769+996311609+999918299+1004781783+1007299700
1035+1006002397+1003641518+1003298401+1005448798+1008164996+1008324657
1027+1003969077+996155303+989269603+988195839+993862327+1001546822+1004362526
1017+1000632292+994464306+989865665+988411324+989380030+990802708+990765187
1007+987615395+980272065+970125781+961305657+956575602+954411294+951500477
997+946518574+940193673+933075101+925535015+918906225+914226624+910683933
987+906834242+902323393+897656726+893665310+891299245+890757238+890977970
977+890516983+888500868+885057195+881273516+878088034+875213395+871857514
967+868332454+865724914+864240068+863019759+861250182+858787357+856042545
957+853601988+852012328+851947292+853980734+857652643+861439861+864034406
947+865416939+867079566+871061037+878259226+887678035+897333498+905654199
937+912069943+916837398+920624737+924279686+928720679+934188155+939445271
927+942809937+944396303+945836612+947564458+948111468+946683483+944635948
917+943382693+942860270+942387814+941382928+939376330+936975490+935861642
907+936195302+935539086+932265994+928602626+928057142+931445419+936590033
897+940787782+943258173+945408387+948665433+952995816+957942028+963210126
887+967210631+967330210+963504862+959287346+957815739+959145865+961901109
877+965155958+968128029+969818599+969950379+969463768+969314356+969859292
867+972186677+977849932+985567433+989868471+986668103+979233502+974369897
857+975100179+979032354+982630870+985244206+987552922+989374844+990739014
847+992369123+994549414+995887655+994842381+992488579+991356245+991613888
837+991215680+990430123+991886600+995658626+998698905+999654800+1000113041
827+1000663712+1000136469+999101872+1000869557+1008307941+1019964511+1029973463
817+1034104895+1034696930+1036492679+1039917135+1040524056+1035514211
808+1029562260+1030265088+1038651679+1047645557+1049785277+1045691427
800+1042269046+1042330665+1042751630+1039853685+1032723399+1024412338
791+1018438179+1015681166+1015037944+1014121401+1011584753+1007537148
783+1001598070+992958290+982737880+974322615+970201554+969391167+968473037
773+965506518+962455989+963099638+967560093+970700489+969035665+966640987
763+970289652+980835059+991218730+994449115+991542934+988032699+986650959
753+986751808+988005428+990172725+991537077+991991841+993745006+996835374
743+999975282+1003520658+1007194215+1009468949+1011498120+1016739068+1025787367
733+1034633968+1038946354+1038883514+1036229851+1031057599+1024183309
724+1017339400+1012524054+1011473594+1014455549+1018813448+1018772083
716+1010649785+998711412+992096045+995432159+1004935160+1013521801+1018467708
706+1020896002+1021583151+1021131437+1018558062+1012244021+1002228724+988782077
696+973948139+963464779+963785078+975691970+989326647+992181153+985413934
686+978556176+973476476+966579490+959305160+958565849+966673139+977268269
676+983236998+982712500+977550925+969946230+963477103+964804910+976169978
666+984999619+979961161+970082708+966663744+969342177+971757842+972143909
656+973235001+974947595+972702267+964993490+958041412+958463658+966571741
646+976990066+981823228+974970229+957692744+939370657+932521380+944054406
636+967805961+985714710+986745524+977209578+966121370+955518065+945111637
626+942397392+954833601+976192796+984548882+963958955+929878820+906592157
616+903218461+910770688+912068601+905979196+904032082+911089035+924921382
606+940043712+949155643+951297133+956457915+967928529
##END=
