##TITLE=<SNM>
##JCAMP-DX=4.24
##DATA TYPE=INFRARED SPECTRUM
##DATE=29/4/2025
##SAMPLING PROCEDURE=Instrument type and / or accessory
##ORIGIN=Admin
##XUNITS=1/CM
##YUNITS=ABSORBANCE
##RESOLUTION=4
##FIRSTX=4497.3318
##LASTX=599.83466
##DELTAX=-1.4281778
##MAXY=2.1075583
##MINY=0.38216212
##XFACTOR=1
##YFACTOR=1.9628166e-09
##NPOINTS=2730
##FIRSTY=0.38598484
##XYDATA=(X++(Y..Y))
4497+196648450+197559381+198771461+200025553+201060957+201470015+200918370
4487+199644539+198565831+198536056+199457175+200492231+201127081+201530703
4477+201898112+202019185+201680047+201118290+200699212+200304837+199545148
4467+198547793+197982908+198251655+199143546+200275958+201383970+202225589
4457+202632125+202629757+202284500+201550426+200439043+199199679+198228819
4447+197882667+198315213+199258211+199973033+199842789+199107577+198546988
4437+198478906+198632304+198838814+199200727+199635733+199754057+199344378
4427+198771552+198651526+199125296+199676030+199716357+199070787+197875576
4417+196449137+195286890+194732527+194700885+195067292+195989929+197400137
4407+198578828+198828535+198370693+198055880+198306240+198760012+198896618
4397+198643920+198265761+197904395+197434194+196724413+195956571+195635532
4387+196173770+197339737+198250395+198217477+197568476+197225922+197475948
4377+197741157+197605220+197297816+197017863+196599894+195999920+195434731
4367+195094455+195184219+195934175+197124816+197973525+197985975+197552351
4357+197388917+197735904+198257288+198466273+198196129+197785827+197717972
4347+198078412+198579906+199029442+199418458+199557735+199157211+198447324
4337+198110237+198352838+198633549+198562855+198482353+198770140+199186789
4327+199296003+199000913+198374672+197505131+196784752+196778132+197529986
4317+198504748+199314481+199942742+200272010+200076554+199579767+199476747
4307+200143072+201092600+201476316+201037043+200298915+199806228+199535643
4297+199161280+198678766+198546396+199084634+199937519+200531860+200918476
4287+201554252+202336807+202531748+201773274+200628335+199976328+200116957
4277+200681113+201277322+201850557+202372580+202681532+202790716+202981664
4267+203447856+204051838+204421237+204199027+203443195+202744908+202574261
4257+202688987+202664633+202663813+203019091+203510290+203812517+204134619
4247+204693415+205168110+205360151+205636763+206132047+206314157+205795946
4237+204881416+204091057+203721204+203864262+204367411+204802751+204830355
4227+204576973+204452606+204644433+205021696+205458433+205904720+206232774
4217+206378322+206479201+206554298+206370138+205894578+205485702+205407341
4207+205518423+205575391+205596162+205786851+206145241+206380417+206372355
4197+206417541+206786134+207379822+208012714+208574122+208776669+208308047
4187+207364867+206525146+206104367+206074000+206473948+207426815+208740183
4177+209845933+210291097+210157923+209941209+210109244+210726452+211365158
4167+211416828+210704633+209847284+209738434+210567496+211604070+212039000
4157+211739932+211094149+210532437+210357630+210620486+210960019+210842286
4147+210186847+209561820+209542887+210106496+210863680+211601094+212199975
4137+212302979+211718629+211059637+211222009+212174710+212938285+212877916
4127+212435030+212316477+212505086+212539052+212426618+212672438+213403263
4117+214037324+214036489+213582595+213277438+213436864+213822265+213939527
4107+213631956+213417232+214005256+215410849+216846444+217551047+217407260
4097+216781079+216137893+215719346+215340777+214718529+214067918+214027849
4087+214907442+216247715+217190455+217243248+216736789+216448774+216732446
4077+217254878+217615698+217761338+217689186+217289299+216689341+216352572
4067+216574447+217105731+217537230+217890837+218449694+219095629+219285968
4057+218800827+218110891+217863188+218266430+219017935+219701524+220186802
4047+220612652+221088198+221519089+221641893+221234870+220489454+219992029
4037+220015715+220192314+220281684+220732419+221922452+223327210+224000095
4027+223651802+222907570+222546067+222704613+222949673+222948383+222809864
4017+222851361+223161938+223409747+223237142+222837255+222760928+223138464
4007+223599980+223891396+224027744+224041029+223998713+223989618+223948516
3997+223759012+223405405+222909483+222452218+222457183+223062350+223776625
3987+224166976+224455036+224916385+225212705+224924417+224389140+224432337
3977+225373164+226674416+227601836+227952346+227916817+227552870+226902684
3967+226393689+226520031+227266252+228240680+229131675+229675455+229500875
3957+228509351+227244630+226493414+226643943+227624854+229087202+230337893
3947+230678838+230309531+230160536+230460363+230380832+229559681+228789986
3937+228798261+229646879+231369487+233917573+236281651+236964162+235791013
3927+234181613+233506481+233793115+234079368+233926501+234014732+234945979
3917+235966731+235608933+233655553+231435915+230168431+229978714+230680022
3907+232829269+237208069+243215279+248521499+251169750+250966398+248216631
3897+243413468+238445520+236033706+237483679+240855862+242344781+241387829
3887+240961752+242532343+244394031+245273198+246102320+246569940+244866327
3878+241967291+241037137+242897520+245795918+248771631+251739418+253027688
3868+251766521+250231003+250021760+249554140+247036011+243562448+241336843
3858+241813285+246473282+256495648+267290442+268137374+259197573+249045495
3848+242580383+240935120+243177396+247301205+251655879+255996234+260348114
3838+263188239+262793287+260078972+257229464+254951188+252795639+250947146
3828+250139386+250453744+252034205+256023443+261950848+265290630+263565790
3818+260672523+259280353+257204533+252821451+248434528+246971360+249588273
3808+254815053+258975166+260598155+262219929+265233661+267026705+265798577
3798+263292124+260577414+257281058+253988557+251977935+251441762+251606183
3788+252052774+252994694+254435847+256146520+258407001+261367500+263690659
3778+263685041+261872896+260557463+261704603+265732620+271073185+275258442
3768+277460770+278464426+278669221+278749450+280702588+285799034+292196640
3758+296619153+298889655+302079485+309029921+319635195+329049145+332404899
3748+332663109+335663054+342328405+346978944+346116402+344164358+346317917
3738+354547831+366721950+377007005+380745898+378884043+375528046+373892515
3728+375378944+379801883+385385110+389994409+392790775+394300587+395715654
3718+398135683+402274387+408964487+418907914+430507673+439102477+441869508
3708+441194027+441075687+444002752+449780114+455427324+458400669+459749536
3698+461842027+465480528+470164379+475604638+482543200+491010766+496985179
3688+495474366+488446100+481434444+477071481+475598352+476876282+481018145
3678+488237327+496963042+502561513+503527605+504099323+506111039+505855046
3668+501318809+496250756+494013262+494605113+496444284+498786969+501976039
3658+505962150+509652578+512538769+516363540+523716094+534950145+544696157
3648+545264382+537615508+528889945+523705830+522902018+525290557+529004793
3638+532481802+535196177+537661483+540718519+545459520+552837886+560792372
3628+563825782+560891429+556874010+555394110+556898304+560179568+563832584
3618+567580163+572352624+578163997+582459881+582082420+577915475+574456078
3608+574300235+576256410+578547592+580623291+581808997+581519236+580998686
3598+582521586+586935293+592980127+598179486+600369729+599235100+596520846
3588+594746630+595018596+596577025+598623754+600585637+601452551+600476681
3578+598140738+595802973+594663364+595350020+598197949+603650446+612006687
3568+621356350+626450458+624111053+618239067+614889295+615886058+617962546
3558+617016071+613371922+611138012+612615240+616051375+618912969+621116573
3548+623905955+627380960+630186497+630390562+627192868+622396963+618757794
3538+616896668+615402738+613994322+614277402+616703717+619620214+621860076
3528+623467457+624328298+624031127+622703061+621325194+620850195+622016891
3518+625226733+629149346+630770392+628708965+625152941+623029263+623404962
3508+625812146+628736478+629685443+627128368+623092365+621212290+622470147
3498+625400674+629272696+634301576+639107623+641312259+641154351+641330904
3488+642596232+642034019+637520588+631752092+628815067+628885154+628991681
3478+627992549+627981435+630870967+635703251+639947267+642523473+643925209
3468+643946223+641735391+638271015+636011292+635592654+635521900+634684077
3458+632944843+630522962+628596122+629042940+632159677+635446590+635533378
3448+631996364+628559621+628955666+632503187+635396363+636003761+636150130
3438+637194447+637967528+637075713+635300889+634499993+635126523+635998963
3428+636142903+635986513+636277732+636529473+635455275+632461038+628070410
3418+624412778+623965960+626855127+630571367+632157673+631095074+629804542
3408+630544826+632770052+634501390+634938552+634288093+632673971+630909047
3398+630601552+631933201+632922858+632113519+630749742+631213505+634003190
3388+637037147+637907887+636308706+634006834+633341010+635791132+640561347
3378+644223351+643684035+640066731+637161105+637231677+639775087+642987844
3368+646128752+649638133+652797383+653392878+650964620+648065735+646948537
3358+647074438+646515019+644888082+644286271+646883491+651890203+655733437
3348+655514674+651813617+647773909+646081623+647338205+650185587+652487459
3338+652827386+651112931+648426797+646367861+645694870+645895474+646531660
3328+647719431+649072641+649688906+649164713+647414122+644221408+640465934
3318+638633170+640312338+644058520+647191897+648639123+649036990+649041545
3308+648789439+648795998+649544603+650188320+649413782+647646490+647034718
3298+648922750+652069610+654122291+654402699+654516635+656414627+660063270
3288+663172233+663513010+661047097+657610900+655306539+655253579+656808850
3278+658150702+658457408+658272413+657847276+656972649+655838445+654956591
3268+654673025+654969345+655671367+656997550+659464131+662518191+663867999
3258+661725979+657465807+654440961+654491977+656436856+657982591+658503930
3248+658858008+658955061+657947062+656958134+658235244+661139169+662237540
3238+660229377+657558123+656536945+657451110+659645725+661508613+660664109
3228+656505424+651516386+649064320+650601371+654929504+659079929+659983587
3218+657081545+652911380+649847604+647887664+646647965+647106931+649538833
3208+651692089+651340137+649239658+647793344+648375963+650612667+653009587
3198+654095325+653415957+651553616+649633153+648586952+648058872+646542410
3188+643731833+641601048+641626314+642725960+643201627+642539628+640808897
3178+638289660+635731613+633480030+630623416+626408794+622367932+621405727
3168+624440230+629134405+632265536+632293656+629342115+624663002+620785028
3158+620106328+622694802+626268317+628249757+627603428+625102714+622304466
3148+620197853+618660803+617117132+615408690+613734746+612188767+610931638
3138+610296727+610217956+609927587+608945886+607939284+607780162+608294274
3128+608659284+608558648+608155740+607458637+606403874+605301737+604827832
3118+605496389+607043097+608277936+608166975+607168026+606639642+606952178
3108+606965418+605513638+603045295+601350215+601508548+602466077+602382629
3098+601187448+600199127+599572112+598244167+596202358+594663607+594021833
3088+593414981+592429575+591878537+592507132+593736445+594335766+593966504
3078+593428889+593494360+593755576+592889269+590303346+587205497+585488371
3068+585925836+587838951+589738461+590207751+589141691+587927804+587608588
3058+587587817+586978596+586226590+586171991+586468797+585908284+583833436
3048+581013809+579095411+578824842+579186329+578991131+578575469+578841179
3038+579403453+579066137+577731755+576596519+576525582+577202217+577932055
3028+578418047+578505807+577851036+576120184+573324061+570102012+567602877
3018+566573561+566626582+566787283+566623909+566247906+565546492+564413199
3008+563508630+563811935+565183729+565917940+564484319+561631349+559706452
2998+559834297+560725565+560535590+559043907+557320890+556162028+555720858
2988+555956991+556474078+556380245+555292988+553950954+553212552+552957896
2978+552433884+551473501+550846789+551088813+551463298+550651773+548328341
2968+545554811+543751807+543611451+544677815+545761124+546051735+545757540
2958+545307321+544597039+543515188+542412566+541624788+541022977+540185762
2948+538828422+537226083+536147815+536004119+536223854+535905062+534976139
2938+534189272+533903823+533504923+532347702+530715603+529268924+528064330
2928+526808416+525754442+525611413+526492661+527494343+527656806+526948711
2918+525865159+524660869+523645704+523331710+523414854+522715323+520991273
2908+519524309+519156748+519127170+518509022+517604331+517189945+517314327
2898+517494100+517339532+516523877+514918379+513117744+511977224+511514251
2888+511142985+510832514+510931085+511067736+510510564+509454069+508807588
2878+508773790+508626875+507940553+507095564+506408877+505633337+504669522
2868+503905947+503337448+502315450+500702938+499372291+499065494+499436820
2858+499596823+499198562+498651745+498380508+498192780+497578731+496489045
2848+495458423+494889196+494528498+493814967+492605696+491345895+490561306
2838+490324778+490276373+490131614+489978838+489938784+489748809+489023040
2828+487771135+486377324+485224263+484500984+484210221+484151674+483939592
2818+483229188+482080955+480999408+480369599+480041120+479775926+479676444
2808+479699705+479363544+478480019+477518269+476778926+475873021+474423791
2798+472742710+471451996+470808460+470628142+470623465+470572327+470271786
2788+469643374+468916998+468451169+468307139+468153908+467599135+466552358
2778+465370144+464647989+464601042+464661867+464075148+462864238+461769936
2768+461319383+461398580+461564869+461355884+460530754+459380365+458517399
2758+458151539+457911944+457432116+456687824+455806577+454999516+454523666
2748+454291026+453753228+452567370+451100649+449931827+449192940+448698719
2738+448366050+448173281+447958101+447528166+446781718+445652373+444265577
2728+443114854+442660900+442779543+442937056+442812795+442455619+441968261
2718+441351601+440640742+439902735+439047664+437900676+436589889+435667738
2708+435578155+436029833+436130195+435307192+433988206+433120502+433052601
2698+433143277+432557469+431235173+429886185+429148846+428992365+428981282
2688+428865857+428653076+428268297+427524916+426437963+425349462+424671885
2678+424517682+424600887+424542158+424193789+423617729+422943918+422324949
2668+421817427+421335353+420889324+420634242+420557839+420485080+420418242
2658+420444267+420386539+419983176+419253672+418372121+417429593+416524842
2648+415812829+415340412+415018644+414780628+414640090+414608509+414640333
2638+414647986+414537663+414257498+413831966+413295748+412588078+411649589
2628+410662908+409988003+409760798+409751051+409717647+409707838+409870423
2618+410125383+410210107+409984876+409491991+408754622+407810484+406946850
2608+406543699+406633373+406881045+406982956+406841932+406487763+406102438
2598+405921208+405909699+405754038+405271023+404622234+404109914+403921427
2588+403993609+404044413+403876423+403644663+403655018+403945568+404204416
2578+404086592+403599416+403154814+403124842+403374580+403418217+402972826
2568+402153648+401241184+400497559+400098052+400027935+400080956+400057361
2558+399948252+399917217+400129968+400585805+401073558+401311574+401211758
2548+400991629+400895092+400832688+400528473+400002518+399619227+399665537
2538+400098812+400633299+400918991+400811280+400579337+400623460+400942738
2528+401133928+400912250+400402480+399947372+399803433+399995078+400361121
2518+400701230+400831413+400602781+400093680+399669150+399550993+399543371
2508+399496089+399634380+400030365+400279646+400142449+399937442+399933433
2498+399973700+399963588+400106282+400442504+400642227+400411469+399850653
2488+399343496+399159685+399191722+399170404+399084739+399131413+399303108
2478+399394178+399409210+399591958+400004462+400373966+400437767+400255717
2468+400109076+400209074+400567707+401057373+401484787+401635741+401404558
2458+400956039+400632935+400605726+400734512+400841100+400912189+400928982
2448+400772714+400485898+400383015+400708002+401341182+401935037+402194401
2438+401992613+401428851+400861324+400690571+400978024+401356912+401384941
2428+400935419+400246455+399715521+399672096+400171297+400915833+401502278
2418+401797809+401952802+402081405+402163943+402226468+402369223+402660897
2408+403142759+403789513+404377507+404605654+404408997+403996099+403653408
2398+403625987+403963151+404397549+404639513+404774372+405097962+405675327
2388+406282696+406606650+406381175+405489512+403920910+401619403+398659724
2378+395549183+392891593+390679669+388394590+385858347+383432002+381337931
2368+379443098+377801858+376701666+376047957+375511162+375433696+376707891
2358+379528945+383092773+386876853+391375435+396785176+401697902+404152094
2348+403441539+400525254+397201111+394700155+393113454+392329168+392405511
2338+393007170+393494862+393505885+393200212+393152020+393821701+395002670
2328+396153210+397072720+397765541+398126846+398268933+398652497+399522600
2318+400619361+401564956+402247026+402842035+403604001+404613033+405740677
2308+406813084+407684401+408269146+408681832+409189688+409863165+410469622
2298+410844259+411142826+411601882+412221640+412829798+413384024+414049181
2288+414916854+415750031+416140154+415948296+415505972+415256356+415227477
2278+415059609+414570095+413956531+413370359+412723059+412048185+411629820
2268+411603553+411760367+411872148+411947275+412087115+412345143+412787770
2258+413464314+414257558+414974217+415606122+416257674+416829938+417085840
2248+417006916+416770692+416443519+416031684+415698711+415538677+415278159
2238+414605836+413688058+413006776+412771038+412732138+412510885+411976610
2228+411351173+410983491+411003078+411237480+411488158+411764619+412169652
2218+412670524+413114184+413428937+413679707+413945508+414298402+414850594
2208+415606547+416320928+416742451+416964646+417294461+417811821+418305466
2198+418651982+419027135+419631254+420379919+421041098+421568388+422092521
2188+422661080+423215732+423780070+424442797+425167503+425819906+426361347
2178+426791343+426957632+426733737+426352176+426215525+426409114+426732977
2168+427126684+427678694+428299788+428768926+429053889+429305782+429622357
2158+430034557+430632724+431503586+432586773+433722283+434779111+435672080
2148+436370367+436968352+437656830+438566470+439677140+440882068+442120794
2138+443451927+444955969+446565232+448149564+449808325+451838747+454308638
2128+456890098+459255709+461448260+463694074+466020968+468245950+470205465
2118+471860370+473308506+474755732+476345894+478074681+480015885+482424435
2108+485437378+488982257+493120172+498144344+504220973+511085166+518004871
2098+524017091+528473433+531343651+532796403+532725709+530856626+527063619
2088+521521539+514711217+507223044+499515379+491965926+485009569+478993857
2078+473975697+469810756+466403469+463767380+461839325+460374881+459129504
2068+458051024+457199567+456578776+456107118+455668741+455205100+454808143
2058+454595393+454497976+454374261+454288019+454445532+454910996+455569624
2048+456331985+457249065+458448405+460045400+462162945+465012635+468870901
2038+473940411+480250895+487667128+495945660+504759742+513687488+522275853
2028+530200641+537288396+543303045+547894398+550959997+552851247+553882993
2018+553790677+552074037+548793015+544671074+540541358+536898424+533649652
2008+530162439+525941987+521236637+516645163+512434307+508604555+505239569
1998+502489270+500561792+499752788+499989953+500458393+500288672+499546991
1988+498992310+499104272+499790898+500741716+501710299+502581980+503382300
1978+504227441+505239327+506498733+508041584+509904501+512147886+514665120
1968+516961161+518460313+519194767+519810851+520812897+522247794+524106248
1958+526473287+529161607+531707689+533923804+536026590+538100710+539997487
1948+542003888+544977111+549261637+553751868+556661624+557483595+557529146
1938+558298521+560171309+562657325+565228550+567685475+569978479+572044279
1928+574018127+576418873+579633391+583182491+586139619+588414646+590648860
1918+592726199+593655304+593279605+592787236+593255555+594578519+595797993
1908+596268862+596346115+596736876+597496231+598110614+598387742+598821746
1898+600024943+601886494+603469399+604201849+604795157+605944969+606759348
1888+606036313+604438710+603467577+603346170+603262843+602715753+601808087
1878+600897141+600437143+600772394+602041305+604334309+607389097+609743746
1868+609169387+605275015+600247289+596144175+593255190+591000691+589164101
1858+587830752+586811882+585722864+584399353+583071288+582190648+582083635
1848+582939252+584898889+587191529+587461126+584337405+579805024+576443774
1838+574745718+573667693+572538287+572032861+573048147+574842892+575202739
1828+573395362+570993341+568834255+566133180+562791546+560107477+558947462
1818+558781659+558577897+558148205+558302044+559559233+561075756+561463541
1808+560577678+559603691+559765425+561617562+564777906+567759813+568963921
1798+568571642+568654726+571184045+576077306+580253908+580082578+576410674
1788+573373984+573426215+576080585+579540225+582616392+584952881+586535543
1778+588084376+591082682+596646261+604038171+609737855+610233746+606690355
1768+602668017+600110152+599778303+602010027+605600001+608011861+608692748
1758+609485020+611158236+613047725+615545827+620003566+626102635+631029603
1748+632643239+631980998+631375847+632289526+634915473+638251580+640595054
1738+641833112+644562671+650830884+657701880+659372241+656196228+652152573
1728+649149651+648044721+649288792+652118440+655617314+660650566+668915584
1718+679373518+686246457+685375352+680261628+676099541+675075388+677262108
1708+682181545+688784097+695237670+701217033+708890261+718807300+726444634
1698+728239257+726404429+722644339+717879834+714914871+715818590+720353521
1688+727593596+737679049+749744242+757638784+756179594+750107430+745604202
1678+745378758+749681565+756136959+761772873+767131415+773965545+779719647
1668+779865954+776338536+774769053+776726807+779147960+779204624+778501084
1658+780358627+786587910+797663202+810926126+817339857+814865987+812691049
1648+814298734+815310984+810760140+803559299+799064148+798855467+802583307
1638+809771880+817727338+819305324+811859604+802939875+798485780+798310928
1628+799244588+799321720+799442520+799947278+799027101+796746486+796167329
1618+798491915+799538479+794181030+784910442+777385465+773705787+772730888
1608+772179547+770846561+769273496+768231425+767439578+766267173+764967834
1598+764235142+764004961+763765305+763717447+764399062+765371532+765498222
1588+764410784+762888492+761805669+761254813+761092229+762107273+765676962
1578+771606280+776074891+774481904+769424298+767383521+770125469+773610799
1568+773028848+769541878+767039585+767173868+771156850+781572999+797381154
1558+805389269+798065867+786335743+777333720+771807552+769042282+768265740
1548+769300522+772686917+778959320+788593279+802190542+816525599+820134461
1538+809889157+798799592+794597300+795570133+796614572+796443060+798214847
1528+803317396+809846582+816408686+824160990+832873313+838631301+839892256
1518+840203274+841480141+842812276+844366940+847884094+854800580+866029225
1508+880956680+892148459+889496822+878644726+870404791+868185032+871148051
1498+876345952+880183174+882126291+885503575+892770252+901965287+907490179
1488+906612454+903324631+902087969+903581231+906547409+910241420+915090649
1478+921876435+930365197+938851043+945121139+947564034+946194609+943224544
1468+941417532+941824752+942756773+941849288+940270149+941717010+948144346
1458+957074399+960784080+955988661+949784826+947689085+949715104+953243190
1448+955156365+953728696+950275251+948122238+949556285+954159238+960204072
1438+966540611+971691261+973944849+974569253+976509030+980204013+983272830
1428+984004551+983232382+982275217+981947801+983305384+987195140+992580527
1418+996282190+996869790+996897727+998594022+1001231569+1002688633+1002136928
1408+1000857874+1000277623+1000056856+999432088+999122892+1000001588+1001168467
1398+1001048882+999727436+998119995+996207184+994338223+993926266+995730728
1388+998807987+1000926078+1000734159+999016304+997227451+996359019+996721903
1378+997916780+999254320+1000724138+1003734166+1009761934+1017513691+1022977971
1368+1023843670+1022610896+1022937765+1025252087+1027925710+1030084431
1360+1031604841+1032298664+1032484266+1033557797+1036929737+1042314516
1351+1047003408+1047925468+1045305777+1042072796+1040533194+1041476390
1342+1044772413+1049358543+1052758663+1053095978+1052178048+1053454672
1334+1057923464+1063520569+1067644515+1069332064+1068829917+1066976443
1325+1065864772+1067669780+1071548604+1073741823+1072249958+1069245215
1317+1067342668+1066577787+1065821044+1064580860+1062995708+1061782490
1308+1061944649+1063285651+1063535874+1060849376+1056902165+1054439410
1300+1053799640+1053947831+1054543386+1055274864+1055445283+1054594281
1291+1052235016+1047467049+1039565705+1029070663+1017850217+1008733103
1283+1004076158+1003111584+1001555948+995673152+986754334+979619450+976980992
1273+976650236+974302389+968452146+961204661+954772710+949620116+945100672
1263+940239721+934852816+929829828+925491067+921048573+915763883+909568125
1253+902706361+895573845+888786115+882681094+876977888+871173681+864586494
1243+856450838+846982015+837797184+830331847+824359954+818904663+814026950
1233+810657196+809017080+808080565+806799204+805377790+804776951+805100358
1223+805031304+803529054+801618612+801262104+802929490+805521000+808324472
1213+811710260+815783796+819495299+821804033+823353474+826021145+830648148
1203+836075381+840683253+844050577+846717277+849119966+851295815+853339689
1193+855595889+858211754+860998281+864015718+867666608+871733889+875116032
1183+877414746+880040875+884748169+891578837+899215868+907303119+917040446
1173+928676433+939906900+948276502+953804735+957764031+960049930+959548754
1163+957125537+955875028+957229695+958965467+959303511+960575034+965434041
1153+971718166+974521638+972511532+968690222+966184711+965606221+965178109
1143+963329919+961663201+963775887+970522925+978389651+983801457+987067295
1133+990035538+992340993+992639195+991384253+990077687+989176398+988446742
1123+988356006+989578091+991891866+994695095+997711317+1000392896+1001949382
1113+1002403792+1002190799+1001269710+999816775+999091007+1000090685+1002254508
1103+1004781459+1006932346+1006647626+1002249953+995478682+989986161+987442752
1093+987628233+990011609+994008135+999587991+1005746762+1008564263+1004927706
1083+997580436+991599494+987452894+981483127+972176767+962579796+956598671
1073+955301458+956351910+956584399+955278562+953528578+951437514+949180403
1063+948984355+952006468+955541843+957445300+959819263+964061700+966313223
1053+962392736+954640250+948482936+945580469+943568540+940759238+938513363
1043+938682750+940708829+942419457+942678122+942026084+941499644+941301652
1033+940878945+940292499+940477616+941810419+942966486+943010579+943500093
1023+945968801+948635075+948276867+945287671+943363442+944631564+947534882
1013+948543124+945515666+939242776+931502741+923498149+916649138+912367467
1003+909770429+905915959+899353127+891379266+883549223+875883950+867880087
993+859911571+853293531+849324457+847925090+847241531+845610282+843606128
983+842573289+842022616+840343448+837409338+834658765+833009053+831971841
973+830268866+826590281+820493034+813206679+807063517+803674511+802671796
963+802419751+802064580+802290692+803585536+804903884+805305396+805903198
953+808568440+813458299+819053886+824113375+828571478+832621207+835906966
943+838254388+840783160+845396742+853103860+862935749+872227837+878676976
933+882713526+887146971+894116902+903063536+911334142+915583746+913881378
923+908336504+903837953+903198365+904986489+905632758+902709519+896969872
913+891837442+890069238+890832905+890971985+889005000+886568968+886306355
903+889695482+895998860+901955509+903669234+900785958+897569011+898411874
893+903687029+910576184+916550264+920629570+922659111+923433285+924788620
883+927685075+930671842+931332564+929088998+926324456+925984590+928436109
873+931594145+933402615+933069369+931209882+930017253+931548655+934782912
863+936170922+934337612+931586553+930590094+932202637+935646182+939375662
853+942128178+943709382+944001208+942421704+939803835+938905521+941956909
843+947836729+952313902+952970374+952566008+954517021+957823125+959492576
833+959355439+959476238+960422714+961098377+961324975+962604575+966084621
823+970157004+971905408+971930795+974356989+980897228+988435810+993662074
813+996368857+996769579+994959044+993015077+992933511+993536598+992370448
803+988628700+984121646+983101500+987638922+993396546+993197096+985088224
793+973927965+965682442+963064634+965062168+966593206+961343377+949467796
783+937485565+929721601+924940455+920643053+917039717+915562246+916182156
773+918457791+922185266+925778824+927897644+930409472+936335085+945110268
763+952148099+953933916+952592974+953503131+958351449+963145713+964084111
753+962895308+963311395+965038968+965445520+964909240+965880556+968823837
743+971808599+973400674+974166163+976038707+980170063+983446408+980607346
733+973429462+970159433+972867857+975199427+972829473+969271141+967548488
723+965317493+961592264+959725915+961364634+963443309+963393203+964239711
713+970319406+978685546+979626799+969340985+955780952+947298202+944292609
703+943698571+943882473+942794428+938713178+933567021+931803130+936909627
693+948164023+959159937+962012542+955914566+947671290+943203895+943442214
683+945676610+945471694+939840700+930283570+921449841+917176915+916558766
673+914296008+906646648+896642760+893415731+901300556+909657829+909757068
663+906537691+908590250+916117778+920620460+917396953+912235675+910220467
653+908837437+905851581+903336656+900650461+893971141+886436750+886650776
643+894627856+899970911+897435943+893646580+893783777+895822429+899585555
633+907144604+914045784+914486651+911319505+911281182+915081538+917744169
623+914186383+901719437+882159026+864076451+854242072+850758503+851210484
613+859703862+878283482+896227280+899454309+887525768+865995336+848496655
603+850874505+874188567+902832505
##END=
