##TITLE=<SNM>
##JCAMP-DX=4.24
##DATA TYPE=INFRARED SPECTRUM
##DATE=29/4/2025
##SAMPLING PROCEDURE=Instrument type and / or accessory
##ORIGIN=Admin
##XUNITS=1/CM
##YUNITS=ABSORBANCE
##RESOLUTION=4
##FIRSTX=4497.3318
##LASTX=599.83466
##DELTAX=-1.4281778
##MAXY=2.2566807
##MINY=0.68573922
##XFACTOR=1
##YFACTOR=2.1016977e-09
##NPOINTS=2730
##FIRSTY=0.70598978
##XYDATA=(X++(Y..Y))
4497+335914045+335093300+333406603+331907055+332110937+334218443+336147932
4487+335754490+333726478+332627944+333547185+335201778+336114353+336096203
4477+335517484+334459051+333105531+332046871+331624020+331379158+330690033
4467+329955843+330383402+332217940+334112659+334761655+334195330+333107289
4457+332086264+331597390+331834538+332598960+333682491+335007028+336158567
4447+336343618+335203139+333450732+332472814+333153998+334960177+336499542
4437+337103842+337161867+336858044+335919944+334784485+334630432+335731065
4427+336714484+336166054+334320739+332602363+331988506+332225484+332189750
4417+331001230+329301799+328837400+330179633+331980509+332940417+333168122
4407+333356037+333901319+334939105+336159163+336672766+336074961+334968146
4397+333803391+332416604+331060417+330667742+331769168+333684590+334869679
4387+334228114+332194855+330056011+328571948+328074652+328990460+330948168
4377+332297774+332075572+331410610+331527737+331883091+331573567+331188889
4367+331954304+333852199+335500723+335692807+334556979+333198552+332562574
4357+332791923+333510373+334299752+334759698+334462965+333233152+331563500
4347+330330708+329776096+329276700+328576231+328588199+330131676+332357955
4337+333408106+332522756+330609433+328799709+327466296+326575870+326278711
4327+326817839+327958885+328984675+329449471+329513168+329639031+330372710
4317+331903369+333540747+334344391+334282282+333777952+332658999+331006079
4307+330114462+330973437+332745015+333945448+334221875+334081520+333830135
4297+333538762+333355044+333437062+333712128+333661987+332622896+330732885
4287+329152596+328826084+329569038+330645422+331522179+331829944+331429668
4277+330687140+330135930+330052948+330540404+331625665+332938801+333692928
4267+333443046+332694648+332412577+333031227+333994142+334288521+333538875
4257+332384585+331663583+331514919+331565853+331769849+332447346+333284115
4247+333096597+331447421+329790900+329935423+331921916+334216373+335508607
4237+335510280+334380664+332333508+329922491+328072014+327385158+327741135
4227+328892788+330873807+333208535+334541012+334141502+333089167+332762882
4217+332924649+332547004+331773479+331497534+331630798+331402357+330856053
4207+330611106+330660651+330620181+330699874+331398868+332609595+333793749
4197+334640727+334980114+334472182+333005476+331369941+330905939+332008188
4187+333503255+334143033+334144565+334461150+335154161+335367827+334629638
4177+333533061+333086529+333629685+334694044+335783872+336579319+336618910
4167+335744224+334546259+333593667+332815717+332184986+332033514+332169331
4157+331961252+331592540+331698523+331897952+331416565+330792271+331153978
4147+332283396+332891836+332488185+331728102+331189797+330874261+330599337
4137+330260318+330046964+330469333+331606834+332532455+332407132+331822826
4127+331963918+333056893+334524989+335844733+336530341+336092970+334660664
4117+333165541+332547657+332974280+333882800+334447027+333883367+331882297
4107+329343035+328132847+329239775+331447223+332544509+331799088+330591197
4097+330560256+331615994+332179200+331487409+330637056+330688898+331195469
4087+331438629+331753371+332702277+333998850+334881676+334924585+334339371
4077+333734986+333443103+333121242+332340145+331407745+331054717+331367190
4067+331637690+331523086+331653231+332507810+333485983+333863174+333950637
4057+334334039+334672746+334263508+333229465+332317286+331906517+331847726
4047+331980282+332219415+332294683+331990690+331605700+331570278+331718970
4037+331555105+331154829+331184890+331939613+332873034+333283690+333126659
4027+332891269+332908909+333125156+333424839+333781384+334185971+334688514
4017+335249763+335411587+334641039+333163527+331835162+331208288+331310895
4007+332017348+332982079+333727159+334404118+335620715+337154295+337952579
3997+337579528+336611735+335733617+335351747+335553785+335703981+334925833
3987+333438168+332355402+332138050+332290911+332323781+332097438+331608677
3977+331191158+331473087+332617111+334058775+335212356+335932337+336151902
3967+335721422+335005440+334952406+336091410+337865456+339160952+339203662
3957+337865740+335759028+334253270+334571585+336508164+338441991+338852563
3947+337796399+336784874+337131522+338552228+339545034+339173487+337915597
3937+336684876+336000203+336177824+337356305+338824996+339162682+338001018
3927+336779514+336883313+337929862+338681664+339028084+339760629+341028332
3917+342081829+342064813+340553269+337731965+334671555+333138684+334496062
3907+338779024+344717374+350250740+353614179+354459513+353268893+350296032
3897+346221204+342792140+341649251+342750450+343976889+343230079+341447241
3887+341216275+343255433+345876628+347807478+349343326+349821877+347840007
3878+344447073+342260953+342338603+344105304+346898872+349596583+350247989
3868+348839904+347742901+348074319+348486989+347745227+346387197+345378310
3858+345492346+348122815+354619550+361986263+362840161+356845885+349447068
3848+344326939+342860176+344726960+348175026+351188727+353061523+354130109
3838+354371851+353703004+352780502+352043986+351070124+349468820+347784761
3828+346699642+346233768+346641503+348979266+353328989+357069279+357973942
3818+357278776+355980614+353168300+349033576+345521189+344348918+346003625
3808+349244179+351941351+353983713+357059750+360779223+362215499+360710535
3798+358261344+355441259+351900087+348550856+346702024+346472051+347259643
3788+348953345+351806668+355438196+359044711+362482993+365724199+367626972
3778+367298618+366210095+366918023+370890215+377823555+385453877+390819293
3768+393357506+394610206+395123895+395054044+395978134+399209187+403376696
3758+405869220+406787808+408880198+414470511+423112131+430603459+433636785
3748+434703385+437201355+440145998+439641044+436308461+434951934+438893440
3738+448536091+460455161+468362193+469455197+467300273+466195301+467058473
3728+468590522+469706469+470760136+472677572+474843245+475146728+472741156
3718+469607123+468558276+470626248+474339567+476525602+475176364+471649740
3708+468218350+466259622+466886213+470277105+474237811+475899125+475526812
3698+475556590+477008634+479218520+481829988+485393962+489735120+492575058
3688+491708199+488047799+483830689+480254860+477904874+477585935+480284014
3678+486360195+493770555+498111089+498585783+498875398+499698752+497294258
3668+490115658+482085967+477444588+477656325+481152178+484821369+487070052
3658+488490616+489338984+489159577+489586456+493468632+500587392+505159232
3648+501817205+493605045+486008585+480841066+477637607+476003774+475972691
3638+477010676+477870388+477866985+477932554+480037677+485342743+491786756
3628+494058241+490972477+486925982+485107410+486126507+489324748+492944024
3618+494858000+494910183+494566684+494853689+496124625+498631613+501814539
3608+503490516+502049816+498928318+496883091+497152854+499275334+502402844
3598+505767389+508394851+509135394+507703939+505834092+505974646+508440795
3588+510357834+508858882+505040289+501756684+500162725+499978214+500547234
3578+501147563+501428556+501761108+502754908+504920666+508792065+513997076
3568+518139202+518879631+517222883+515582753+514151582+512015489+509448037
3558+507318354+505814524+504733205+504247224+504813748+506682857+509723188
3548+513479785+517210744+519922153+520727981+519675363+517901486+516271850
3538+514331273+511470122+508396496+506373617+505690079+505676182+505746062
3528+505816055+505700969+504663665+502218219+499288152+497632142+498141945
3518+500194999+502289970+503092678+502499949+501828152+502409934+503883986
3508+504653058+504367698+504460946+505623319+506320357+505161558+503403223
3498+502953997+503329827+502655760+500820172+499482363+499657686+501051592
3488+503044749+505189010+507044450+507966952+507175361+504666501+501836944
3478+500159946+499731253+499806124+499880031+499546060+498309554+496389906
3468+494893110+494610982+495244777+495955484+496036595+495054877+493130294
3458+491332142+491054155+492372225+493488257+492649191+490369595+488563899
3448+487834360+487209414+486427579+486313911+486664217+486092758+484365903
3438+482743074+481850804+481490062+482042236+483847648+485921462+487008794
3428+487110153+486783557+486178520+485554538+485230437+484580534+482576089
3418+479727700+478056658+478669409+480199558+480312715+478516548+476223226
3408+474307718+472705223+472013319+473398546+476723387+479990089+481278381
3398+480720705+479874039+479478470+478869973+477573230+476232187+475710699
3388+476308306+477950704+480259738+482579719+484322399+485010078+484495907
3378+483471024+482975004+483273978+483849634+484439470+485309619+486499331
3368+487565732+488124372+488325957+488697759+489678910+491368329+493269033
3358+494343715+493952571+492597859+491338608+491041846+492039900+493753766
3348+495101955+495701433+495908463+495798539+495139107+494121938+493244246
3338+492815779+493010217+493692337+494140032+493717691+492700013+491865201
3328+491517334+491334524+491065556+491003220+491516880+492258104+492451747
3318+492128441+492214315+492995413+493380772+492448344+490995676+490395120
3308+490527222+490184857+489230989+488845970+489567625+490511453+490762952
3298+490512361+490401756+490602943+490845537+490654559+489841528+488945458
3288+488720561+489332688+490370503+491486989+492600809+493725122+494900710
3278+496103581+497205830+498227026+499140452+499380267+498589129+497515184
3268+496905099+496206983+494742971+493324392+493163192+493868284+493828013
3258+492549647+491394875+491404801+491635823+490656034+488808591+487737595
3248+488418808+490374417+492133772+492428095+491331121+490002614+489216241
3238+488872515+488888340+489551176+490749055+491534237+490965557+489084933
3228+486842603+485406497+485609103+487421605+489630868+490678268+490167160
3218+489005978+488047913+487256152+486183114+484836230+483702671+482812159
3208+481545761+479881583+478813877+478963278+479730479+480152763+479865985
3198+479101846+478317743+477840894+477530406+476869669+475502450+473688246
3188+472314306+472180162+473023425+473689352+473450530+472600574+471760430
3178+471265828+471046461+470633395+469617417+468309245+467501971+467483537
3168+467652989+467200133+465980302+464587474+463621411+463060984+462493298
3158+461668128+460513016+459098010+458071313+458504827+460611142+463031745
3148+464071772+463365630+461723232+459877803+458085153+456430616+454852624
3138+453137709+451338876+450006285+449667664+450106028+450412631+449904897
3128+448817679+447890101+447495355+447501991+447792117+448380081+449062145
3118+449563100+449974238+450367822+450214960+449044079+447360360+445971985
3108+444831478+443497724+442293605+442012867+442745214+443771287+444455676
3098+444670562+444451791+443813828+442984234+442446155+442527918+443008936
3088+443257598+442754913+441438346+439765914+438611142+438635248+439406136
3078+439661974+438871773+437881547+437632232+438010728+438300683+438141979
3068+437711527+437295766+436989192+436769797+436590617+436292494+435712981
3058+435015461+434614504+434629223+434740707+434636937+434252542+433659558
3048+433019439+432523277+432251671+432167016+432116222+431844191+431292528
3038+430805271+430713213+430826824+430653089+430077036+429582349+429646670
3028+430064303+430190307+429759175+429034741+428267852+427481791+426724516
3018+426134793+425794981+425703377+425746797+425652556+425211299+424603482
3008+424272547+424363101+424470671+424166848+423604436+423233569+423040181
2998+422544217+421575375+420587928+420137284+420387903+421041437+421402803
2988+420797227+419332222+417914465+417244625+417278742+417830717+418961043
2978+420414108+421350081+421122292+419930878+418425290+417080419+416158768
2968+415802592+415857951+415922215+415866374+415993711+416420079+416735502
2958+416561909+416015549+415406456+414895036+414515150+414148651+413558645
2948+412736311+412010119+411606269+411329785+410908267+410472427+410421577
2938+410880616+411496572+411780146+411495211+410715332+409714755+408879518
2928+408558565+408811992+409349135+409817079+410040160+409911915+409287423
2918+408216370+407071581+406224914+405786834+405668543+405614262+405340018
2908+404893855+404627326+404682174+404813000+404712208+404247951+403601791
2898+403316629+403765883+404524605+404792382+404370098+403675840+403026050
2888+402445516+401961407+401610080+401346046+401215362+401354356+401646239
2878+401691559+401328718+400922373+400849855+400907257+400656609+400154321
2868+399791083+399574779+399216589+398826523+398819801+399136925+399147929
2858+398491305+397598383+397171476+397423655+398007337+398460591+398560645
2848+398382061+398117460+397837970+397513075+397265348+397325756+397622092
2838+397712618+397290674+396533200+395831795+395374401+395115954+394969899
2828+394871177+394734424+394507287+394233554+393986848+393809625+393659288
2818+393376621+392916448+392602131+392823171+393499024+394182761+394587490
2808+394663722+394373880+393746807+392977394+392232002+391519649+390877205
2798+390479623+390440372+390583109+390525425+390020981+389176271+388317155
2788+387729389+387562602+387836988+388393727+388912011+389120260+389004720
2778+388749705+388502120+388302861+388197021+388175070+387954342+387126450
2768+385745931+384547994+384292866+384955588+385737990+385863938+385270103
2758+384540706+384283535+384566882+384879951+384680578+383994771+383333155
2748+383027205+382881717+382575114+382156687+381897815+381811657+381598274
2738+381091619+380540579+380298440+380401160+380630623+380847551+381038699
2728+381130302+380993039+380659494+380381677+380327509+380270278+379831999
2718+379045144+378296576+377717743+377141236+376619550+376417426+376543601
2708+376738436+376782876+376554406+376061647+375571582+375375670+375378506
2698+375218526+374796724+374413379+374375177+374604470+374692812+374384876
2688+373946512+373886701+374307850+374719896+374601889+373968009+373189890
2678+372490242+371916742+371596782+371653644+371996321+372432983+372857479
2668+373189095+373311044+373176305+372826084+372308283+371725651+371280225
2658+371106433+371144549+371279714+371448372+371499818+371202347+370618892
2648+370238043+370410359+370818917+370840925+370346095+369814029+369719079
2638+370065669+370444817+370387615+369784222+369013419+368544086+368512067
2628+368817847+369345489+369831726+369883370+369438993+368898362+368608747
2618+368534046+368495420+368411984+368241794+367985985+367822516+367989246
2608+368468818+368966625+369218606+369158907+368830439+368321713+367750651
2598+367227490+366943150+367208375+368091910+369082193+369507880+369286131
2588+368882338+368621112+368432148+368202203+367983914+367807570+367595606
2578+367365916+367293144+367453975+367681254+367800537+367854705+367942225
2568+367987715+367873508+367696965+367661912+367762903+367807854+367730232
2558+367656297+367667244+367683721+367587750+367369376+367147089+367012349
2548+366906055+366759433+366650558+366646814+366652628+366618879+366660144
2538+366760964+366712894+366532324+366524865+366764594+366959145+366939889
2528+366829624+366712610+366595142+366613406+366853759+367087731+367031152
2518+366728435+366450164+366365310+366454844+366633967+366874802+367191728
2508+367515630+367689847+367623626+367375275+367115609+367057697+367285714
2498+367609417+367766136+367762279+367800707+367921493+367977079+367931022
2488+367921664+368027646+368185584+368353732+368552282+368708320+368653273
2478+368340828+367916105+367537297+367282395+367216940+367343171+367491779
2468+367513475+367550088+367809244+368134224+368174580+367914460+367615316
2458+367341356+366981380+366631812+366555211+366816437+367204376+367451167
2448+367447963+367325191+367292066+367360670+367386336+367382479+367495296
2438+367658424+367626263+367387839+367232226+367380182+367775013+368216525
2428+368550041+368713538+368671877+368372109+367853712+367415292+367475585
2418+368118399+368927431+369453967+369677446+369784846+369765816+369583715
2408+369479094+369689556+370082231+370396832+370638574+370958676+371324693
2398+371552681+371639918+371919436+372777106+374336919+376670541+380198725
2388+385543694+393086212+402960821+415286804+430063849+446936176+465265567
2378+484409862+503921535+523526626+542965640+562014871+580461106+597341119
2368+610467882+618181923+621215560+621684922+621111478+619616951+616095744
2358+609228936+598355621+582907857+562754562+540658591+521949173+510842850
2348+508901535+515603910+527932445+540392402+548703596+552780437+554788115
2338+556609863+559123998+562348500+565668350+568047944+568698301+567924860
2328+566715353+565488319+563810017+560929581+556470785+550876614+544972410
2318+539157087+533331951+527418785+521684912+516494478+511670402+506325462
2308+499634374+491687382+483348905+475426728+468206382+461632139+455606525
2298+450034957+444784825+439761348+434958173+430356668+425901190+421655663
2288+417846684+414679016+412207194+410357908+408895456+407438364+405787826
2278+404232324+403264701+402955802+402834959+402401643+401544539+400445750
2268+399322600+398410421+397956743+397982068+398141935+398021262+397511544
2258+396777864+395986443+395225680+394578982+394122921+393879845+393808689
2248+393812149+393775026+393671511+393633650+393830668+394210611+394433097
2238+394224847+393735321+393316894+393051357+392773938+392456984+392274684
2228+392373775+392734148+393138395+393259238+392902239+392164022+391355415
2218+390829021+390750236+390917136+390968865+390832027+390726243+390751541
2208+390747060+390532770+390134167+389810009+389849402+390260625+390733107
2198+390964725+390946149+390907380+391035115+391268945+391429209+391491998
2188+391568004+391701042+391901322+392219523+392578989+392777681+392855672
2178+393180794+393960105+394903394+395554886+395783186+395785454+395771756
2168+395822153+395925809+396033351+396160377+396433571+396885463+397300288
2158+397456128+397371728+397198220+397120201+397386248+398087965+398893056
2148+399314602+399222602+398846148+398411471+398039356+397870272+398031046
2138+398468560+398970734+399401328+399824690+400348730+400904023+401239185
2128+401157507+400765824+400432478+400462596+400884880+401566774+402371269
2118+403125141+403630236+403867328+404078924+404531354+405253264+406039410
2108+406647000+406974901+407113894+407264941+407588900+408111579+408736412
2098+409303560+409689798+409947139+410292822+410847349+411460668+411935305
2088+412297437+412659909+412985541+413215684+413435022+413663521+413722624
2078+413584169+413583006+413994570+414651932+415196108+415492246+415675850
2068+415948874+416355418+416686183+416710545+416528784+416482812+416737062
2058+417197008+417794728+418563461+419422861+420163886+420716712+421242057
2048+421917257+422786669+423796038+424815815+425687127+426346190+426822217
2038+427140561+427403262+427839102+428540252+429336040+430141783+431143750
2028+432446874+433883831+435272660+436514952+437499790+438298697+439293007
2018+440715302+442235751+443342651+444004210+444693108+445879928+447653548
2008+449747470+451817540+453661891+455250462+456683902+458124942+459622958
1998+461032660+462303794+463755924+465694034+467790309+469346606+470233770
1988+470970059+471910087+473009188+474235116+475584043+476857417+477932213
1978+479011831+480264162+481567032+482874325+484482407+486701029+489431439
1968+492185445+494505766+496355137+498035141+499793362+501658501+503603730
1958+505719971+508116014+510643364+512895451+514660705+516253984+518205735
1948+520763148+523860142+527339433+530867730+533795868+535650797+536769552
1938+537933570+539523104+541383989+543279304+545094359+546738289+548289480
1928+550267323+553322515+557392322+561487767+564808978+567747552+570911250
1918+573725380+575222290+575764821+576625781+578410888+580692979+582627601
1908+583704553+584092351+584224963+584310157+584533806+585368221+587257410
1898+590087648+593061559+595212853+596428487+597619276+599269502+600490070
1888+600390015+599646523+599587533+600608786+602067239+603065349+603173515
1878+602672900+602156404+602068600+602857866+605084882+608645963+611888332
1868+612491328+610185640+607203221+605538532+605332977+605562071+605395596
1858+604750401+603903338+603033359+602214145+601730093+602108475+603611454
1848+605865015+607990275+608696274+606842025+603064442+599476758+597297898
1838+596210567+595350854+594480365+594339869+595663951+597793011+598822261
1828+597930728+596128946+594018377+591167379+587817468+585239749+584189570
1818+584082822+583806309+583078983+582656699+583050339+583486860+582716142
1808+580702962+578747581+578149690+579276045+581473850+583443185+584053554
1798+583351695+582738773+583911072+587126953+589908808+589152781+585709678
1788+583118404+583119368+584837998+586589356+587672434+588379454+589102130
1778+590117199+591963111+595541038+601067484+606315376+607857719+605655546
1768+602579028+600727275+600986033+603528756+607159093+609667215+610427950
1758+610688581+611144443+611878803+613693688+617410524+622214975+625835330
1748+627040129+626603325+625740550+625355985+626138387+628056277+630086416
1738+631983319+635565613+642157440+648591640+649381076+645240311+640530470
1728+637620086+637090033+638297895+639928893+641748202+645270657+651888688
1718+660312076+665759680+664859413+659897392+654791188+651837243+651873487
1708+654709454+658912271+662353956+664953682+669341748+676817336+683639845
1698+685476964+683183415+678597849+673277355+669758927+669386954+671544317
1688+675554285+682156775+691251222+697962559+697474082+692911090+689063684
1678+688023884+689883465+692725047+694361886+695475990+697746454+699940969
1668+699330486+696858495+695777289+696992185+698597488+698828283+698505827
1658+699585218+703543003+711134754+720082012+723285471+720772244+720408438
1648+724205023+727506722+725427236+720583761+717691811+717728623+720225175
1638+725529219+733259653+739076111+738660747+735148218+733728164+736017402
1628+740527474+745154900+749579608+754400848+759210007+763591664+768410181
1618+774068559+778749983+780650176+781334792+783040830+785786612+788140511
1608+789162444+789360682+789766744+790943183+792820234+794528144+794782989
1598+793547334+792500784+792963623+794606305+796856123+799848241+803124359
1588+805227554+805649214+805791129+807198194+809904100+813170349+817213441
1578+822982083+829365632+832319805+830830892+828586804+828015628+828622027
1568+829570053+831557028+834998429+838982362+843692770+851679807+863583109
1558+871418078+869301610+863897114+860028153+857299218+854689736+852875134
1548+853348297+856537008+861404929+866810164+872170248+875179893+871681431
1538+864046175+859220794+859008262+860389519+859424818+856462534+855374352
1528+858066589+862944833+867257348+870093995+871930888+873388547+875712952
1518+879317652+882348908+883004426+882277894+882717194+886038234+893157051
1508+903589874+911370392+908900272+901045450+896335836+896910528+900838080
1498+904936248+906970301+906986750+906764179+908308564+912729187+918881317
1488+923247602+923567619+921351834+919657310+920285262+922936887+926049197
1478+928625100+931377745+935549536+940315190+942278853+940114513+936975375
1468+935756168+936298303+935992806+932696779+928064362+925520562+926458378
1458+929650776+932669951+934305202+934646035+933425864+930155986+925193568
1448+920035181+916855999+916835636+918439521+919031910+918390004+918788012
1438+921664761+925730768+928326013+928524421+927436579+926638012+927299089
1428+929213632+931364812+932836425+932521627+930511396+929105806+929718274
1418+929863875+927072264+923798812+923315100+925091528+925909210+924452912
1408+923081014+923887466+925369912+924574010+921677750+919965245+921551660
1398+925091585+927359723+926564445+923881340+922359983+924046000+928353239
1388+932716915+934604402+933915929+932751628+933187298+935992636+939990465
1378+943195399+945458319+948355998+952005733+954904263+957215736+959881257
1368+961640840+960681243+958455532+958588598+962488925+968005331+972524818
1358+975675981+978431121+981564133+985120053+988215970+989418785+988094135
1348+985404677+983373970+983231375+984867647+986825184+986994665+985127200
1338+984519724+988284375+994549719+998248688+997992084+997730716+1000737582
1328+1005923875+1010103834+1011239037+1009371459+1006336914+1005634374
1320+1010221132+1019086088+1027331430+1030724108+1029930362+1029897691
1311+1035442344+1046513727+1057419032+1063086315+1065470163+1069057619
1302+1073229410+1073741823+1069608829+1064349593+1061287709+1060501222
1294+1058905562+1053763511+1046691716+1041855047+1041171906+1042965181
1285+1043957789+1041955783+1037542817+1033103192+1029855718+1026673245
1277+1022558742+1019108549+1018632097+1020748338+1022517336+1022378598
1268+1022003562+1023010918+1024162003+1023283063+1020105015+1015945248
1260+1011858311+1007786122+1002787233+996928689+992785598+992703921+995039103
1250+995186349+990681949+982791337+973995467+966201733+960172120+955255249
1240+949700386+942782757+936279868+931770988+927839748+922638538+917320766
1230+913355381+908846671+901462346+892714177+885810785+881552382+878669053
1220+876295585+874349279+872517888+870377371+868037481+865887208+863944759
1210+861750754+859280804+857835056+859098958+862931901+867061435+869785890
1200+871930718+875243761+880077990+884867637+887332709+886765391+885044038
1190+884733096+886743156+890472527+894871824+898656781+900982661+902161709
1180+903039118+904707324+908515764+914477199+920362118+924126996+926127074
1170+927798683+930484738+936033078+946001758+959059378+970402678+975914888
1160+976362752+975438549+975510811+977192119+980434261+983398360+982885720
1150+978786078+975226301+976334165+981979554+987662151+989273126+987688923
1140+986749406+988234348+991196971+994306841+996428074+996546846+995344713
1130+995825249+999350993+1003257673+1004780958+1004413863+1004158280+1005056619
1120+1006713084+1008188156+1008960689+1008217651+1006182747+1006676102
1111+1013117733+1022354775+1025921359+1019661007+1009846663+1005350658
1103+1008808111+1015522681+1018100513+1014890475+1011650374+1013513755
1094+1019924417+1027113963+1031716263+1033530524+1034578491+1035234974
1085+1034472878+1031684953+1026446137+1018824266+1010654476+1005265010
1077+1005019978+1008955698+1012128301+1010314267+1005884398+1005133192
1068+1011022479+1020340631+1028086946+1032444894+1033134048+1029017843
1060+1021099324+1013736440+1009072996+1003565324+993573786+983173633+980768912
1050+989277324+1001994961+1007095720+1000318418+990100338+986144085+989538351
1040+995048632+997630434+995078694+988978407+983528136+981916935+984500552
1030+989373862+992899153+991653117+987281444+986253896+992130931+1001658042
1020+1008195644+1007495826+1000854653+992746007+986834713+984475255+985155901
1010+987668164+990305779+991155112+989258379+984353533+976776472+968187631
1000+960630195+954921279+950691406+946971224+941711137+933973784+926277156
990+921545477+919699339+918637589+917466141+917242435+918212299+917791433
980+913364003+906117225+899501576+894748230+890121881+884553405+879745097
970+877659883+877849443+878360948+878183016+877517571+876132457+873162687
960+868747792+863953097+859534855+855959310+853852655+854382197+858711728
950+865916589+872211314+874623863+874956358+877058986+881345522+885141824
940+887491583+890528340+896388983+904655482+913311820+920520822+924997485
930+927110890+929052772+932543918+937229653+941837851+946069709+950231176
920+954138196+957019823+957483343+954592300+950180015+947516591+947266908
910+947123915+945812708+944414832+943760732+943884155+944725887+945049761
900+942583668+937409060+932716291+930476627+930426486+932936934+938113982
890+944441150+950713414+957434336+965238733+971687511+972180071+965656082
880+957181590+952234997+951280278+951762175+952786661+955340443+959929243
870+965722786+971260519+976427981+981011109+981237650+974054456+963950157
860+958381908+958902489+961045162+961234154+960669105+961839021+963962409
850+963885042+961441978+961177207+966401730+974344411+980834368+986616566
840+992780153+994712279+988583859+979793774+975764351+976769552+978430441
830+978514387+978881141+981907065+987810873+994907965+1000669064+1004201274
820+1008140625+1014653269+1020639548+1021872198+1019467136+1017194687
811+1016038383+1015102949+1013485622+1011401712+1011646971+1015649621
803+1019577060+1018872025+1014382486+1010004119+1007571945+1004974601
794+1000545753+997823397+1000934742+1007966606+1013670757+1016382677+1018061149
784+1019105033+1017225656+1012170841+1007308082+1004803305+1002216398+995275627
774+983081860+970189183+962424377+960915272+961141246+958852802+955617239
764+955781388+960430425+968067156+976577156+981873714+982748003+983380436
754+984789827+981358238+970611410+959728112+955195012+955268181+955867490
744+956353811+957990651+962414621+970697738+981334529+990723355+996419566
734+997990042+996236699+992552250+988640353+985233381+981723064+979111200
724+979453338+982044783+983726772+984189611+986690983+993473051+1003331182
714+1010644834+1007927583+995337226+982806539+977921431+981907859+991919136
704+1002266539+1004931721+995448511+979230766+966072978+962799866+968130797
694+971218546+962741104+949158933+943440374+948378175+955837995+959469694
684+962240716+968368796+977661198+987659315+994557773+993371067+983929604
674+971872419+962409176+954702224+941258508+920970559+909165553+912542747
664+923160990+931242693+930567152+924985461+923807263+929746577+938653961
654+946861640+953602188+953919595+940679335+919491969+904015618+903137925
644+914455475+928091360+939640840+947888734+949255981+945252820+939891828
634+935178357+933826368+934938429+931804566+925397365+923866706+925889188
624+922592594+913703588+905240553+900756630+900968764+903634740+904754686
614+901325536+892161436+878953960+868108439+868360788+883347018+904673405
604+918429482+918118143+908853591+899695333
##END=
