##TITLE=<SNM>
##JCAMP-DX=4.24
##DATA TYPE=INFRARED SPECTRUM
##DATE=29/4/2025
##SAMPLING PROCEDURE=Instrument type and / or accessory
##ORIGIN=Admin
##XUNITS=1/CM
##YUNITS=ABSORBANCE
##RESOLUTION=4
##FIRSTX=4497.3318
##LASTX=599.83466
##DELTAX=-1.4281778
##MAXY=2.1465244
##MINY=0.5490433
##XFACTOR=1
##YFACTOR=1.9991067e-09
##NPOINTS=2730
##FIRSTY=0.57123017
##XYDATA=(X++(Y..Y))
4497+285742719+285348139+284901411+284529253+284125847+283432782+282562046
4487+282067763+282362878+283189487+283836307+283992750+284034492+284225580
4477+284204441+283698619+283189725+283313699+284056645+284895478+285325867
4467+284987429+283748739+282094567+280911691+280592515+280936975+281948590
4457+283780135+285720089+286318608+285039816+283053617+281948321+281995102
4447+282081120+281626670+281719606+283295809+285193545+285392505+283707355
4437+281930223+281597600+282614760+283673216+283585021+282317797+280758826
4427+279874942+280223814+281626819+283205528+283997878+283472646+281669396
4417+279342792+277695955+277371412+277956574+278716783+279332983+279737879
4407+279780516+279328123+278485622+277716915+277776070+279137452+281272699
4397+282869803+283052603+282190454+281354632+281211100+281580754+281915822
4387+282056582+282324505+282726509+282568636+281384358+279719692+278384160
4377+277679735+277857615+279255850+281209042+281803119+279994085+277287063
4367+276046703+276933301+278650145+279522640+279040163+278091012+277851593
4357+278678619+280252765+282169374+283733622+283935593+282585183+280771886
4347+279538651+278890817+278461173+278325900+278743259+279506182+279850135
4337+279092758+277373916+275601257+274644324+274742418+275620906+276920808
4327+278359651+279507374+279907381+279618259+279086229+278541497+278056605
4317+277862624+278064387+278499665+279135901+279928252+280367556+280087229
4307+279608360+279627800+280064211+280331330+280157177+279803980+279537518
4297+279204537+278624086+278010957+277591630+277238017+276930856+277145678
4287+278187675+279467183+279937972+279159336+277710923+276614572+276473245
4277+277182321+278284456+279286500+279781589+279805620+280003447+280849824
4267+281759230+281637285+280331807+278765293+277700755+277272096+277596490
4257+278796122+280331091+281304721+281558422+281680487+282002466+282276204
4247+282269943+282163113+282292930+282755192+283259285+283351803+282841091
4237+281793668+280230404+278230997+276292593+275121911+274953512+275447319
4227+276282038+277478599+279010616+280408582+281119357+281050513+280398057
4217+279408685+278724326+279118042+280346536+281194582+281100514+280700417
4207+280648956+281011842+281699241+282476177+282709932+281925602+280480497
4197+279270280+278970872+279669572+280936110+282165320+283004451+283461525
4187+283655147+283681057+283577001+283090857+281843579+280179389+279291301
4177+279862121+281118791+281870025+281926526+281884725+282031179+282053660
4167+281651685+281123352+281210056+282207986+283372644+283600495+282607694
4157+281049559+279653739+278659746+277987910+277610235+277712294+278471341
4147+279580125+280211590+279855234+279115358+279154894+280247011+281381168
4137+281571153+281009665+280442333+280067759+279708869+279453319+279403407
4127+279322547+279170875+279309279+279738953+279955086+279910363+280182878
4117+280847856+281151767+280773019+280575013+281325920+282332883+282352741
4107+281432719+280770335+281113841+282255482+283602612+284422841+284087832
4097+282718996+281196281+280261919+279951568+279945575+280105745+280437891
4087+280739267+280767473+280701282+280828804+280886616+280434581+279810927
4077+279927805+281075916+282483691+283111549+282619173+281554904+280807187
4067+280894845+281514295+281741043+281018759+279871364+279250364+279459252
4057+280151422+280985157+281767996+282367678+282833458+283193571+283208867
4047+282790404+282379127+282459093+282846994+282870430+282259447+281548315
4037+281346761+281506931+281543395+281532930+281843400+282187174+281801986
4027+280631335+279610984+279560148+280232700+280784170+280976958+281361192
4017+282168331+282725943+282362341+281319986+280367973+279973631+280197666
4007+280962378+282068627+283187400+284062041+284595085+284710681+284393681
3997+283904197+283537614+283118227+282357124+281701030+281878821+282636586
3987+283077201+283156272+283467905+283816301+283508425+282840495+282862320
3977+283803957+284839037+285245752+284984985+284284108+283390891+282614910
3967+282111115+281819100+281848171+282475671+283532128+284318009+284392279
3957+284006823+283675511+283666507+283981569+284597799+285457294+286175881
3947+286175523+285479537+284906391+284992111+285291549+285160748+284588735
3937+284066514+284277400+285745820+288131936+289918966+289612640+287433743
3927+285078695+284071374+284659696+285881809+286730064+287216268+287944336
3917+288927268+289369017+288690293+287242357+285856854+285154278+285363285
3907+286590557+288906666+291905821+294539049+295997093+296223931+295209215
3897+293029572+290682515+289669618+290665759+292559797+293234585+292333139
3887+291443172+291510704+291914616+292119450+292512271+292600764+291248177
3878+289264781+288723478+290183819+292598975+295271589+297843218+299044252
3868+298349040+297204209+296565290+295555851+293471440+291357362+290515040
3858+291310730+293956063+298746125+303603331+304046511+299965167+294832494
3848+291158134+289978538+291073875+293159658+294943736+296287736+297663638
3838+298743084+298807336+298208638+297800105+297577024+296942040+295896853
3828+294867766+293936803+293605968+295359605+299602579+303436543+303974089
3818+302382381+300587271+298526861+295957856+293814111+293319410+295100596
3808+298221698+300416248+301156839+302286822+304383279+305283711+303856556
3798+301820714+300497019+299752940+299380721+299513430+300041823+300741984
3788+301851006+303743435+306140821+308454396+310848800+313992830+317742415
3778+321088863+323648416+326177707+329877499+335665133+343209891+350545642
3768+355893852+359237885+361243314+362614148+364388924+367021228+369533166
3758+371053793+372649914+376269085+383066455+392716167+402672474+409622739
3748+413634701+417700302+423512891+428785400+431060601+432098186+434778105
3738+440167938+446832896+451966553+454284838+455012280+455955617+458109201
3728+461526550+464957913+466022242+463453207+458858498+455023998+453055092
3718+452076602+451547464+452599062+456297334+460896427+462692461+461112620
3708+458992430+458231266+458856679+460200231+461175382+460696841+458989836
3698+457479435+457306057+458794126+461954941+466759314+472164651+475450603
3688+475009242+472892898+472001202+473199940+475298842+476466810+476543317
3678+477680634+481311851+484872375+485470775+484425618+482983972+479639731
3668+474142472+469024200+466247052+465835656+466800043+468223978+469664342
3658+470977244+471992317+472667373+473700097+476231892+480260790+483167636
3648+482039264+477956071+473986238+471722694+471160520+471830895+473589183
3638+476475456+479943015+482662470+483866127+484734269+487104046+490420023
3628+491378059+489123460+486715429+486973096+490433976+494935482+497159013
3618+496533123+495780099+496856325+499337761+501965265+503986049+505151125
3608+505547971+505590369+505598658+505564788+505298057+504853625+505150469
3598+507382349+511564470+516095195+518991009+519983870+520829978+523041464
3588+525710560+526416654+524441844+521091163+517850620+515742118+515071385
3578+515411760+516316069+517502791+518661427+520196694+523240393+527839158
3568+531780428+532212456+528791052+523995147+520498488+519436991+520338378
3558+522003521+523362936+524104689+525155035+527830213+531869338+535098193
3548+535381203+532372507+527739633+523924782+522173590+521861838+521923675
3538+522220341+522822915+522772646+521083769+518774488+518136254+519867708
3528+522401262+524282390+525556472+526372646+526216114+525067078+523700151
3518+522543483+521441914+520549115+520460085+521417584+522958278+524464206
3508+525764943+526895791+527592105+527261033+525347882+521958559+518271617
3498+516058760+516408974+518780153+521423488+522956250+523323341+523056610
3488+522475682+521964821+521866310+521766010+520956635+519726143+519135615
3478+519392387+519233947+517431412+514560107+512317255+511514498+511821540
3468+512807901+513916566+514067194+512994547+511920230+511551172+511416047
3458+511628156+512998363+515142644+516277487+515121774+512134067+509100028
3448+507578894+507311984+506904583+506176962+506147206+506721515+506476490
3438+504931980+503421759+503319252+504368524+505240393+505134727+504410684
3428+503827490+503543824+502986212+501647489+499818330+498259807+497288592
3418+496585509+495822557+495139958+495076152+495982637+497237876+497575180
3408+496674867+495594616+495376962+496107356+497218615+497979838+497794683
3398+496581872+494955697+493820824+493623981+493987941+494201212+494017071
3388+493751622+493775982+494407447+495902493+497908310+499563376+500485812
3378+500964473+501137344+500822670+500380027+501017723+503553603+507085027
3368+509712382+510667555+510855275+511362200+512332819+512972960+512223813
3358+510267131+509186136+510751516+513927955+515937351+515436269+513240347
3348+510660459+508706879+508107406+508878319+510346620+512037047+513748227
3338+514734170+514289858+513130029+512485952+512157443+511127849+509615421
3328+508850650+509247735+510025327+510093485+508820655+506603207+504806576
3318+504545629+505652744+507216276+508649096+509847745+510779126+511335784
3308+511524040+511422905+511014669+510342148+509660622+509127399+508610873
3298+508200132+508266979+508558755+508379622+508121836+508949459+510492001
3288+510812221+509330085+507883967+508248493+510298438+513031638+516043792
3278+519211645+521801670+522887376+522442944+521337023+520231697+519091786
3268+517709413+516112845+514538759+513403260+512985721+512830919+512048616
3258+510656762+509764738+510012983+510984019+512185172+513158056+512935035
3248+511142996+509221258+508803482+509653883+510593732+511348306+512143251
3238+512691441+512816548+512958470+513253764+513163244+512472654+511679677
3228+511018187+510004575+508517788+507641685+508599543+511036256+513114286
3218+513454304+512146053+509865515+507334405+505679458+505887214+507551702
3208+509025191+508931331+507062487+504144728+501368832+499793106+499551390
3198+499774501+499479356+498403309+497246612+497090944+498060668+498765867
3188+497804253+495421119+492859956+490787321+489157748+487855699+486901807
3178+486610120+487461715+489200980+490506518+490297957+488997011+487678206
3168+486541038+485120919+483356250+481604999+479888333+478103838+476894068
3158+477099855+478245044+478769979+478104851+477350724+477598552+478647317
3148+479411194+478877285+476929429+474620178+473258945+473116098+473328654
3138+472989233+471904540+470374073+468823600+467767620+467641231+468353437
3128+469199784+469370091+468558569+467168683+465995676+465651425+466124957
3118+466754723+466635669+465280280+463173745+461650494+461896175+463836815
3108+465977131+466536860+465003322+462547706+460795292+460345583+460542306
3098+460333895+459164466+457356714+455967216+455925831+457094068+458463888
3088+459276602+459555498+459548342+459195265+458340809+457154951+456055470
3078+455204203+454392950+453563359+452928823+452433883+451822692+451362309
3068+451597674+452273445+452438177+451799347+451143671+451199665+451566487
3058+451116479+449608702+448241119+447888519+447736996+446754570+445558188
3048+445429295+446332918+447152072+447316237+447247572+447436215+447768272
3038+447733656+446961014+445517013+443821099+442379006+441519182+441211187
3028+441139659+441133607+441475443+442385923+443284596+443298729+442508197
3018+441767815+441371774+440852147+439927325+438855483+438027622+437672697
3008+437748607+437955885+438001891+437700902+436845730+435533722+434588358
2998+434896503+436168855+436963859+436282483+434751390+433758857+433753908
2988+433927942+433446389+432470106+431771436+431771615+432235069+432620287
2978+432456868+431580765+430355551+429490808+429284007+429259170+428865067
2968+428172509+427536482+427028483+426599615+426341650+426220628+425946921
2958+425433018+425069924+425204005+425529711+425398641+424693620+423956608
2948+423567573+423264288+422677725+421951685+421551141+421653469+421907379
2938+421738741+420933481+419925801+419386377+419594818+420274525+420839919
2928+420731569+419831405+418614420+417688346+417368574+417708979+418406814
2918+418691851+418009699+416793758+415938794+415694873+415584376+415189676
2908+414617634+414264467+414317748+414542677+414487280+413851342+412773655
2898+411826562+411553391+411934286+412470758+412750966+412689724+412338377
2888+411759119+410985969+410028231+409061400+408481933+408517831+408931821
2878+409271659+409218558+408690523+407961769+407623182+407997727+408660916
2868+408898129+408513955+407865375+407303171+406912139+406662612+406540785
2858+406540755+406610375+406585330+406269493+405652369+404978804+404558731
2848+404505808+404651696+404661297+404233114+403360083+402474618+402134511
2838+402447992+402948120+403078116+402698951+402110300+401613214+401119676
2828+400363849+399443411+398777061+398542591+398560242+398648168+398717102
2818+398670828+398503174+398304692+398053883+397628026+397003239+396263692
2808+395513381+394898016+394595388+394655913+394857348+394806512+394337244
2798+393797223+393746059+394277523+394773059+394514885+393522621+392484828
2788+391869701+391521276+391205916+391072491+391297867+391671845+391838544
2778+391649006+391070106+390078169+388842579+387760480+387146248+386991952
2768+387028327+386948779+386695942+386549756+386697105+386774954+386240628
2758+385157575+384185525+383796789+383853170+383943422+383850308+383628420
2748+383406562+383245259+383112937+382885563+382461167+381974517+381692640
2738+381584111+381292394+380678788+380056029+379734557+379647764+379550505
2728+379369464+379197935+379017252+378659256+378144280+377769468+377671762
2718+377636341+377495760+377304880+377029324+376555941+376047376+375800831
2708+375761176+375567136+375055529+374464106+374143618+374164459+374232737
2698+374057182+373738065+373596679+373667193+373638362+373339728+372986562
2688+372785306+372557754+372046654+371446226+371248459+371575447+371976319
2678+371926437+371324877+370463652+369693007+369205462+369010915+368963061
2668+368854830+368651040+368598594+368936107+369494226+369752996+369356210
2658+368502856+367787072+367631763+367894498+368098228+368004518+367775772
2648+367582418+367330565+366869645+366268770+365775471+365571472+365632624
2638+365783879+365828542+365662708+365341892+365025309+364777660+364487286
2628+364096522+363771532+363656115+363652031+363637003+363626598+363559423
2618+363297046+362956372+362840717+363014125+363295585+363576388+363822546
2608+363922041+363794460+363509094+363148474+362710989+362232866+361886468
2598+361848423+362087157+362345807+362343184+361978359+361413919+361001838
2588+361024706+361447194+361948991+362172757+361965449+361497880+361114928
2578+360982219+360979714+360950525+360846081+360663549+360476098+360426157
2568+360531496+360657467+360720288+360698642+360497894+360060111+359575666
2558+359402109+359736700+360383879+360858096+360785883+360206476+359437918
2548+358774311+358399797+358409547+358734805+359139523+359401215+359460130
2538+359365645+359175570+358970856+358873627+358949866+359136213+359354494
2528+359653843+360111364+360603620+360836212+360654783+360222129+359838908
2518+359662191+359639919+359669913+359742485+359869618+359930890+359752741
2508+359379419+359115521+359217819+359629125+360052597+360217328+360058441
2498+359726951+359453988+359358608+359410487+359583418+359911986+360343031
2488+360685315+360771124+360557197+360121024+359691708+359541795+359689413
2478+359895647+360070993+360401440+360923154+361286994+361175335+360737552
2468+360365542+360180059+360030056+359906649+359985273+360253107+360470195
2458+360555199+360677801+360912420+361078374+360990001+360696704+360402215
2448+360213929+360057964+359854293+359676473+359659657+359834734+360124005
2438+360404690+360554633+360568348+360618170+360840744+361091791+361086484
2428+360774941+360437219+360399681+360738148+361248592+361656678+361839120
2418+361857994+361847111+361921739+362137843+362457109+362778283+363022354
2408+363170329+363273670+363434019+363674661+363866017+363927646+364046849
2398+364495783+365260972+366048940+366688575+367433906+368888164+371727120
2388+376496906+383596875+393394205+406279749+422538665+442204167+465093097
2378+490859803+518826844+547772285+576081579+602447848+626697862+649368423
2368+669684681+685105031+694338637+699070856+700882991+698862743+691446460
2358+678052619+659069060+635164371+606641597+576125468+550193315+534977797
2348+533207702+544855421+566612311+590731434+608995541+618536546+621054060
2338+619579915+616952441+615241560+615623558+617826338+619576516+618209051
2328+613641414+608125581+602915476+596917285+588668848+578365278+567373862
2318+556735284+546792602+537450289+528234931+518598277+508516894+498413596
2308+488474194+478613924+469039644+460194537+452220851+444945894+438251209
2298+432146338+426629610+421650934+417124294+412951118+409068376+405450755
2288+402143366+399361328+397387771+396200423+395318954+394258143+393092381
2278+392280650+391912546+391491341+390605101+389474074+388628354+388269552
2268+388114511+387797988+387315064+386936078+386740249+386497818+386001655
2258+385265209+384475542+383947268+383921060+384252909+384532371+384558728
2248+384462781+384415076+384450825+384532400+384642420+384793377+384944959
2238+384983988+384874922+384716273+384559354+384344771+384068976+383795268
2228+383470725+382933835+382151413+381334524+380756697+380481021+380333822
2218+380147086+379911513+379677460+379460432+379283148+379195043+379228705
2208+379352082+379425279+379289857+379019459+378957025+379351486+380056715
2198+380670559+380898202+380811856+380812810+381253306+382081585+382946954
2188+383591866+384020704+384370531+384745642+385137002+385479613+385832303
2178+386407834+387295177+388230852+388795977+388823915+388523045+388232760
2168+388152943+388279332+388505126+388772691+389108207+389470437+389692951
2158+389731950+389813734+390097281+390392515+390495499+390588136+390984207
2148+391640061+392189474+392365625+392243321+392153427+392423318+393126282
2138+394062552+395013313+395950479+396961974+398090854+399340696+400758430
2128+402430073+404417971+406706680+409179171+411711145+414343956+417248148
2118+420439584+423678040+426715717+429495787+432069563+434482751+436746235
2108+438764843+440325215+441277646+441681380+441686687+441362293+440757423
2098+440081562+439678723+439756392+440200973+440743379+441248904+441715459
2088+442038839+441971516+441345655+440183352+438508817+436197866+433184280
2078+429758493+426441682+423558837+421135273+419149044+417595739+416368497
2068+415383567+414760003+414619900+414789193+414891997+414696973+414321326
2058+414133964+414380540+414871454+415225962+415407927+415712494+416254572
2048+416871249+417520663+418375656+419474929+420581060+421450007+422100435
2038+422809123+423896171+425470288+427369604+429407473+431631243+434220194
2028+437182438+440330731+443553265+446924818+450540471+454419694+458501455
2018+462468903+465722893+467897109+469259505+470324937+471308466+472094406
2008+472461377+472264236+471578416+470641221+469647675+468776790+468281313
1998+468249649+468416945+468494436+468534031+468736181+469077182+469347252
1988+469481959+469707902+470348939+471513180+472982673+474473903+475969723
1978+477622792+479409882+481183793+482975176+484879621+486798615+488632128
1968+490483440+492397038+494198887+495786540+497284656+498900455+500867930
1958+503411204+506541250+509922999+513016909+515443127+517309109+519083139
1948+521156877+523755071+527003485+530535565+533393513+535132839+536545504
1938+538554243+541185891+543983015+546619433+548862166+550609481+552210164
1928+554304653+557222710+560683590+564038804+566870097+569372464+571821819
1918+573863773+574961704+575377274+575958381+577239857+579208405+581548813
1908+583843187+585735824+587093151+588050054+588924726+589959150+591147124
1898+592481195+594088854+595805937+597156168+598164056+599342132+600560279
1888+600994514+600439705+599518521+598734310+598314923+598556907+599545116
1878+600764457+601450753+601362916+601144010+601869305+603996890+606488642
1868+607386749+606059655+603888718+602232817+601201912+600345905+599463064
1858+598527270+597529877+596636541+596018403+595557513+595075096+594645751
1848+594473715+594604665+594612298+593582108+591187852+588384526+586174949
1838+584596807+583131606+581668613+580791138+581014040+581896941+582215610
1828+581398960+580026009+578479532+576427142+573818095+571301238+569482126
1818+568414368+567806367+567482570+567519899+567883232+568135234+567834931
1808+567120310+566530198+566495076+567225201+568642040+570141111+570910235
1798+570902066+571059612+572379610+574823777+576763463+576311160+573991145
1788+572112998+572081572+573625546+575715980+577721678+579522364+581063236
1778+582471130+584346415+587489341+592026566+596351265+598023028+596906313
1768+595091554+594295119+595100559+597296182+599818347+601272396+601701622
1758+602441825+603937676+605546170+607350434+610395445+614716268+618387706
1748+619925895+620208488+620644750+621599686+622965302+624708086+626472873
1738+628018993+630171682+633778003+637493032+638656558+637397980+635663664
1728+634642239+634909328+636476080+638533359+640479545+643165636+647938047
1718+654035047+657612686+656429840+653123285+650849306+650652046+652336927
1708+655465423+659339250+662870435+665824032+669470366+674457270+678622157
1698+679793494+678923295+677081822+674772600+673519270+674612669+677675868
1688+681594717+686505532+692875703+697928679+697923193+694626119+691883915
1678+691678128+694219673+698133154+701501010+704126933+706980170+709556361
1668+710303839+709895961+710548029+712798871+715159733+716742467+718595688
1658+721525790+725512797+731048130+737722659+740941735+739124949+737572210
1648+738760244+740349000+739103720+735886493+733308156+732345170+733352581
1638+736759793+741539181+743890442+741539598+737506258+734987551+734691184
1628+736110945+738700195+742154575+745860719+749040617+752142338+756682425
1618+763083724+768901411+770649323+768885549+766761900+765906132+766074650
1608+766421763+766826481+767759055+769101057+770226120+771091906+772164137
1598+773341437+773995115+774146936+774628876+775907252+777695057+779652394
1588+781651712+783523061+785108358+786410526+787475004+788735848+791329034
1578+795808953+800032517+800246415+796838248+793436761+791543945+790616380
1568+790191686+790428124+791100288+791908888+793775407+798546863+806017888
1558+810371687+807867411+802749497+798483356+796102875+795900666+797706122
1548+801025974+805159913+809226885+812928020+817322189+823010060+826777385
1538+825368417+821580817+819100573+818707663+819130985+819349295+820137621
1528+822585306+826230387+829401698+831474183+833476482+836388218+839810696
1518+842692258+844520195+845858441+848276310+852891115+859110002+865460912
1508+871318373+876467713+879500978+879939387+879314690+879017666+879852981
1498+882466620+886810043+891413697+895194977+899229927+904867945+910470781
1488+911898235+908780354+905828486+906495522+910031418+914208768+918596557
1478+924021632+930112908+935515979+939990114+943863284+946182047+946312997
1468+945395212+944813926+944858054+944871471+944781010+945792476+949093723
1458+954113067+957632863+957190637+954295837+950916711+947731089+945049410
1448+943412174+943529230+945499030+948001397+948811667+946952423+944178853
1438+943396789+945541428+947919643+947624408+945216438+942992966+942570419
1428+944082728+946724334+949327537+950572817+950182352+949194142+947556130
1418+943551890+937792641+933925791+934376962+938226101+942214957+943458567
1408+941709104+939063921+937850782+938589971+939838948+940166741+939379787
1398+938419843+938537853+940226552+942835778+944808202+944889241+943540321
1388+942560043+943073528+944767175+947631981+952421506+958723340+964573944
1378+968127074+968441152+965662453+961835377+959886388+960801252+963197892
1368+965863112+969522147+975070599+981160682+984958897+985653363+985536605
1358+986808242+989636375+992665286+994150641+993782657+993123671+993903291
1348+996753368+1001015633+1005253747+1008134773+1009418873+1010738990
1340+1014598446+1021269397+1027349760+1028971850+1026471869+1024042252
1331+1024861824+1028504341+1032737089+1036214785+1038858240+1040710387
1322+1042038734+1043283000+1043804654+1043181150+1043297311+1046797668
1314+1053133014+1058042577+1059122976+1059336933+1061812108+1064990813
1305+1064795700+1060424965+1055985178+1055954885+1060781561+1067438320
1297+1072542280+1073741823+1070161203+1063561690+1057385201+1053537076
1288+1051546822+1049731646+1046846804+1043352053+1040221649+1037371035
1280+1033631319+1029385334+1027250057+1027722098+1027368604+1023098289
1271+1016158162+1009931702+1005833125+1003135763+1000744549+997807649+994248258
1261+991189113+989587894+988800463+987727577+985895227+982729403+977979592
1251+972819698+968547414+964250683+957932212+949448291+940260422+931535531
1241+923836835+917341676+911565850+905538499+898629559+891185190+884408692
1231+879233054+875178903+870948659+866132002+861443672+857571992+854763657
1221+853101077+852249840+851272961+849504118+847481783+846528458+847283211
1211+849032494+850665497+851901355+853433164+855956163+859013101+861305983
1201+862648999+864600015+868024819+871288379+872453932+872560016+874731787
1191+880650192+889175914+897340093+902146314+902645130+900862393+899954209
1181+901841658+906537323+912159002+916079759+917837987+920188891+925914269
1171+934799449+944789120+954654578+963821278+971006012+975398214+978184426
1161+980841953+983301922+985067903+985782882+984702005+981682098+978904950
1151+979744440+984807314+990779447+994587023+996933037+999461642+1001252965
1141+1000607636+998200738+996381805+996468688+998010634+999188888+998432406
1131+997403707+999821218+1006478574+1013972794+1019690361+1024931116+1030027801
1121+1031978937+1029216696+1024079581+1020127935+1019306932+1020551079
1113+1020683102+1018512285+1016793354+1017809113+1020253399+1022953027
1104+1027010220+1031090431+1030561740+1025118716+1020801769+1021754438
1095+1026163933+1030754826+1035117212+1040650279+1047630836+1052900810
1087+1051307462+1042472730+1032445611+1026596259+1024278749+1020663782
1078+1013251375+1005687028+1003654675+1007516993+1010813529+1007127362
1070+998380169+992817644+994698295+1000071491+1001557562+996648953+989647466
1060+985901548+986583969+988663669+989420569+988744827+987593884+987011704
1050+987551784+988515783+988784124+988627473+989173636+990557380+992530936
1040+995274631+997826373+997476755+992754196+986093382+981295390+978526530
1030+975090397+970868383+968937105+971482466+977375945+983540805+988161097
1020+991473137+993634175+993809789+991540699+988563071+988292285+991862828
1010+995154653+992065395+981630994+968790770+959215059+955219167+954296016
1000+951168414+943624342+935146742+929853512+927534212+924730111+919211892
990+912112252+906038567+902679418+901873978+901732473+900137336+896712533
980+892570306+888369521+884098371+880355077+877721759+875076396+870925403
970+865896161+862057099+860531015+860644076+860637338+859053829+856183776
960+853539963+851904516+851064728+850846657+851192518+852270771+855122995
950+860580390+867277758+872520123+875383020+877354192+880076241+884198551
940+889458030+894730509+899592843+905331758+912567477+919168123+922418385
930+922889651+924136840+928715210+935889211+942546805+946180854+947305441
920+948224716+950049195+951799969+951920186+949765768+946080793+941897360
910+937731817+934377617+933418210+935840552+939979678+942443225+941855261
900+940041814+938929869+938349240+937463238+936672885+937074323+939146092
890+942814251+947509081+951567467+953291765+952962362+952211306+951980235
880+952388948+953563684+955520126+957817004+959834032+961213065+962129538
870+963229199+964736976+966222510+967394086+968316999+968552304+967456818
860+966415358+968020095+971044951+970442377+965079736+960342747+960584074
850+964254976+968431849+973482082+980608676+987341703+988831531+983991797
840+977224362+974377565+977916383+985367133+992161461+995706958+997851180
830+1002727408+1010927783+1017508452+1016288396+1008267274+1001297689
821+1000992257+1005466273+1008700316+1008980583+1010844299+1018418068
813+1030636875+1042506243+1048663888+1048627513+1048369429+1052054761
804+1055890364+1054057180+1047886296+1042823839+1039559623+1034113736
795+1025177035+1017164738+1014630527+1016444153+1017070162+1013375766
787+1007857249+1004369415+1004044186+1004374305+1000350506+989671438+977321263
777+970960931+973219406+979949273+985372440+986953027+983130244+973628298
767+963210713+957820165+957996852+960037017+962951675+969530496+980345463
757+990246581+992126815+985029321+976018260+973669741+980986857+992069271
747+997071262+992915081+984999506+980373550+982100471+988799390+996860525
737+1003136360+1006827178+1008903659+1009862053+1009888290+1010835474
728+1013231697+1014163138+1011536618+1006234205+1001134299+998552801+999231763
718+1003571072+1011428089+1019773129+1021153593+1012002577+997775388+987747792
708+986091474+989523731+993293859+994606880+992378340+988543095+988406241
698+993345082+996733928+993858746+988511967+984866409+983867823+986123734
688+990971817+993558801+986968948+973191558+961626727+957566433+962214990
678+973726928+985319964+988934872+984803856+980807844+979266435+974350910
668+966404087+967905305+979745930+988568855+988118580+982696307+977605346
658+974179947+972565251+973355008+975975027+978386695+979185516+977868439
648+973530741+963198310+945534690+927217392+917444898+917736078+923020184
638+929132212+935227661+940809328+942937211+939909313+936225054+935630888
628+934790147+932643957+935667084+948564674+964318722+967116562+953360580
618+934435460+916546076+900132268+888140835+885448005+894574036+910724214
608+920757475+916020247+903936564+895935836+899168984+915050762+937949173
##END=
