##TITLE=<SNM>
##JCAMP-DX=4.24
##DATA TYPE=INFRARED SPECTRUM
##DATE=29/4/2025
##SAMPLING PROCEDURE=Instrument type and / or accessory
##ORIGIN=Admin
##XUNITS=1/CM
##YUNITS=ABSORBANCE
##RESOLUTION=4
##FIRSTX=4497.3318
##LASTX=599.83466
##DELTAX=-1.4281778
##MAXY=2.2336502
##MINY=0.68650264
##XFACTOR=1
##YFACTOR=2.0802489e-09
##NPOINTS=2730
##FIRSTY=0.69004244
##XYDATA=(X++(Y..Y))
4497+331711483+330009860+330454979+332839538+335877980+337863752+338012087
4487+337029157+336185251+336287082+337484362+339260626+340306562+339542024
4477+337618743+336377825+336577935+337259439+337609202+338051169+338920719
4467+339491222+339296757+339148451+339737062+340366446+339881013+338142055
4457+336332669+335870244+336752344+337487084+337311730+337235571+337951973
4447+338539696+338155235+337114485+335934999+335142753+335683457+337825357
4437+340345071+342035950+342804185+342958422+342555079+341464473+339768981
4427+338035324+337182535+337693698+338655310+338354486+336579368+335282721
4417+336012389+337990282+339696547+340879558+341762976+341840768+340769904
4407+339097134+337546166+336475531+336186712+337302933+340060407+342918910
4397+343297297+340839989+338193085+337365253+337614359+337739285+338041627
4387+339036161+340187281+340826436+341147403+341700027+342460210+342761464
4377+342126779+340860704+339584687+338541244+337588400+336385046+334669955
4367+333016869+332631463+333858799+335728728+337336400+338560957+339070401
4357+338175980+336248401+334790898+334675600+335463433+336440431+337367889
4347+338107443+338443366+338750695+339830699+341432124+342035406+340898039
4337+338883700+336940993+335425554+334839006+335815918+338200621+340988553
4327+342905673+342736192+340166250+336771656+334914850+335313379+336612290
4317+337336486+337285226+337049357+337227749+338010138+338736683+338368497
4307+337089987+336374129+336720454+336749851+335377705+333484280+332584300
4297+332908047+333389898+333087068+332150814+331341205+331061756+331285676
4287+332077979+333553104+335211978+336017805+335518332+334230338+332914895
4277+332192762+332609572+334061545+335333551+335436528+335110547+335752653
4267+337404335+338869718+339209911+338350818+336919819+335963221+336137974
4257+337062566+337857448+338151338+338209074+338443681+339036677+339725028
4247+339852017+338985073+337786304+337668283+339066877+340673459+340921276
4237+339625804+337689057+335975943+334802302+333965186+333396316+333688258
4227+335267048+337463933+339234265+340226507+340451258+339837490+338823587
4217+338412651+339009227+339764769+339609386+338679980+337868193+337238580
4207+336255736+335445697+336151240+338398324+340478564+340949041+340005881
4197+338857970+338494139+338891408+339164639+338824131+338438381+338496861
4187+338456375+337546108+336059924+335319425+336203560+337786991+337990253
4177+336122989+333877939+333077584+333742039+334900581+335969439+336711314
4167+337030504+337384479+338271393+339174582+339340681+339355896+340214673
4157+341237659+340915087+339389076+338169046+337946472+338277754+338929831
4147+340143672+341658366+342508003+342041251+340702083+339414433+338386519
4137+337186031+336029352+336016057+337662782+339969063+341440520+341512094
4127+340415815+338486976+336539885+335991559+337363820+339161373+339316413
4117+337556567+335448563+334469587+334759867+335319053+335140890+334383916
4107+334089567+334602880+335150403+335241719+335373321+335963221+336675039
4097+337146576+337586308+338319730+339117305+339223549+338200363+336664810
4087+335766808+336013679+336998127+338011599+338494912+338257239+337785244
4077+337948449+338803272+339221028+338403424+337083855+336482236+336898043
4067+337946844+339193149+339922817+339495606+338396863+337695475+337473675
4057+337097293+336696729+336942712+337660003+337839454+336986780+335840617
4047+335647928+336871253+338663963+339790643+339883936+339373087+338601901
4037+337735445+337225399+337502155+338227497+338537719+338059421+337207979
4027+336618794+336678993+337357316+338141625+338370674+337905527+337275112
4017+337077380+337373677+337613356+337210414+336290463+335497071+335038113
4007+334612048+334202745+334089338+334221226+334370650+334691388+335484149
3997+336632805+337731577+338444054+338514024+337849024+336806068+336041472
3987+335982419+336609052+337560750+338274201+338279330+337644903+336951595
3977+336656501+336712058+336911366+337212133+337488287+337475079+337233308
3967+337129785+337205428+337148352+336980992+337164828+337860113+338533794
3957+338569954+338073289+337787736+338351248+339912187+342055148+343591359
3947+343235236+341332556+339846429+339953533+340703659+340658531+339760185
3937+338863357+338663963+339455550+340988839+342413821+343069365+343330592
3927+343947827+344766491+344827922+343918200+343202314+343702503+344935942
3917+345451575+344439850+342563245+341156085+340875289+341233160+341566219
3907+342235888+344129915+347081310+349674718+350962999+351123339+350214649
3897+348148363+345835951+344545292+344399823+344388877+343895565+343831125
3887+345346564+347954213+349905687+350769164+351582756+352113116+351016407
3878+348767919+347255289+347121251+347821780+349221376+351119099+352196238
3868+351800229+351071592+350797157+350336938+349050119+347343739+346104483
3858+346310926+349123814+354951505+360407600+359993398+354936806+350014997
3848+347838714+348738751+351218323+352941235+352802127+351792780+351309495
3838+351508775+351877362+352435774+353161001+353156703+351757852+349784630
3828+348397412+347730034+347822611+349611683+353210112+356117611+356520524
3818+355934864+355354276+353508558+350188288+347465169+347172282+349558131
3808+353115243+355213820+354945374+354176250+354528793+355353760+355293475
3798+354295388+352892096+351504161+350629024+350526848+350891367+351292963
3788+351906158+353294207+355385134+357563567+359928041+363112497+366563450
3778+368620453+369039469+369707019+372739071+378673150+385698178+390846830
3768+393226662+394509642+396030553+397890339+400036853+402339695+404060802
3758+404644199+404937860+406693064+411221444+418008598+423744371+425605189
3748+425638627+427605345+432483086+437069086+438429399+438438998+440514997
3738+445934618+453029931+459211626+463738716+467041192+469227303+470843656
3728+472938137+475726469+478341482+479955429+479933338+477690723+474127852
3718+471520547+470971075+471775211+473201340+475292754+477756481+479307420
3708+478841471+476837591+475205421+475496131+477088846+477778343+476659572
3698+474862649+473915822+474833223+477912065+482582161+487206526+489336736
3688+487788519+484087628+480463125+478466207+478960981+481776792+486143742
3678+491832325+498012473+501657205+501598409+500544622+499867101+497957230
3668+494519084+491708832+490147664+488479736+486105577+484065279+483192691
3658+483173322+483562654+484403094+485837617+488210974+492227445+496872154
3648+497894596+493318022+486709575+481972604+479627069+478393802+478084181
3638+479482803+482394543+485628969+488708155+492517009+497663426+501879492
3628+501145927+496038878+491048618+489227570+491206608+495337232+498149089
3618+497751275+496320534+496339387+497469562+498418423+499234336+500374196
3608+501324318+501562422+501348386+500796651+499698567+498464783+498365703
3598+500430413+504127980+507288138+508106401+507368767+507582745+510091399
3588+513361182+514655995+513802949+512916149+513059011+513302845+512533235
3578+511128224+510423082+510806856+511029257+509947276+508606332+509596510
3568+513881170+518727251+520465091+518560664+515044182+511931128+510337181
3558+510330992+510781412+510572076+510299990+511460079+514166322+517274275
3548+520061261+522056230+522347456+520730988+518472815+516990843+516623573
3538+516607814+515907371+514453994+513242789+512849904+512561544+511563114
3528+510307726+509874441+510321537+510355748+509044259+507482747+507479137
3518+508746902+509140761+508026574+507221549+507956490+508670915+507087226
3508+503862141+501958516+502849556+505015410+505993783+505242339+503949703
3498+502889154+502038056+501609698+502191405+503968327+506438243+508549829
3488+509092510+507914542+506384949+505689893+505483250+504803266+503460488
3478+502013930+501183003+501522995+502778383+503673893+503220035+501929118
3468+501118649+501363572+502010664+502069803+501322542+500295287+499315824
3458+498319572+497430996+497009745+496893357+496216123+494659654+493348795
3448+493462489+494420233+494542809+493111952+490973032+489396678+488969983
3438+489363899+489691456+489226596+488047826+486802467+485860941+485310810
3428+485391037+486221907+487423141+488360140+488676121+488444493+487765425
3418+486547859+484979184+483738066+483298133+483216244+482630240+481474621
3408+480678536+480938816+481730661+481976100+481488661+481045462+481181905
3398+481701435+482209390+482506747+482562447+482541187+482711613+483068511
3388+483323405+483411941+483653483+484272839+484988238+485255911+484883656
3378+484204130+483715602+483830213+484822569+486613015+488680877+490518830
3368+492147275+493837552+495384050+496252741+496444772+496425746+496290334
3358+496095668+496174119+496383340+496155838+495594705+495924611+498102098
3348+501099337+502542342+501523454+499743895+499014456+498942710+498114533
3338+496517607+495397001+495300098+495500094+495039531+493834343+492836772
3328+493059117+494395820+495760260+496390045+496525859+496758117+497062122
3318+496688434+495302104+493883798+493712512+494757990+495722438+495383993
3308+493489021+490845241+488832450+488296473+488886947+489714608+490289380
3298+490589144+490712579+490841459+491214173+491856451+492455004+492749554
3288+492996482+493581684+494294791+494750770+495299239+496622361+498628906
3278+500528347+501803047+502427101+502584232+502635807+502819872+502773741
3268+501884707+500310645+499074741+498832741+499041962+498746611+497747894
3258+496541102+495524964+494752088+494150038+493628961+493203183+493154588
3248+493694862+494526018+495151162+495463017+495492186+494822458+493183584
3238+491428495+490870341+491757599+493187710+494345334+495083713+495470409
3228+495346114+494368027+492501422+490397744+488841561+487854363+486951289
3218+486139158+485805011+485801114+485627020+485266799+484872080+484102986
3208+482849031+482199418+483320597+485512238+486740520+486091480+484466302
3198+483054012+482325146+482234317+482508810+482685940+482297754+481295828
3188+480088835+479099316+478418185+477758372+476596307+474667124+472586683
3178+471549113+472010822+473007304+473180137+472250760+471003280+470088974
3168+469450708+468741440+467863723+467026751+466400318+465865201+465222952
3158+464530847+463970688+463439754+462588656+461293040+459849634+458638200
3148+457872745+457720800+458232908+459103347+459848116+460228795+460257075
3138+459930607+459281223+458532816+457958215+457616131+457194307+456107569
3128+454092686+451771134+450233977+450066215+451006280+452339373+453406742
3118+453905470+453861202+453382015+452551661+451480310+450242973+448865325
3108+447555785+446729184+446623427+446982961+447277223+447216394+446847405
3098+446258822+445587691+445164463+445106527+445012260+444568574+444039760
3088+443682491+443365306+443158577+443460633+444223395+444749659+444485109
3078+443633867+442846979+442438392+442037341+441167218+440029965+439309724
3068+439330038+439848279+440534911+441140313+441292372+440772327+440019392
3058+439708511+439740430+439405739+438592118+437807981+437069659+436075154
3048+435409009+436090885+437799929+438820680+438078519+436286955+434798593
3038+434144854+433962852+433838958+433733001+433606413+433165621+432321743
3028+431563966+431416434+431710668+431730123+431042603+429983429+429258374
3018+429204392+429521004+429730397+429714037+429658622+429656559+429593352
3008+429345162+428908066+428361230+427779954+427209050+426733817+426494997
2998+426517203+426599608+426540612+426403853+426396232+426487347+426313082
2988+425604903+424539540+423433863+422395634+421661266+421794215+422798146
2978+423508474+422872041+421425340+420450892+420270209+420370751+420561005
2968+420952858+421257780+421052025+420432039+419748158+419100722+418545377
2958+418314264+418455980+418579731+418240226+417429786+416475509+415566790
2948+414641166+413719812+413059225+412770177+412614593+412509724+412815161
2938+413653223+414365556+414248338+413566062+413169423+413271312+413262831
2928+412688001+411731146+410746039+409962102+409586237+409595463+409638471
2918+409592197+409730990+410097429+410394070+410573034+410780995+410756984
2908+410057573+408815996+407679202+407073113+406928302+407019647+407190675
2898+407196033+406703608+405752713+404950926+404840785+405233498+405512546
2888+405514351+405716868+406437540+407248123+407530352+407272564+406890137
2878+406602608+406381037+406171500+405843599+405233212+404464662+403936450
2868+403835363+403854532+403557605+402939137+402398146+402192449+402224769
2858+402342073+402482185+402530665+402330039+401842486+401210866+400752997
2848+400794085+401288257+401730511+401594984+400803254+399766028+399059167
2838+399005988+399434116+399776601+399500618+398593647+397589687+397007351
2828+396906064+397083653+397420980+397837361+398159445+398255861+398183313
2818+398020050+397601950+396705782+395574231+394830695+394704365+394870694
2808+395117393+395477872+395764857+395755058+395669014+395754771+395711019
2798+395120803+394128905+393245917+392776300+392731028+393041509+393568689
2788+393987304+393953924+393482387+392924864+392462926+391889959+391069547
2778+390277187+389795880+389464626+388963176+388339609+387911624+387783317
2768+387761026+387653922+387480688+387466734+387843287+388515421+389027530
2758+389014722+388536223+387834262+386996716+386048485+385199708+384778886
2748+384907995+385283631+385360936+384892781+384235546+383926011+384015436
2738+384063602+383751030+383192590+382635725+382185363+381903278+381892017
2728+382133989+382398882+382442950+382255247+382022272+381915684+382036484
2718+382419713+382860677+382935661+382499883+381939007+381627610+381423489
2708+381011492+380475344+380211167+380430445+380905048+381141919+380863616
2698+380356235+380130423+380221596+380137357+379533216+378602951+377765835
2688+377295788+377219658+377306046+377239915+376965480+376710615+376617207
2678+376573684+376467554+376367872+376359333+376343918+376150398+375829059
2668+375690896+375935991+376304750+376305581+375828629+375298813+375127585
2658+375220190+375166237+374794412+374379349+374326829+374725874+375205491
2648+375273083+374808595+374117722+373561689+373351493+373575184+374094055
2638+374475307+374311127+373602232+372740704+372204155+372239655+372696264
2628+373163388+373311723+373060239+372515179+371921296+371580386+371617492
2618+371848833+371982813+371909376+371736371+371603767+371528496+371409473
2608+371162889+370868970+370759316+370984440+371413141+371748033+371812215
2598+371643021+371384259+371177702+371083836+371056616+371044209+371082919
2588+371240853+371534571+371919634+372287620+372491541+372433605+372111119
2578+371596489+371035212+370640923+370612614+370973667+371467581+371734681
2568+371686229+371549957+371481592+371373457+371113721+370781551+370530267
2558+370445283+370508462+370631009+370756737+370900889+371043092+371085727
2548+370952234+370642958+370220847+369793578+369474474+369359835+369515161
2538+369869966+370177381+370242365+370151479+370113227+370119903+369957901
2528+369597738+369387370+369640086+370123743+370263568+369858964+369278576
2518+368927724+368867955+368996089+369284163+369730886+370237064+370626310
2508+370769144+370702183+370621583+370687513+370826449+370815103+370576999
2498+370321217+370345543+370716538+371170396+371369933+371239363+370968308
2488+370748772+370656654+370715707+370901376+371114466+371236526+371182286
2478+370974326+370831693+370977621+371271482+371307499+370977420+370641697
2468+370651066+370948653+371205266+371188046+370963294+370798685+370892322
2458+371213088+371578811+371799579+371730154+371316410+370692183+370167983
2448+370029963+370322077+370815275+371194149+371307957+371249534+371196727
2438+371232343+371318014+371366552+371330736+371284634+371386293+371688378
2428+372030147+372176877+372046279+371780353+371627233+371745254+372080461
2418+372455811+372768526+373021901+373198516+373255678+373253157+373315648
2408+373427451+373439800+373318198+373223072+373327195+373665870+374148180
2398+374670288+375250447+376009914+376996769+378229119+380030798+383103766
2388+388144771+395540421+405423064+417802614+432603083+449666282+468698834
2378+489197599+510446577+531420547+550777762+567720361+582911481+597355454
2368+610478655+620600834+626699322+628557275+626511934+622099597+616953180
2358+610307885+599618670+583669229+563758101+543193864+526235964+516188225
2348+514424195+520496323+531772230+543727262+552704080+557892789+560440697
2338+562221975+564706847+568264762+572398422+575846998+577166567+576310655
2328+574669947+573062190+570835993+567128569+562124499+556676655+551211678
2318+545514843+539388964+533029049+526778072+520869151+515196041+509122882
2308+501972154+493840131+485491379+477595740+470463436+464146300+458372733
2298+452723577+447095709+441701991+436680384+432029916+427764195+423886489
2288+420420234+417516116+415251181+413408185+411707908+410097945+408667490
2278+407485511+406549457+405726352+404836831+403894674+403093088+402535049
2268+402172077+401963342+401873029+401724666+401280349+400560595+399922672
2258+399640529+399527523+399196127+398563734+397864351+397300553+396898471
2248+396597876+396357881+396218171+396245505+396405473+396581945+396713546
2238+396799963+396824719+396791854+396790909+396929702+397185742+397352329
2228+397219896+396841480+396457449+396118259+395630935+394950377+394335405
2218+394029481+394022203+394139679+394163374+393930257+393516283+393189987
2208+393030019+392812201+392415477+392060299+391971619+392056488+392086000
2198+392050872+392187258+392668250+393370728+394014323+394464743+394780409
2188+395037510+395276988+395561652+395930068+396338426+396753832+397237403
2178+397800714+398236148+398301247+398095922+398012056+398240733+398582731
2168+398791723+398824989+398752211+398717083+398961175+399587608+400333379
2158+400802079+400858296+400639962+400342892+400165360+400253610+400503518
2148+400617814+400529077+400535896+400870559+401400117+401915722+402443675
2138+403059335+403599724+403801840+403647373+403364973+403121425+402937332
2128+402938106+403389843+404304923+405278741+405963654+406476507+407071738
2118+407658343+407959712+407981660+408013235+408247700+408636717+409074042
2108+409560020+410152098+410797213+411298921+411532411+411631291+411844610
2098+412262624+412768687+413194179+413467353+413666661+413945537+414385613
2088+414936461+415478798+415913029+416211160+416371786+416344652+416137236
2078+415978357+416148009+416630950+417135208+417439212+417581158+417772099
2068+418210141+418888635+419556070+419968382+420174738+420455420+420984605
2058+421632700+422144751+422462595+422780926+423307676+424075768+424970390
2048+425825987+426513450+427008309+427382313+427737663+428186822+428852709
2038+429775411+430803410+431681471+432298649+432797406+433406303+434207661
2028+435114402+436017964+436876999+437743999+438837700+440453423+442579278
2018+444720805+446334150+447330632+448004915+448701060+449693072+451110432
2008+452810738+454448294+455773107+456881649+458137409+459768691+461614609
1998+463406173+465165389+467103339+469199940+471067634+472305715+472976760
1988+473550960+474364609+475386849+476496309+477648948+478787518+479929928
1978+481311759+483164841+485409833+487722217+489867154+491930489+494166657
1968+496560528+498731024+500480096+502074330+503713663+505279874+506914278
1958+509186090+512218629+515241312+517511003+519183286+520853105+522720227
1948+524609583+526547189+528921291+531909476+534946485+537281733+539030920
1938+540909273+543114324+545232042+547086670+549072929+551579922+554440946
1928+557162776+559631489+562190514+564863864+567207765+569248464+571572596
1918+574177637+576330999+577874746+579544967+581843826+584320676+586004535
1908+586502575+586530884+587124624+588581726+590407645+591945204+592886959
1898+593479610+594316440+595806664+597887763+600230461+602429896+604055418
1888+604908236+605130237+604928407+604586008+604687496+605707817+607350874
1878+608792733+609557587+609837008+610216483+611375025+613515492+615618826
1868+615967873+614291865+612181368+610960994+610554126+610169722+609412891
1858+608669527+608449532+608568096+608361339+607700551+607201709+607310245
1848+607849373+608450162+608655200+607842497+606025174+604073813+602500496
1838+601026604+599429964+598232168+598227813+599445952+600700709+600525240
1828+598919889+596980391+594944391+592270297+589158447+586589450+585102721
1818+584378038+583807335+583247004+583132680+583704243+584350990+584214374
1808+583317088+582429830+582136771+582553953+583498173+584551043+585227360
1798+585364091+585389362+586161093+588114459+590029487+589700727+587093049
1788+584541187+583878852+585174926+587356653+589382854+590771476+591507334
1778+592070530+593340473+596092102+600233842+604143439+605819849+605343183
1768+604192779+603306266+603285866+604723025+607252367+609368193+610397282
1758+611208209+612428869+614091067+616725105+620888851+625570408+628511373
1748+628938641+628179805+627610706+627847147+629053481+630819745+632161778
1738+632909841+634544762+638332126+642680052+644238527+643073109+641456813
1728+640442623+640209849+640700039+641660705+643321355+646744029+652559027
1718+659159337+662876159+662158983+659173606+656395617+655338907+656813430
1708+660524292+664777205+667823269+670252612+674149774+679264559+681774531
1698+680006089+676821806+674083758+672058704+671500263+672898284+675646417
1688+679247883+684435445+691047331+695060421+693451690+689780827+687887001
1678+688703888+691518782+694609601+696737346+698720339+701410708+703185969
1668+701930181+699045719+697646667+698970018+701704570+703601261+704450583
1658+706256273+711101150+719785883+729320224+731610431+726695813+722885870
1648+722768051+723945847+723625682+722165657+721140122+721171640+722703697
1638+726182702+730867811+734064244+734024073+732724217+732671095+734644288
1628+738214065+742885192+748727582+755442674+761496063+765919917+770097818
1618+775892301+782488886+786472521+787333190+787976098+789843850+791963171
1608+793389730+794589645+796050988+797373709+798128305+798450877+798637463
1598+798958945+799839957+801630748+804059347+806041823+806468347+805483613
1588+804491715+804600022+805768133+807452680+809443065+812066788+815748310
1578+820046666+823091297+823614380+823647273+825494395+828711572+831199768
1568+832076138+832824488+834714130+837586673+841267908+846311291+852256315
1558+856162473+857658486+859316271+861082248+861444475+860082328+858124091
1548+857354825+859413117+864487558+870944147+877160110+881827684+881312854
1538+874649737+867361706+863282886+862073458+861669742+861087176+860812856
1528+861148951+862141938+864229169+867692701+871588602+874525499+876979369
1518+880110073+882773165+883286620+883070694+885130590+890090536+896172863
1508+901620993+904845333+904560182+902785551+902598335+904864072+908604733
1498+912051074+913937736+915111291+917724814+922324998+926851429+928100570
1488+925722228+923210880+923239590+925382178+927773013+929380254+931089958
1478+934482718+939824948+945711234+950468548+953106082+953268772+951631846
1468+949445878+947495148+945567455+943191577+941223197+941327321+944123476
1458+948107742+949412870+945814326+939660138+933815513+929632684+927368093
1448+926386052+925414899+923465602+921048522+919862646+920912422+923579411
1438+926552238+929065534+931238436+933273920+934479911+933464747+930450316
1428+928230595+929044789+932031427+934861335+936594992+937618980+937823388
1418+936626453+934683115+933084125+931824154+931099700+931530693+932298068
1408+931729600+930329517+930350319+932149017+933623884+933640617+933767548
1398+936404624+941312078+944175566+941517632+937068620+936990628+941158270
1388+943578904+940427399+935314505+933673969+936591382+942058307+948435585
1378+955282939+961727951+965559842+965195151+962358424+960233773+960015841
1368+961353576+964017757+967574697+970750786+972485646+973193711+974111398
1358+975990553+978819372+982090588+985249600+987768397+989039429+988592333
1348+986781027+985323753+985941504+988437036+991656218+995286165+999181551
1338+1002415862+1004134563+1005131216+1007831328+1013761280+1020990459
1330+1025747143+1026356756+1024423046+1023146055+1024855014+1029656281
1321+1035849953+1041174876+1044322771+1045588416+1046193560+1046939331
1312+1047191245+1046209376+1045565035+1048161424+1054742365+1062972094
1304+1069913141+1073741823+1073539650+1070084255+1066600665+1066244800
1295+1068215300+1068534719+1064919557+1059275329+1055234388+1054766204
1287+1056233678+1056312759+1053697001+1049729755+1046926380+1047199612
1278+1049873362+1051245939+1048081655+1041765121+1036485469+1033630404
1270+1030734538+1025713905+1020550583+1018579968+1019621664+1020162626
1261+1017801877+1013686554+1010090876+1007819408+1006948138+1007954419
1253+1010282619+1011589982+1009924346+1005456481+999169517+991180241+982291844
1243+974527434+968117263+960937998+952058369+943455353+937093262+932111540
1233+926449145+919886714+913652872+907920679+901441284+893757216+886529928
1223+882087621+880785759+880002224+876849630+871873238+867967595+866211416
1213+865183359+864103384+864016280+865103247+865858817+865791483+866614387
1203+869739761+874094162+877489215+879130782+880127207+882125213+885662727
1193+889691404+893060555+896077278+899511986+902819533+904986304+906386903
1183+908242850+911127026+914992727+919821959+925250892+929854914+932470099
1173+934169774+936902034+940889566+945116233+949650400+955688603+963179151
1163+969838600+973123684+972722890+971055191+971312378+974981292+981273644
1153+988259504+994684345+1000212702+1004229231+1006187582+1005945181+1004148660
1143+1002640957+1002916252+1005059241+1008225473+1011577490+1014019498
1134+1014177775+1012830871+1013347994+1017639932+1023369316+1026960983
1125+1028651031+1030889262+1033189726+1033236029+1030848346+1028819624
1117+1030401708+1036707469+1046529483+1056975323+1063700215+1063816315
1108+1059027197+1052459895+1044444602+1035373402+1030631617+1035440793
1100+1045767667+1051253847+1049166330+1046523180+1047234453+1047667223
1091+1043606455+1036058773+1029254686+1025583593+1024723326+1025737171
1083+1028405650+1033689543+1040122636+1043307665+1040412142+1033541581
1074+1028214823+1028361181+1032835694+1036475497+1034919315+1029085979
1065+1022979067+1019046319+1017612999+1017868810+1019202419+1021723279
1057+1024765274+1026741963+1027455299+1027182526+1024528946+1018711541
1048+1012087163+1008399911+1009052847+1013299399+1019440579+1024832779
1040+1027477533+1026875140+1023173791+1017349624+1011225406+1005964321
1031+1001661380+998996225+999391288+1002686114+1007094725+1011169361+1013090808
1021+1009983256+1001825732+993005873+987586510+986356509+988646429+994466470
1011+1002472594+1008126450+1008457101+1005020961+1000094195+995238373+991841314
1001+989334666+983953583+972901912+958557822+945526252+936135289+930372897
991+928026818+928674540+930568824+931049157+927877881+920684003+912100929
981+906327420+905216557+906470282+906457847+904007243+900394946+897179030
971+895420559+895179762+894892720+892925601+889646534+886263516+883012930
961+879534670+875592638+871478920+868157505+866374565+866152793+867258499
951+869561714+872834248+876371131+879244476+881317782+883702542+887372603
941+891516636+894495766+896314751+898305996+900605543+902231237+903906672
931+908403992+917309007+929025649+940581664+950360184+958100354+963154166
921+963996554+959866962+952786318+946687372+943662226+942361911+941189273
911+940699599+941163543+940885096+939199575+939026914+943170317+950181219
901+956050715+958271811+956838147+953111125+949717276+949827359+954514245
891+960737200+962920475+958840337+953111985+952153324+957374639+964014547
881+966947777+966509735+966012554+966319596+965814622+964112654+963761258
871+966923594+972081759+974768117+972046917+966590994+963885152+966178969
861+970873878+974660726+977452985+980296130+982742493+984381998+985173499
851+984535691+983950489+986792374+991870540+992939055+988284604+982625705
841+979041029+977982944+980365928+986038007+991534502+993469931+993020314
831+993773420+996749743+999745320+1001359267+1003792221+1008897435+1013606900
821+1014411581+1013909128+1016331194+1020448236+1021268389+1016492795
813+1009085168+1002462394+996973004+993850209+995996178+1003309481+1011805221
803+1018698361+1026525349+1037890709+1048329328+1049836802+1041897954
794+1034198758+1033258951+1033774240+1027219545+1013976977+1001175661+993877486
784+992118787+992685078+992728515+991925209+989890184+984005846+974165379
774+966208080+965667691+971264356+976341262+977349606+976695867+975868951
764+974409729+972999560+972541462+973040018+974043205+975746662+978703730
754+982202563+984879866+986447166+988507063+993065470+999826006+1006052915
744+1009000929+1008831076+1008687354+1010346343+1013133902+1017882104
736+1027058059+1038211619+1042502754+1034277381+1018092300+1004055940+998320137
726+1002135410+1013276019+1026266672+1035297759+1039065926+1039138246
717+1034003117+1022103328+1008156019+999525612+998976398+1003786375+1010408805
707+1017664459+1022721423+1021570618+1015675507+1011059450+1011259216
698+1013043016+1012330023+1011765910+1014077720+1015200560+1010560894
690+1000384389+987824442+977701002+973809055+975145988+977818134+979643881
680+979145325+978077383+982861230+997142055+1016885909+1028975723+1020139246
670+992706281+965656230+957481628+965305407+975135673+980521798+981273758
660+976513522+965569813+951900207+941466172+938267046+942539500+949638767
650+951418326+944092073+934331834+932858744+944406392+965669066+987561869
640+996977589+984602394+961171402+944713606+939782485+939722715+938524805
630+937963385+942810554+951724050+957079689+953826983+945068211+937320534
620+933792533+929776979+918906220+903297632+890632529+886835996+892033701
610+902012617+913591784+928470361+945997646+958818504+964105892+968451697
600+980832049
##END=
