##TITLE=<SNM>
##JCAMP-DX=4.24
##DATA TYPE=INFRARED SPECTRUM
##DATE=29/4/2025
##SAMPLING PROCEDURE=Instrument type and / or accessory
##ORIGIN=Admin
##XUNITS=1/CM
##YUNITS=ABSORBANCE
##RESOLUTION=4
##FIRSTX=4497.3318
##LASTX=599.83466
##DELTAX=-1.4281778
##MAXY=2.0566413
##MINY=0.42478931
##XFACTOR=1
##YFACTOR=1.9153965e-09
##NPOINTS=2730
##FIRSTY=0.44047669
##XYDATA=(X++(Y..Y))
4497+229966320+231281318+232067983+231668932+230157980+228285365+227016111
4487+226996351+228182814+229702900+230527685+230631108+230842326+231470722
4477+231947771+232010896+232238529+233034841+233866846+233902928+232998448
4467+231651506+230200550+228611847+227057670+226027688+225729960+225988977
4457+226732356+227991931+229414336+230263892+230192910+229785784+229853530
4447+230254199+230155972+229415005+228711100+228434595+228362088+228289442
4437+228300364+228471657+228641425+228466741+227822537+227191870+227309296
4427+228261388+229276605+229455615+228528698+227004380+225633025+224805097
4417+224521839+224576701+224756474+225071846+225654886+226372483+226821822
4407+226791030+226487545+226340929+226719908+227584339+228216111+227729227
4397+226167053+224677028+224247605+224748352+225400958+225643248+225428233
4387+225112612+225118026+225281493+224809500+223463414+222140200+221776174
4377+222476500+223812535+225125262+225668641+225186192+224201923+223455386
4367+223345645+223833711+224448866+224557096+224019334+223448182+223532171
4357+224279658+225213545+226160347+227276777+228269417+228438952+227755274
4347+227025385+226750980+226586222+226004940+225024826+224318945+224591716
4337+225480715+225528700+224060582+222438520+222405581+223937850+225580341
4327+226265326+225963101+225025417+223998127+223790254+224873402+226273121
4317+226356193+224819038+222950531+221936466+221903465+222428935+223036543
4307+223293506+223082288+222714387+222498875+222468300+222639873+223099590
4297+223752507+224414744+225117933+225985740+226994406+228044102+228923454
4287+229110431+228181538+226609063+225506294+225317155+225349083+224878304
4277+224134738+223801441+224066712+224599371+225149690+225766758+226410759
4267+226696942+226378194+225870850+225790999+226161576+226582130+226900521
4257+227263272+227744771+228187015+228234268+227661653+226876420+226685740
4247+227293908+227908658+227721837+226999323+226683468+227087856+227611443
4237+227760751+227789987+228115317+228683622+229085738+228963006+228264407
4227+227349922+226829773+227005811+227520934+227749003+227488540+227152474
4217+227334487+228386983+230197858+231982827+232677023+232042777+230884072
4207+229942545+229294218+228863239+228742017+228845362+228808050+228343448
4197+227471580+226394749+225312923+224461095+224108738+224197909+224267957
4187+224153845+224302919+224976996+225708410+225976125+225922227+226115396
4177+226905858+227985319+228570055+228338298+227919363+227975532+228309591
4167+228416499+228381553+228627795+229145766+229525788+229569074+229407848
4157+229145859+228808953+228605717+228853126+229567393+230344956+230687029
4147+230371781+229591495+228799960+228344677+228229678+228285972+228465698
4137+228867907+229593160+230636601+231720994+232304392+232145920+231712032
4127+231583838+231763424+231925786+231915501+231718893+231354774+230906804
4117+230401063+229804222+229282766+229166647+229542047+230070847+230287153
4107+230032711+229561979+229251290+229335512+229876418+230646652+231113790
4097+230998667+230650262+230459395+230387355+230362523+230426456+230401421
4087+230134485+229940133+230192023+230722068+231083527+231125429+230985223
4077+230775375+230531311+230324745+230252767+230356346+230588196+230784741
4067+230730610+230404673+230082875+230043634+230325118+230833100+231415533
4057+231860126+232079435+232222518+232472184+232891788+233451162+233939757
4047+233982748+233382079+232321134+231246480+230658166+230731917+230999118
4037+230841159+230415082+230507629+231413635+232597841+233568402+234436723
4027+235355035+235954490+235730778+234704063+233450384+232715299+232978454
4017+233984926+234757868+234497513+233363097+232072480+231062087+230414258
4007+230293626+230923764+232114474+233238824+233888240+234223622+234427729
3997+234274734+233624400+232868263+232466193+232500704+232945437+233834591
3987+234993670+236038838+236685282+236837484+236585873+236288814+236366549
3977+236862783+237366284+237385935+236794260+235974095+235526795+235753464
3967+236415483+237013242+237231508+237126576+236989810+237035850+237187398
3957+237229392+237141202+237124771+237363779+237960573+238913256+239789154
3947+239842818+239068663+238465256+238661164+239070437+239011374+238774514
3937+238890260+239350567+240016741+240967339+241989246+242335628+241547221
3927+240124941+239083647+238976816+239592453+240702301+242418311+244285308
3917+244862731+243260725+240535676+238501214+237816836+237877968+238210969
3907+239368056+242074154+245765267+248628436+249626117+249402078+248658170
3897+247330210+245654406+244605348+244855574+245700151+245710264+244965423
3887+244941617+246169561+247424531+247848944+248220579+248628389+247670665
3878+245454827+244279613+245593974+248672267+252179779+254880260+255035044
3868+252675033+250700521+251133009+252530378+252135233+249528389+246377278
3858+244641835+246434412+253416156+262359655+264532144+258870408+251509654
3848+246380530+244612117+245968192+249216112+252730036+255884289+259010178
3838+261475821+261662222+259519824+256624354+254074083+252115208+251177742
3828+251714244+253213200+254969462+257480678+260835850+262500373+261005867
3818+259068728+258665196+258062162+255477506+252086237+249932200+250312642
3808+253116623+256207939+257965197+259764542+262823697+264889729+263735319
3798+261017132+258985361+257897389+257327434+257441313+258296580+259344766
3788+260341187+261723651+263538120+265179102+266670559+268682974+270916985
3778+272202748+272572220+273476467+276303072+281527839+288368444+295037959
3768+300276294+304101684+306993918+309963109+314714311+322111475+330510474
3758+337045089+341433883+346256472+354031448+365148851+376592628+384402519
3748+389155869+394303928+400959097+406310362+408382929+409446598+412269935
3738+417891403+425406164+432003172+435248821+435729792+435621281+436161190
3728+437421404+438730661+439218291+438946812+438663818+438315569+437372704
3718+436312489+436414217+438680840+443343510+449053449+452967185+454181344
3708+454583739+455610470+457460414+459806608+462006047+463690595+465032278
3698+465674319+465142469+464811024+467309886+473622221+481705209+487599402
3688+488399090+484794674+479931226+476825362+476676521+478392375+480667121
3678+484026882+488269263+489589349+486391218+483121857+483132126+484364115
3668+483301661+480393152+478095751+477351361+477418017+477668087+478583008
3658+480386834+481603918+481097181+480778121+483723288+490874707+498973410
3648+502764757+501012712+496144440+490934890+487573511+487057034+488704427
3638+490965013+492953996+494957511+497728942+501846600+507175179+511611118
3628+512244819+510027176+508465266+509562947+513245472+517854400+521235571
3618+523214782+526057600+530940061+535788105+537882705+537384183+536366975
3608+536147837+536971549+538748614+541288397+544367655+547636798+550520879
3598+552817937+554957908+556909984+557625527+556671614+555530865+556296385
3588+559322616+562145829+562235388+559805703+556531020+553740482+552069968
3578+551628829+552188779+553597585+556112971+559922896+564312313+568021350
3568+570368385+570895971+568870144+565131855+562316919+561849517+562221696
3558+561632121+561093643+562553048+565292240+566727310+566587463+567589423
3548+571343831+575861146+577990349+577230244+575450130+573996762+572912960
3538+572095472+571881189+572394336+572903874+572877361+573089030+574226605
3528+575246863+574928394+574067775+574039893+574648015+574640920+573420631
3518+571762938+570960885+571564338+573071728+574629841+575239208+573646926
3508+569842167+566115828+564937861+566642481+570004296+574054519+577979022
3498+580153472+579453364+577258749+576211045+577102160+578450470+578821468
3488+578059682+576695500+575729327+576180610+577268645+576404354+572573891
3478+567926500+565249919+565576354+568055519+571181890+574069456+576430743
3468+577717563+577328579+575555187+573489154+572108978+571578840+571299767
3458+570637063+569660372+569056731+569293731+570255735+571324289+571940937
3448+572325688+573257507+574744545+575729763+575552822+574838834+574419603
3438+574125096+573258814+571711779+570055704+568758614+567839119+567108265
3428+566303909+565419205+565023748+565508391+566180804+565995087+565115299
3418+564682003+564800689+564097905+561926131+559640774+558665265+558733104
3408+559126631+560302108+562737520+565204984+565722052+564178191+562718164
3398+563185629+565247990+566912404+566506865+564464483+563133599+564221695
3388+566488630+567274004+566315983+565873289+567274439+569690495+572031057
3378+573905647+574800309+574248202+572815497+571733500+571635102+572332410
3368+573671883+575855607+578820721+581954809+584704893+587007303+588707940
3358+589060453+587720793+585949703+585492321+586299540+586593362+585349921
3348+583740711+583782224+586311489+590246262+593406677+594367747+593414270
3338+591444020+588953591+586522661+585173478+585325960+585978083+586039076
3328+585799462+586210914+587271377+587985115+587739402+586854697+585927235
3318+585503523+586013310+587104082+587713013+587677476+588152658+589602416
3308+590701466+590134857+588512577+587528728+587801639+588183466+587257498
3298+585307538+584090237+584637179+585979515+586662819+586835217+587683201
3288+589548830+591668075+593196128+593785516+593693965+593788441+594813740
3278+596395690+597356324+597141729+596393325+596111763+596572382+597004309
3268+596492096+595239008+594234247+593919637+594102615+594542073+594842867
3258+594533671+593906505+593924990+594678747+594974125+593860761+591781721
3248+590075358+589563518+589800144+589986358+590052019+589963891+589038607
3238+587073835+585151695+584499074+585227812+586531747+587586173+588069696
3228+588016483+587433567+586514196+585980262+586261886+586551726+585838672
3218+584679936+584470445+585323719+586087621+586238920+586347836+586710867
3208+586955522+586764453+585967441+584318461+582094781+580412878+580058374
3198+580534801+580996914+581573045+582733026+583767909+583297954+581267148
3188+578939221+577021998+575234353+573333685+571508387+570251938+570349029
3178+572135366+574304340+574797322+573268709+571120337+569143490+566975762
3168+564837223+563864888+564241051+564650760+564288662+563864950+563922520
3158+563826052+563106463+562374676+562199913+562057452+560948879+558601658
3148+555839500+553765688+552673484+552039534+551441370+550976519+550730433
3138+550390865+549710424+549058176+549250427+550609132+552316117+553176051
3128+552840280+551854253+550831008+550092748+549691753+549228644+548070344
3118+546210379+544425224+543262505+542495056+541841252+541591245+541989564
3108+542473833+542132087+540773009+539159567+538272062+538553375+539613962
3098+540466553+540150760+538407242+535928077+533832669+532822493+532802951
3088+533228219+533699232+534188106+534780855+535298484+535146438+533776842
3078+531490364+529385371+528282213+528025920+527883396+527359917+526690118
3068+526610019+527414748+528412912+528775942+528435442+527600091+526311902
3058+524864322+523708014+522782046+521770346+520818082+520130453+519532102
3048+519113213+519384537+520260498+520834326+520512652+519559891+518475809
3038+517604143+517157185+516940101+516404237+515457420+514612143+513979500
3028+513034767+511755789+510907493+510804241+510857143+510657734+510572064
3018+510959555+511528809+511753175+511471208+510763040+509442954+507174743
3008+504323461+502293433+502399765+504338585+506205613+506372410+505048838
2998+503559528+502667449+502218872+501805772+501126420+500144998+499284784
2988+499025596+499172850+498917770+497644268+495538933+493521072+492511893
2978+492607458+493075546+493111799+492431482+491447633+490994389+491384587
2968+491851834+491542110+490707444+490074552+489500194+488305858+486642284
2958+485481525+485318961+485719864+486183719+486691358+487198157+487296897
2948+486676950+485540807+484438022+483819569+483710747+483768939+483629216
2938+483004415+481739907+480275803+479611823+480215682+481254984+481351732
2928+480015246+478005414+476338354+475379649+475015156+475144672+475534434
2918+475673472+475358084+474938697+474582917+474007159+473156810+472352267
2908+471721024+471147724+470661432+470333504+469963845+469325600+468543338
2898+467835606+467145300+466376481+465671082+465165902+464749129+464238813
2888+463589957+462941848+462620112+462887142+463544306+464050825+464158247
2878+464060970+463817217+463121185+461880358+460616877+459943406+459867103
2868+459958032+459964629+459845569+459469655+458745243+457899966+457359963
2858+457400013+457849460+458005614+457195936+455675912+454403033+453792049
2848+453347798+452580442+451614175+450790744+450232101+449881051+449600298
2838+449177644+448461447+447615765+447158009+447459892+448117399+448173070
2828+447259985+446200176+446010258+446644084+447151256+446780446+445562771
2818+444018693+442649314+441656068+440964828+440468672+440151977+439960441
2808+439752101+439426040+438943980+438263258+437381666+436423801+435607215
2798+435131224+434991874+434854423+434359698+433600775+432969439+432555498
2788+432131537+431712555+431584128+431705926+431645307+431243471+430861707
2778+430766391+430646615+430002302+428799565+427460994+426317008+425412761
2768+424828290+424719997+424900734+424820728+424192659+423341283+422789113
2758+422686047+422681691+422270022+421292521+420107708+419258883+419034766
2748+419255958+419383047+418987839+418192196+417461778+417009095+416660721
2738+416270523+415920096+415605455+415052040+414122804+413179005+412644044
2728+412399544+412037323+411520659+411142193+410978976+410820830+410542723
2718+410239191+410002969+409736530+409270279+408617378+407973563+407438850
2708+406883506+406186541+405514377+405161428+405081889+404830637+404096796
2698+403031603+401938838+401003441+400402602+400283106+400530406+400817725
2688+400874081+400596845+400093157+399675731+399537128+399444083+399085503
2678+398616731+398443773+398559410+398513634+398015331+397196598+396294218
2668+395446949+394860859+394835373+395404223+396053795+396056066+395216297
2658+394099198+393354466+393050467+392830831+392483640+392098671+391772422
2648+391403105+390845614+390195015+389735579+389558420+389435563+389130351
2638+388606499+387940497+387274930+386822153+386673655+386635067+386462016
2628+386192808+386043563+386053957+386033605+385822154+385462764+385155685
2618+385102129+385299920+385457972+385217268+384480347+383474839+382580768
2608+382125626+382140065+382271884+382184191+381996390+382016897+382151672
2598+381995145+381470235+380955003+380727867+380640953+380449759+380185624
2588+380026856+379958551+379795925+379530607+379402895+379523729+379647426
2578+379481532+379047551+378600562+378344766+378278483+378205635+377946260
2568+377603830+377467032+377603239+377757743+377697000+377453900+377191476
2558+376970316+376711439+376356904+376009059+375830344+375831620+375892115
2548+375984631+376218052+376620542+377026080+377235136+377181736+376892208
2538+376404640+375835292+375417213+375325288+375488474+375674813+375750681
2528+375772246+375847833+376007659+376179652+376191228+375863486+375280446
2518+374883776+375057885+375675840+376265508+376539259+376555721+376464295
2508+376311502+376078983+375791010+375545422+375432741+375459627+375555380
2498+375574175+375337269+374835449+374331357+374117602+374262833+374639650
2488+375024681+375181706+375068248+374918287+374950463+375101078+375163253
2478+375047274+374828758+374662242+374662024+374802369+374980711+375152610
2468+375292862+375312778+375182547+375035324+375006726+375078579+375160328
2458+375184196+375117602+375028976+375056765+375184974+375228696+375142932
2448+375106555+375217337+375324821+375229505+374928556+374629132+374509760
2438+374511285+374494854+374533317+374793501+375194932+375437471+375335464
2428+375022316+374864762+375108733+375556220+375773677+375655302+375531512
2418+375717415+376205543+376777131+377229503+377504935+377678359+377830685
2408+377936084+377912185+377829814+377993218+378614503+379464822+380081470
2398+380233080+379998476+379632427+379509664+379866906+380502412+381001214
2388+381177564+381042540+380558519+379681190+378447582+376831433+374644691
2378+371749470+368341474+364866231+361627117+358669192+356013927+353671591
2368+351545282+349741704+348673897+348439293+348626877+349133116+350574534
2358+353499038+357623137+362276440+367305439+372707957+377510879+380147535
2348+379843661+377226049+374013075+371846093+371033553+370924357+371090064
2338+371512718+372085178+372418428+372218397+371769137+371771875+372487792
2328+373374830+373861496+374046558+374357777+374976416+375825241+376800034
2318+377849761+378958116+380058660+380979057+381627167+382225299+383183786
2308+384661955+386301382+387502252+388009891+388102874+388237992+388728360
2298+389676920+390927892+392113576+392949331+393447013+393797160+394152971
2288+394548739+394953500+395330254+395565480+395463909+395008300+394485630
2278+394163956+394011724+393832200+393488961+392996227+392504832+392117373
2268+391758543+391385212+391177401+391306077+391662013+392000149+392243248
2258+392522756+392979267+393627968+394399649+395161684+395690235+395850870
2248+395831950+395934206+396149609+396215519+396003569+395591029+395037769
2238+394328170+393504676+392704085+392026537+391443591+390909314+390513391
2228+390388947+390479316+390557828+390503775+390407120+390377869+390417545
2218+390534271+390811912+391246080+391627907+391766261+391812285+392174787
2208+393020873+394008332+394656876+394872685+394967846+395295276+396004752
2198+396987947+397909838+398471189+398737316+399041656+399559783+400164512
2188+400687089+401111548+401472307+401760435+402020774+402377363+402872710
2178+403406209+403886931+404325954+404743784+405093154+405297604+405338618
2168+405322063+405407920+405631476+405887708+406120787+406399953+406773750
2158+407168491+407474481+407664368+407791954+407898411+407983552+408106222
2148+408409723+408935162+409481886+409771975+409735753+409598177+409708119
2138+410251918+411069500+411772347+412096977+412127722+412182896+412530834
2128+413186287+413939640+414595155+415167583+415797301+416543652+417344399
2118+418110541+418798575+419401064+419864080+420076869+420086391+420233209
2108+420796053+421553576+422003085+421979840+421795026+421814848+422127031
2098+422569944+422935588+423143523+423264140+423392473+423525941+423579279
2088+423487821+423274875+423060312+423027482+423291026+423724229+424015532
2078+424000003+423840676+423800626+423963843+424250540+424588271+424990169
2068+425471420+425922641+426185967+426287103+426405510+426569288+426647489
2058+426692113+426975262+427593840+428317723+428952824+429637311+430594616
2048+431712835+432578588+432936920+432974325+433110282+433594614+434327988
2038+435051467+435698549+436469546+437506732+438661982+439735640+440798405
2028+442086657+443676231+445403226+447061977+448624011+450255284+452071154
2018+453911358+455501803+456805148+458010437+459235580+460477496+461763694
2008+463134473+464543994+465906775+467158992+468211986+468960920+469406322
1998+469716295+470180026+471099677+472580522+474348407+475949682+477251128
1988+478541745+480104588+481923756+483783938+485462667+486896399+488300288
1978+490006962+492102464+494351972+496516994+498641405+501009818+503799173
1968+506702579+509062154+510604210+511833834+513468997+515737924+518375980
1958+521051535+523564930+525804729+527828316+529930882+532341523+534889148
1948+537287217+539735388+542826906+546669443+550398645+552977576+554367835
1938+555431721+556967491+559204241+561910820+564719843+567368044+569674873
1928+571557368+573386151+575920707+579300571+582566852+584894344+586523034
1918+587805685+588540895+588805217+589205964+590073304+591293779+592672275
1908+593879432+594564354+594932987+595602101+596745464+597963885+598934478
1898+599731676+600579412+601564754+602614824+603630849+604527566+605118136
1888+605182054+604691250+603808101+602892589+602487797+602809565+603347856
1878+603457394+603106312+602642395+602319321+602480267+603534755+605080607
1868+605532700+603735346+600468318+597325579+595086028+593480615+591880554
1858+590019469+588129195+586497268+585129165+583956924+583075767+582601643
1848+582607555+583142921+583767100+583337475+581341211+578746720+576534492
1838+574692888+572797074+570969847+570060496+570597418+571574172+571059655
1828+568758303+566284989+564463425+562576512+560131204+557662309+555745460
1818+554440155+553732578+553914435+555234740+557191670+558500398+558328996
1808+557313718+556623380+556707650+557471427+558785694+560283873+561325229
1798+561769728+562373244+564121182+567176540+570004794+570423340+568734404
1788+567499925+568330981+570691583+573179834+575199687+576886134+578344480
1778+579868052+582140090+585677166+590171826+594100064+595709211+595058021
1768+593631540+592777643+593365724+595425782+597566562+598138959+597700372
1758+598098567+599648154+601516334+603887330+607639000+612218116+615495039
1748+616488784+616422003+616746447+618061959+620380239+623114826+625111651
1738+626270200+628535703+633464780+638743383+639942137+637596223+635024698
1728+633501625+633077601+633924590+636048628+639261073+643929376+650532328
1718+657514741+660755691+658737457+654939731+652592448+652406047+654048305
1708+657298093+661575420+665546415+669072039+674250003+682171828+689247660
1698+691365038+689877067+687298198+684821834+683904081+685539493+689095614
1688+693496544+699264457+706908952+712605790+712100609+708761697+707619454
1678+710304002+715884394+721668737+725051775+726512922+728425976+731390343
1668+733733083+735060731+737105043+740378792+742799391+742635893+741403842
1658+741793261+745469064+753223283+763546724+769732188+769161222+767790817
1648+768324378+768469391+765551266+760875495+756950805+754686671+754646092
1638+757605605+762419543+763872662+758626983+751249549+746770821+746124735
1628+747508646+748651511+748438223+746261284+741978480+737565226+735904981
1618+737744594+740222763+739380940+735846416+733062350+732471282+733187634
1608+733899692+734326081+734783650+735427869+736284131+737210971+737940206
1598+738537249+739276505+739945246+740110673+740111046+740819868+742453600
1588+744413331+746254998+748153736+750245410+752086704+753361512+754832120
1578+757554072+760556840+760647084+757532351+754620201+753650169+753062524
1568+750850296+747763881+745474603+744556477+745812116+750881290+758737890
1558+761559049+755980275+748630039+743510515+741059918+740800575+741687582
1548+742760306+744231722+747013920+751512751+757531854+763594523+765624333
1538+762509912+759246369+759412170+762246523+764336206+764199159+764265006
1528+767107699+772750079+779389813+786083072+793102454+799756192+804769663
1518+808320991+810872911+812305678+813349026+815697616+820747994+829253854
1508+840709083+850217899+850922550+845919473+842603962+843832342+849246435
1498+856504436+862280937+865239578+867580016+872060112+879013025+885876378
1488+889770323+890949535+891509859+892771224+895161078+898665541+903107050
1478+908593712+915557890+923927575+931872614+935715836+933996465+930494180
1468+929439941+931680176+934904820+935978353+934592077+933267230+934463619
1458+938301613+940271302+935748697+927746897+921014243+916961530+914739282
1448+913184280+912114855+911793959+911773857+911230400+910178214+909575072
1438+910064755+911259651+912385961+913102438+913377527+913491546+914059836
1428+915107665+915881836+916298826+917335950+919893845+923609231+926256685
1418+925441624+922381847+920439667+920653515+921902681+922820496+922588786
1408+921364141+920382720+920732120+921990312+922993392+923287090+922712826
1398+921197967+919982160+921252985+925385362+929641155+931232191+930342881
1388+928624942+926984489+926239259+927909026+932408852+937983642+942764594
1378+946840148+951267840+956129888+960282616+962561127+963164705+963425853
1368+964199091+965297767+966538781+968286656+970494092+972289143+973298696
1358+974307439+976096391+978485436+980816413+982866824+984426369+984989928
1348+985285618+987330677+991723330+996326968+999086014+1001199284+1005495345
1338+1012400646+1019449467+1024237079+1025771044+1024000701+1020352843
1330+1017485628+1017322628+1019857744+1023655097+1027228643+1029964973
1321+1032133075+1034569855+1037821573+1040794653+1041188491+1038935497
1312+1037372841+1039193783+1043565026+1048247021+1052569532+1057141989
1304+1062130566+1067183122+1071580692+1073741823+1071803875+1065773071
1295+1058396695+1052708197+1049558612+1047860900+1046265507+1044155348
1287+1041490343+1038130332+1033492153+1027172132+1019632196+1012343948
1278+1007050284+1004148528+1002280846+1000288565+998633548+997796330+996603924
1268+993603708+988714712+982383115+974960683+967652519+962197163+958718092
1258+954978932+948728866+940257672+931675695+924558289+919140773+914904211
1248+910831147+905505119+898100550+889116706+879499535+869820500+860843876
1238+853454803+847477524+841945242+836950255+833842804+833025938+832791366
1228+831146245+828072526+825216639+823891231+823919487+824133397+823572140
1218+822262417+821177245+821487810+823693877+827317587+831308622+834819620
1208+837835022+841052882+844864238+848580993+851316886+853461836+856265880
1198+860042009+863770154+866593740+869125619+872739683+877414769+881134947
1188+882501680+883034121+885123804+888838878+892661935+896348940+900981519
1178+907038835+914193273+922253389+930941916+939542253+948038902+957198193
1168+966609358+974587508+980287395+983573281+983658484+981213550+980132051
1158+983441026+988703322+990759957+989147200+988595589+991737893+995307457
1148+995013821+991739636+989535685+990175361+992421820+994349872+994966894
1138+995160452+997333533+1001927088+1005437713+1005229716+1004095626+1006012040
1128+1010229433+1012235530+1009816176+1005836593+1004212944+1005818855
1120+1009261330+1013697362+1018839229+1022967934+1024252762+1023965972
1111+1025403221+1029887114+1035427176+1038487077+1037008379+1032232779
1103+1026656557+1021025629+1014247665+1007525031+1005568225+1010919521
1094+1020127481+1026065675+1024771138+1019690948+1017371049+1020335167
1085+1025408386+1029303514+1032698626+1035864891+1035141568+1028084843
1077+1017599523+1007121733+996388520+984538271+974826126+972337128+977545962
1067+985504694+990988368+992275127+989968609+985701675+982299966+981491004
1057+981825094+981781466+982468007+984189057+983823039+978658829+971033690
1047+965923689+965446453+968288088+972439944+976289452+978418842+978330278
1037+976712292+974271964+971590715+969879000+970009761+970916373+970414864
1027+968338500+967026100+968699228+973126672+976861475+976432162+973120199
1017+971393920+973268884+977114097+980324924+980851141+977555920+970551911
1007+960863415+949555690+938101582+929182714+924288863+921136912+915899760
997+907900326+899862677+893802435+888906095+883373377+876774471+870400054
987+865862575+863484422+862069579+860227228+857721239+855293545+853688069
977+853174362+853284957+852670488+850165930+846237630+842139858+837963604
967+833144936+828439540+825338624+823886066+822886409+821913265+821618073
957+822645923+825464904+830240068+835971883+840883907+844188215+846338455
947+847767052+848927531+851189984+856031058+863357520+871643371+879542977
937+886795127+893932698+901584537+909630214+916868298+922166568+925852391
927+929357414+933428238+936882351+937652477+934963572+929979851+924939493
917+922043649+922038234+923237487+922987541+920710337+918306729+917455446
907+917850529+918122631+917802357+917738253+918554932+919752317+920845330
897+922563705+926097793+931093651+934909924+934956166+932375866+931442429
887+934231474+938113282+939705626+939842113+942137303+947496379+952599098
877+954116135+952607811+951099302+951418206+953156870+955052496+956036781
867+955900170+955370281+954872506+953995705+952974763+953202428+955628192
857+959917656+964658216+967626815+967410416+965716750+965553376+967845082
847+971247662+974383307+976928754+978670468+979925298+982738553+988616750
837+995081909+997218643+993942591+989638688+988846966+992386158+997379526
827+999745792+998581704+996646992+995621880+995013447+995975887+1001855391
817+1013265186+1024584239+1028893432+1026855406+1025536782+1029431225
808+1036707648+1041826362+1040995057+1035411305+1028621828+1022144533
800+1014899540+1007434164+1003354441+1004746754+1008755029+1011298982
791+1011989506+1011368750+1006861643+997009463+985602344+977018065+971526548
781+967079873+963097489+960000494+957246427+954309071+952241856+952708761
771+955954939+959612008+959990536+955949835+950752079+948833238+951877642
761+958352821+965248600+970330096+974892035+982667851+993921243+1002874342
751+1003735832+997037843+987708333+979798085+974434653+972445234+974929191
741+980844918+987528280+993942591+1000598133+1006237215+1007897957+1004035940
731+995862428+986220424+978926823+977118516+980474045+985492806+988809686
721+989247091+988200382+988340727+990727656+993685550+994290249+991385256
711+986177355+979969300+974583089+972095273+972861354+975760932+979905755
701+984757720+989606014+992740787+991859879+987981680+984907152+983847748
691+981709208+975600484+967732245+962777277+961746315+961938317+963014464
681+966888555+973001388+978818779+981436795+978581904+969296769+954524225
671+936409720+917888930+906678730+912072596+929352062+945599694+955805693
661+960398875+958663137+952002615+946067657+942714057+938212115+930519138
651+922970862+921014865+925662816+932665145+939491716+947759518+955857288
641+958414374+953657507+944324139+934208384+927179479+927699410+933567587
631+933708431+924154368+916052740+918592088+924961712+921867704+909487566
621+901965741+909410142+925649684+933703576+927665366+917823705+912371087
611+909779210+905992314+902407004+902087664+904853805+910554377+917526397
601+924052859+929515809
##END=
