##TITLE=<SNM>
##JCAMP-DX=4.24
##DATA TYPE=INFRARED SPECTRUM
##DATE=29/4/2025
##SAMPLING PROCEDURE=Instrument type and / or accessory
##ORIGIN=Admin
##XUNITS=1/CM
##YUNITS=ABSORBANCE
##RESOLUTION=4
##FIRSTX=4497.3318
##LASTX=599.83466
##DELTAX=-1.4281778
##MAXY=2.118916
##MINY=0.38038564
##XFACTOR=1
##YFACTOR=1.9733943e-09
##NPOINTS=2730
##FIRSTY=0.39421415
##XYDATA=(X++(Y..Y))
4497+199764510+199413840+199685481+200150519+200189769+199622958+199007655
4487+199065345+199981738+201333856+202381667+202421008+201271016+199456066
4477+197796153+196923631+196947855+197452943+198018531+198682296+199573439
4467+200318469+200445326+200243668+200473114+201277525+202026044+202211950
4457+202033066+201914122+201778385+201160801+199996100+198989880+199015659
4447+200230967+201886184+202928573+202788351+201589277+199915531+198686570
4437+198790125+200243970+202000793+202996336+203053271+202471766+201377682
4427+199948755+198714992+198065800+197714254+197128898+196450182+196408575
4417+197187993+198002900+198226667+198364685+199170350+200234516+200332438
4407+199102768+197576508+196906551+197227787+197843467+197986212+197359039
4397+196334953+195636362+195618360+195998887+196387493+196722336+197063431
4387+197331568+197366831+197016599+196159739+194854483+193513555+192757033
4377+192946352+193892572+195028126+195756061+195786340+195372272+195092733
4367+195191938+195412111+195599739+195859479+196075137+196029181+195949880
4357+196197449+196603860+196807300+196884034+197086613+197378384+197621920
4347+197832579+198034644+198115093+197958243+197638276+197302361+196869656
4337+196181531+195489766+195280210+195558329+195874657+196000820+195977411
4327+195661899+194888281+193972462+193561248+194023159+195147296+196326541
4317+197035824+197242647+197347908+197718181+198258940+198479159+198088967
4307+197373250+196758218+196341537+196123539+196260530+196792696+197492662
4297+198092078+198358599+198172375+197931467+198481665+200102253+201932532
4287+202825033+202364662+200881866+199087681+197764197+197184247+196940364
4277+196771055+196989778+197696056+198336172+198441615+198176997+197986529
4267+198172768+198724975+199236482+199156380+198273257+196987709+196229344
4257+196814972+198537604+200231103+201075037+201394747+201899035+202605782
4247+202866051+202270622+201173638+200208586+199612765+199283162+199209570
4237+199506929+200122369+200759177+201169274+201454990+201886546+202370688
4227+202484165+202188104+201957918+201964503+201788473+201274082+201018434
4217+201544801+202505323+203147991+203220647+202976009+202604679+202113062
4207+201627274+201501640+201936353+202603094+202972792+202963610+202857503
4197+202706331+202400137+202132377+202138086+202224530+202131683+202039953
4187+202274427+202893265+203771631+204641177+205106834+205127856+205297180
4177+206127295+207289324+208007563+207970336+207474822+206893453+206356484
4167+205899028+205640858+205713393+206058385+206389271+206442491+206220234
4157+205919884+205708681+205648560+205790746+206157016+206538238+206589751
4147+206347710+206248112+206366799+206255829+205806815+205473135+205393124
4137+205201796+204913875+205087488+205903302+206801618+207165502+206988989
4127+206792451+206957380+207269736+207316069+207186735+207326882+207800815
4117+208232629+208374286+208285561+208090277+207928654+208030805+208536890
4107+209236281+209660710+209552609+209091664+208540288+207957484+207467437
4097+207438321+208044004+208913309+209485979+209536359+209281165+209176734
4087+209548985+210259914+210847671+210999855+210753555+210359588+210061790
4077+209888252+209639612+209191881+208695975+208301026+207894690+207346334
4067+206827080+206672616+207003064+207584146+208044895+208183879+208013422
4057+207589326+207019873+206638999+206814379+207445026+207979609+208112628
4047+208160622+208572772+209314948+209890548+209891605+209427821+208965335
4037+208773328+208737068+208756111+208932866+209220636+209323315+209180268
4027+209173487+209612413+210275817+210671838+210573237+210118876+209597764
4017+209326456+209456273+209716089+209678228+209311641+208892921+208574615
4007+208495193+208930963+209853457+210744524+211172562+211125836+210711420
3997+210073162+209540512+209332210+209275894+209250462+209589503+210563934
3987+211798542+212717110+213207036+213331311+212875803+211876152+211166748
3977+211608196+212999564+214319288+214837062+214579662+213951764+213332262
3967+212970644+212988826+213350793+213819138+214065785+213959965+213647911
3957+213302949+212976322+212714452+212672891+213039917+213773726+214414929
3947+214459752+214038148+213847711+214348903+215271201+215870798+215574103
3937+214512186+213549868+213591384+214738249+216191294+217057865+217229546
3927+217236387+217387634+217433680+217173683+217015746+217468053+218374811
3917+218926081+218372304+216837375+215341350+214789370+215062838+215511399
3907+216155412+217613606+219908682+222121451+223420681+223607494+222673250
3897+220870789+219033955+218134899+218552698+219624929+220089408+219663620
3887+219385184+220050430+221152971+222047330+223158962+224396773+224353022
3878+222810830+221687357+222371707+224277481+226448388+228549477+229652154
3868+228926651+227396087+226453462+225906103+224787554+223137608+221597545
3858+220731034+221729009+226267359+232833282+235135954+231608928+226619313
3848+223387336+222700871+223937640+225867925+227506423+228799567+230136809
3838+231219355+231274614+230327699+229006798+227579396+226069145+224891592
3828+224590789+225124692+226291341+228578397+232021501+234493377+234327042
3818+233241944+232972463+232516471+230667737+228427150+227412065+228414329
3808+231020174+233496097+234740069+235865187+237808370+239177145+238771126
3798+237938081+237857089+237890842+237296984+236525540+236376226+237212956
3788+239104731+241817106+244493690+246263108+247435103+249147722+251752314
3778+254408661+256467646+258255277+260529617+263908975+268384622+273180976
3768+277702352+282047367+286173975+290048499+294708482+301537362+310212711
3758+318585113+325418584+331692765+339057286+348137038+357286742+364009908
3748+368706045+373761551+379826388+384488062+386334712+387479569+390291089
3738+395467260+402268987+409098653+414211909+416656389+416725284+415405123
3728+413578830+411844721+410821043+411071163+412427540+413877791+414566988
3718+414580701+414677203+416035543+419954830+426300716+432187530+434591536
3708+433806229+432207736+431944538+433892976+436889647+438672929+438746416
3698+438616175+439465968+441429357+444414793+448483621+453363369+457860823
3688+460398966+460621419+459429232+457891208+456855569+456777522+457726173
3678+459827957+462981781+465728514+466496937+465655238+464180643+462282918
3668+459962124+457504928+455316699+454093281+454698753+457241215+460799775
3658+464360901+467277230+469043960+469789458+470819539+473726505+477936627
3648+480323115+479678167+477936537+476797267+476155369+475386584+474821404
3638+475180501+476574723+478876126+482145209+486343703+491133171+495404215
3628+497033093+495395486+492633168+491501691+493985074+499913570+505800686
3618+507789114+506578140+505521086+506363902+509278539+514017204+518907916
3608+520561954+517726572+513676622+512565835+515327519+518996776+519924103
3598+518186702+517063108+518573133+521638006+524610877+527859693+532652664
3588+538290989+541860633+541983986+540541256+539743686+539822398+539729128
3578+539110426+538518003+537790627+535982246+533449630+532547493+535209564
3568+540161167+543577072+543152342+539852662+536140093+534373876+535217961
3558+536806395+537149031+536824941+537345962+538335630+538652713+538901897
3548+540434394+542986401+545075801+546048978+546337065+546323896+546297195
3538+546622796+547119231+547115365+546290490+544951843+543687318+542931792
3528+542497638+541469187+539337018+537117136+536302228+537089771+538325784
3518+538933370+538950224+539156397+539921649+540761746+541172643+541319193
3508+541464113+541445205+541193665+540960006+540774069+540570614+540804576
3498+541939405+543451242+544192632+543847943+543378571+543709729+544506997
3488+544798527+544455650+544363346+545279196+546902063+548086125+548116571
3478+547573742+547081959+546030674+543840271+541819434+541889387+543639112
3468+544775753+544417955+543847037+544031584+544593200+544904423+544531462
3458+543158020+541312428+540344506+540844385+542236251+543951181+545408167
3448+545196557+542430162+538614596+536019095+534956212+534201471+533256445
3438+532878229+533426010+534086454+534153265+533919002+533761578+533243155
3428+531884150+530396537+530100597+531142518+532517289+533967087+536215059
3418+539003625+540510206+539278301+535951679+532740921+531395267+531623549
3408+531750165+531114006+530890858+532206126+534513238+536137314+535838655
3398+534078359+532807732+533401304+535258193+536687754+536487682+534696456
3388+532542782+531523876+531988173+532880524+533232160+533352010+533967812
3378+534907462+535521452+535814734+536277098+537094784+538114838+539239338
3368+540408418+541481994+542451365+543530619+545007298+547037015+549266019
3358+550860253+551372092+551327269+551466208+551608892+550885866+549197033
3348+547670698+547333197+548145084+549584672+551061533+551478894+550127743
3338+548459448+548679757+550367322+550802744+548990980+546997448+546684956
3328+547482828+547925318+547729475+547507233+547397169+546745606+545125155
3318+543352716+542696381+543251412+543894699+543751048+543216979+543673424
3308+546183145+550083826+553139516+553738041+552530239+551104000+549860557
3298+548485605+547698727+548611556+550610404+551810052+551696847+551286554
3288+550831499+549821231+548899160+549398434+551322436+553539842+555333786
3278+556414489+556442579+555689832+554997130+554482029+553525586+552155043
3268+551107141+550638253+550577603+551247530+552879640+554415520+554555184
3258+553811377+553806967+554803280+555350639+554137642+551348774+548512728
3248+547274782+547961745+549522996+550926702+551994176+553032413+554203004
3238+555270478+555698229+555004319+553306424+551526798+550627319+550461136
3228+549756534+547835914+545709725+544538349+544006092+543188889+542224411
3218+542081485+542957828+543720663+543187016+541579432+540147153+539725382
3208+540126010+540667811+541117672+541829402+542855315+543296537+542205564
3198+540126372+538609823+538151868+537877736+537169087+536230463+535352127
3188+534887830+535392541+536727382+537727863+537581373+536624325+535201348
3178+533005992+530337276+528663304+528922153+530110021+530377327+529057890
3168+526829007+524538387+522772171+521784919+521063282+519664166+517517197
3158+515600262+514622676+514391312+514395963+514260347+513703806+512645151
3148+511318586+510053033+509116041+508745920+508839492+508853688+508527302
3138+508208830+508150174+508023256+507562583+507101064+506866619+506603874
3128+506352998+506603662+507255528+507335810+506245955+504504113+502795889
3118+501248048+499998111+499446252+499536804+499602286+499235125+498673268
3108+498147414+497454290+496397750+495251171+494524762+494407962+494601027
3098+494711333+494651649+494482566+494084265+493325416+492408812+491753262
3088+491644285+492025310+492478885+492610757+492537783+492534974+492247552
3078+491084814+489442888+488518702+488691560+489010516+488535435+487427155
3068+486347086+485425468+484359353+483173025+482288558+481927830+481891495
3058+481965646+482188854+482482861+482418708+481764849+480935051+480482533
3048+480369539+480173937+479859271+479700367+479604529+479258601+478747578
3038+478297567+477710882+476772983+475911622+475693065+475913555+475847197
3028+475182434+474174221+473163862+472448055+472264444+472419723+472231763
3018+471287401+470045015+469314196+469277528+469327999+468830568+467750257
3008+466449999+465245489+464422819+464238454+464488967+464504975+463967462
2998+463237217+462534941+461546783+460245740+459338348+459449620+460393227
2988+461450915+461946595+461530805+460362872+459056634+458195605+457913620
2978+457978226+458097079+458078141+457893776+457632147+457279967+456697360
2968+455861068+454900094+453858595+452711533+451626692+450944290+450831508
2958+451090478+451352589+451294749+450680457+449552303+448430008+447856311
2948+447712691+447469457+447061158+446922762+447217705+447632891+447887361
2938+447940520+447730390+447129389+446212754+445283222+444525703+443897306
2928+443451070+443383413+443595355+443637792+443183462+442120609+440398037
2918+438355635+436821809+436331777+436648860+437296739+437984486+438414351
2908+438331985+437880282+437460535+437206911+436886506+436314168+435604220
2898+434921365+434221506+433461026+432816954+432422035+432143945+431818315
2888+431457617+431125432+430823542+430563092+430397301+430319496+430178714
2878+429828860+429386007+429135343+429156033+429280292+429395491+429484442
2868+429412677+428958407+428040413+426858556+425876922+425533864+425743994
2858+425832129+425228530+424138705+423306853+423219835+423734000+424355389
2848+424656978+424450049+423797610+422984455+422339717+421949873+421590534
2838+421008863+420234581+419576161+419318882+419422754+419474917+418985912
2828+417855915+416554933+415708644+415464383+415406210+415118093+414631655
2818+414213630+413937534+413672101+413339855+412978312+412604355+412133714
2808+411490487+410800232+410357712+410303556+410402172+410242362+409697419
2798+409095089+408842310+408964093+409091404+408864420+408290390+407713371
2788+407433046+407327634+406914985+405923626+404744275+404071358+404192688
2778+404823652+405422207+405494908+404825887+403623098+402360294+401391527
2768+400758177+400325261+399976434+399645971+399231389+398611540+397818682
2758+397101303+396734233+396734414+396782831+396505014+395853148+395107711
2748+394489100+393928391+393230706+392329868+391406860+390796132+390649884
2738+390701654+390541451+390060269+389423113+388766717+388193836+387886750
2728+387895057+387915988+387612376+387102893+386809732+386820877+386745790
2718+386276297+385543182+384821606+384259386+383938528+383803304+383537840
2708+382875675+381971333+381231514+380908662+380923462+380927811+380635224
2698+380142202+379674763+379133566+378299932+377317543+376553620+376180146
2688+376141666+376292415+376437153+376410785+376164742+375745811+375244845
2678+374748924+374322985+374079902+374127746+374326610+374329811+374015719
2668+373652635+373509951+373467332+373126388+372290036+371254125+370539345
2658+370366910+370472231+370414119+370032127+369564779+369278474+369102807
2648+368788472+368274338+367704356+367235165+366950129+366810706+366683758
2638+366553971+366605922+366958827+367438348+367712994+367589429+367138572
2628+366573181+366017153+365388817+364569681+363712549+363220644+363284224
2618+363624806+363908453+364132809+364308778+364136131+363394499+362396404
2608+361750670+361807907+362391662+362954818+363055790+362714363+362236836
2598+361845873+361627981+361602519+361631907+361468715+361077148+360737382
2588+360700231+360887557+361022569+360915858+360580472+360200594+359984605
2578+359950172+359921116+359766501+359474034+359016955+358436221+358030428
2568+358124877+358619590+359052022+359175678+359215064+359402843+359546192
2558+359326880+358811326+358322230+357981407+357713436+357541756+357566100
2548+357759497+357997808+358192624+358303474+358345427+358417313+358592920
2538+358777255+358797402+358635628+358454494+358390310+358444768+358600289
2528+358915469+359414442+359929482+360167219+359978836+359493546+358920091
2518+358317156+357691417+357233704+357236452+357729293+358377323+358833495
2508+359036105+359092345+359091590+359134177+359307217+359460352+359244996
2498+358588178+357878079+357486059+357333559+357138017+356901066+356926256
2488+357410398+358155685+358696610+358696610+358238716+357722709+357472437
2478+357490862+357612796+357764813+357946008+358099928+358213193+358416437
2468+358789609+359179242+359337572+359125841+358572411+357902786+357464494
2458+357452080+357758470+358156470+358491192+358709961+358885054+359136986
2448+359390067+359372005+359009283+358602071+358434590+358425045+358312988
2438+358037979+357814922+357922418+358450930+359170996+359670119+359714157
2428+359450173+359221679+359253182+359535923+359927610+360272964+360442197
2418+360390699+360289515+360446365+360956422+361583853+362069052+362348681
2408+362458232+362463759+362476354+362566000+362738435+363056606+363596535
2398+364234748+364669747+364744684+364666183+364791108+365186329+365530927
2388+365498851+365047299+364236197+362938991+360845030+357692353+353500202
2378+348610578+343461379+338288651+333104808+327965063+323108935+318735499
2368+314809144+311305919+308460721+306548830+305713022+306144729+308085404
2358+311594489+316563732+322979601+330977230+340099419+348376315+353059585
2348+352579913+347796577+341703016+337244344+335089582+334348433+334385795
2338+334989394+335882591+336681037+337127665+337337674+337786417+338898744
2328+340634303+342537314+344194796+345642298+347247103+349216261+351409262
2318+353610145+355732227+357725608+359477357+360905257+362112153+363368947
2308+364887610+366605137+368251383+369651162+370883823+372092531+373248353
2298+374218026+374983670+375686278+376491279+377434735+378351279+378997194
2288+379330164+379591339+379984476+380352513+380357225+379954151+379462277
2278+379130273+378880666+378564610+378217354+377903563+377504536+376866927
2268+376092735+375503694+375315281+375470893+375792990+376151724+376472884
2258+376746957+377044528+377413108+377822072+378262358+378757494+379272353
2248+379745894+380149300+380423674+380472363+380250393+379773319+379074094
2238+378231610+377432560+376946998+376895319+376991519+376791055+376299271
2228+375993847+376182321+376712645+377332494+377983453+378701224+379441466
2218+380083304+380599039+381179532+382100275+383482174+385238272+387176259
2208+389124546+391029973+392924375+394815667+396705599+398657752+400731114
2198+402887598+405004061+406970742+408850012+410877283+413132202+415328011
2188+417155180+418677800+420152214+421641187+423071050+424489919+425940653
2178+427186603+427918570+428167422+428201764+428138848+427922708+427539659
2168+427079681+426658846+426273110+425696543+424658427+423146892+421465429
2158+420005935+418906052+417907444+416690217+415260777+413853537+412676845
2148+411824333+411201403+410797484+411247616+413523557+417854254+423537613
2138+429752020+435975610+441915191+447546840+452932809+457971672+462687109
2128+467378414+472201559+477089130+482027594+486842675+490983419+494058803
2118+496323689+498315288+500242523+501975605+503592311+505685759+508953362
2108+513710269+520021421+528016633+537632418+548017501+557631776+565177551
2098+570026521+571808262+570594177+567372666+563227512+558361447+552530239
2088+545663875+537764954+528887720+519153838+508648300+497731805+487161782
2078+477527241+469039157+461792675+455625325+450116999+445203302+441253237
2068+438410999+436389195+434750501+433099453+431330246+429688713+428374199
2058+427412349+426903560+426873084+427089920+427452641+428154585+429294096
2048+430793730+432673333+435110413+438457272+443273712+450026175+458772927
2038+469302356+481415296+494952724+509566989+524448983+538461642+550656496
2028+560405722+567236626+571127642+572737824+572924123+572222058+570757581
2018+568480492+565597690+562587366+559584170+556168144+551957992+546992675
2008+541439225+535358651+528884458+522331553+515991647+509989182+504388220
1998+499236242+494530531+490386767+487118107+484871766+483357331+482170641
1988+481150437+480278141+479539349+478969910+478638148+478593476+478891349
1978+479567892+480580152+481847487+483320301+484999741+486961166+489280510
1968+491792497+494043670+495703629+496935776+498197855+499822897+501884117
1958+504206452+506448413+508503139+510723142+513323959+515856876+517820507
1948+519482942+521572463+524438472+527818676+531150915+534057760+536642568
1938+539147819+541484712+543449913+545189791+547052359+549149491+551362366
1928+553663075+556215806+559093836+561991620+564478627+566552080+568495655
1918+570192160+571188171+571557326+572029235+573170407+574848851+576440366
1908+577443928+577922422+578323472+578961142+579873186+581070900+582550902
1898+584058208+585188688+585796456+586135044+586527275+586994291+587334147
1888+587531622+587825871+588279778+588629179+588663371+588486254+588294518
1878+588081095+587674125+587060921+586557539+586511327+586900598+587251871
1868+586848707+585263715+582846661+580489048+578921695+578139952+577374096
1858+575857547+573730694+571849521+570697052+569945090+569056727+567961042
1848+567204247+567433376+568289240+568069173+565812079+562826281+560653154
1838+559372862+558181793+556669654+555308897+554749457+554789628+554358917
1828+552963185+551303649+549861705+548208150+546093378+544142494+543009658
1818+542541615+542125039+541639538+541554725+542032796+542523553+542541675
1808+542326259+542345167+542771589+543651435+544933177+546174385+546802389
1798+546875483+547117177+548191779+550095062+551902295+552555006+552403684
1788+552767160+554217502+556240574+558242926+560269864+562385180+564128864
1778+565237959+566367956+568608195+572424426+576725251+579345519+579466215
1768+578171908+576927377+576880380+578504818+580974247+582597356+583005957
1758+583524562+584893232+586653226+588746311+591861685+595780791+598756803
1748+599654953+599379733+599464063+600794554+603355743+606171311+607879173
1738+608500774+609984400+613991340+619037724+621309074+620535486+619315481
1728+618776820+618671710+618936781+619868881+621650864+624506905+628749316
1718+633825118+637633738+638639837+637770139+636664850+636373682+637467434
1708+640051698+643537013+646933285+650101033+653918411+658280551+660976692
1698+660932412+659906741+659077698+658420275+658311842+659331534+661451440
1688+664474692+668897360+674977813+680403379+682254288+681718346+681494956
1678+682889420+685857519+689132129+691403721+693297399+696355747+700347101
1668+703210996+704356759+705297194+706808911+707919516+707779671+707368654
1658+708133603+710584124+714675333+719690244+722967935+723357387+723674168
1648+725416463+726920386+725841374+723142575+721351773+721445225+723279159
1638+726443222+729722060+730436750+727413922+723291663+720802239+720696766
1628+722276019+724444252+726826210+729553038+732490027+735708095+740037735
1618+745893650+751270527+752753791+750338368+746799471+744062555+742723123
1608+742457025+742490551+742513023+743017553+744475687+746664096+749245582
1598+752349781+755871038+758889396+760662016+761731906+763170770+764941517
1588+765744282+764646242+762342634+760470582+760044342+760909508+762577924
1578+764940430+767470750+768373430+766862499+764599848+763186537+762784158
1568+762968705+764052368+766544390+770101167+774295553+779653523+786034868
1558+790067179+790351400+790186425+790818899+791031234+790442556+790502179
1548+792533467+796315506+800725610+804901753+808913766+813191516+816430606
1538+816843376+815784782+815082113+814737846+814152369+814068100+815975913
1528+819966240+824440558+828386848+833251584+840526247+847972288+851690839
1518+852179904+852847294+855262718+858499754+861111323+862829273+865069513
1508+869842791+876691214+881293416+881990104+881747384+883057578+886581252
1498+891252984+894599661+895216671+894717095+895443504+898198663+902299538
1488+906410923+909573536+911834556+914136714+917482546+921784882+925722895
1478+928215581+929801418+932143083+936035428+939701242+940259475+937647906
1468+934428750+933161929+934704091+936794518+936465052+934169659+932310958
1458+932279062+933510907+934100009+933198597+931306671+929112402+927349629
1448+926786503+927764392+929851980+932266195+934436724+936222815+937854019
1438+939230420+939309434+937938771+937325144+938725468+940561818+940870383
1428+939957313+939148446+939047444+940480750+944368565+949835269+953815327
1418+953696745+950683884+948132421+948066516+950192040+952176632+951794429
1408+949528516+947990522+948914466+951276912+952474626+951215598+948528276
1398+946263028+945415500+946061506+947900091+950417303+953199223+955726644
1388+956425325+953639478+948844755+945775775+946001641+948566756+952610847
1378+957923752+963855781+969654550+975207759+980005624+982225566+980894410
1368+978234031+978151151+982389575+988838819+994010430+996926819+999043282
1358+1001367610+1003570518+1004815169+1004665176+1003491383+1002287567
1350+1001855709+1002140775+1002977490+1005292455+1010429028+1018195837
1341+1026071139+1030759544+1031034764+1028508975+1026038156+1026006019
1332+1029293194+1035059645+1040972525+1044264653+1044524892+1044400692
1324+1046430410+1050820881+1056319481+1061484990+1064934180+1065707768
1315+1064226920+1063113475+1065265459+1070035052+1073296493+1072721286
1307+1070534145+1070082896+1071756446+1072897437+1071253124+1068433630
1298+1068160222+1070983824+1073741823+1073555162+1070030582+1064405849
1290+1058950743+1055524146+1052999927+1048497096+1041143117+1032526727
1281+1024873244+1019698915+1016614349+1013590554+1009525683+1005497420
1273+1002787869+1001140898+999496102+996866411+992036409+983994682+973835888
1263+964972126+959952986+957676984+954601359+949028638+942838182+937776696
1253+932439688+924737335+915209686+905680164+896620981+887954633+880302600
1243+873487644+865867687+856646429+847304535+839750968+834174320+829278715
1233+824073699+818892423+814783394+812439917+811697499+811665483+811460397
1223+811002200+810775065+810932489+811251082+811725166+812550705+813926382
1213+816272699+819786707+823569048+826385583+828321788+830549161+833630223
1203+836988619+839926695+842335897+844357640+846265091+848874667+853132783
1193+858933304+864964403+869755381+872648754+874224262+875803031+878161973
1183+881103794+884505020+888781562+893800581+898785590+903918539+910606094
1173+919453848+928924713+936750602+941971928+945117144+947573886+951162378
1163+956621894+962183500+965399393+966421017+967486619+969616734+972047925
1153+974269800+976348086+977498561+976643603+974362769+972246426+970797353
1143+969012773+966202400+963791084+964168938+968051376+974190907+981669931
1133+990581658+999562551+1004927287+1004366578+1000074753+996437331+995673046
1123+996094272+994779729+991339721+988269170+987855796+990103647+994053803
1113+998755377+1002984739+1006093649+1008597329+1011156162+1014193549
1104+1017383105+1018800524+1016446414+1011766769+1009616960+1012388189
1095+1016876280+1018142557+1014438324+1008443591+1004336917+1003421189
1087+1002862352+999865499+996161748+995392752+997403621+997901566+993230438
1077+983693849+973436227+967292829+966488071+968138182+969229276+969052099
1067+966864897+961719867+955474802+951828741+952406365+955904667+959864065
1057+961957029+960925317+957433479+953895489+953148601+955820337+958835433
1047+959116150+957657654+956740959+957053813+958967909+962613425+965895526
1037+965728981+962577905+959591986+957633430+955063724+951165942+947458809
1027+946481947+949542229+955429737+961421510+965616319+967544550+966538391
1017+962795798+959391854+959220053+961523963+963100437+962285409+959528618
1007+954084929+944562113+932651056+922402012+915496625+909790704+902764500
997+894455044+886418331+879515420+873866464+869936424+868188814+867589685
987+865678428+861105886+855647397+852301989+851832133+852032508+850055648
977+845225525+839643078+835643449+833130345+830300339+826199828+821716871
967+818306161+816365909+815051003+813409590+811354924+809372869+807728798
957+806493268+806150754+807568052+811123863+816074197+821005202+824950283
947+828050192+831102259+834704946+839084725+844280076+850136957+856501389
937+863586068+871712910+880425712+888667209+896382973+904629967+913297342
927+920010631+922673185+921748878+918354237+912956639+907232898+903716473
917+902666578+902106171+900999613+899779728+898503483+897006446+896146897
907+896947488+899192560+901821648+904231333+906593537+909065563+911704920
897+914936399+918683341+921635552+922584989+921990511+921351030+921321671
887+921515159+922027662+923606976+926297619+929341711+932041235+934266373
877+936695751+939776209+942379502+942853888+941339514+939964683+940940638
867+945088752+951376344+956571755+956981081+952459705+947153143+945827061
857+950139425+957340390+963379523+967606892+972001229+976085068+976082229
847+970303335+962326728+957065170+956456557+959468995+963230314+963849680
837+960176919+956134399+956749114+963416432+973021887+981646493+988604617
827+994448208+997325815+994721978+989135665+986510384+988626605+991576159
817+990920548+988706827+990171909+995258222+1000866947+1006012400+1011033473
807+1014757642+1014612299+1010913563+1008321566+1009541631+1012170477
798+1013564941+1014104024+1013350009+1007976574+996603212+982592426+971032643
788+965428148+965790476+967646338+965220826+958554354+952957409+950419961
778+947885412+943565377+939632619+937742203+936472180+934521114+932993269
768+933651961+936648572+940686320+944933140+949607409+954158687+956943387
758+957311937+956219333+954693361+953493834+953855377+956839243+962498891
748+969564058+975519164+979096842+981956931+986006639+990357301+991503246
738+988668226+984569044+979792987+974640465+970717191+967934667+966472485
728+967358674+970969940+976272334+980094786+980379732+980511603+985559074
718+994769036+1001547989+1001286361+996590164+992107932+990513517+992990014
708+997433221+998986680+995305945+987680129+979455607+974661548+974291547
698+974253128+969186265+959608961+950775826+946337269+945800300+947651451
688+952860635+960678006+963949293+957995336+950061921+948251909+950328321
678+950694878+949914706+949474088+945203890+933066182+915391998+899478654
668+895335554+908022554+928346304+944754150+953623047+954643886+949117800
658+939731446+927901337+917441710+914435433+917305671+917381845+912475729
648+909335225+911508835+915583190+919561375+925892642+933978528+938951395
638+937941188+931932984+925866486+924256364+925635847+925678616+925429855
628+929038522+931523476+920684243+896609564+873760568+864479083+869368466
618+879263820+885360039+887768938+888991057+886361305+881019646+882301086
608+893806440+905590639+904719492+892048258+879691510+876312031+879974583
##END=
