##TITLE=<SNM>
##JCAMP-DX=4.24
##DATA TYPE=INFRARED SPECTRUM
##DATE=29/4/2025
##SAMPLING PROCEDURE=Instrument type and / or accessory
##ORIGIN=Admin
##XUNITS=1/CM
##YUNITS=ABSORBANCE
##RESOLUTION=4
##FIRSTX=4497.3318
##LASTX=599.83466
##DELTAX=-1.4281778
##MAXY=2.1276374
##MINY=0.38607332
##XFACTOR=1
##YFACTOR=1.9815167e-09
##NPOINTS=2730
##FIRSTY=0.39969859
##XYDATA=(X++(Y..Y))
4497+201713455+202005911+201574288+200661275+200190549+200631526+201336308
4487+201443093+200951370+200471078+200300056+200253928+200141909+199936761
4477+199706256+199774042+200559514+201910902+202962690+203113663+202766521
4467+202588431+202544679+202244643+201892177+202056776+202570217+202563073
4457+201778022+200984398+200790516+200843833+200550655+200022009+199893295
4447+200471273+201344851+201746979+201207414+199951846+198752499+198329856
4437+198923054+200314840+201862593+202565886+201787272+200064061+198665326
4427+198333255+198909398+199953049+201115518+201983080+202065665+201156803
4417+199671678+198483476+198252339+198924949+199888211+200393801+199937137
4407+198607602+197098503+196216638+196301645+197038222+197783176+198109382
4397+198008222+197675564+197340980+197206145+197343041+197742673+198385324
4387+198974687+198924213+198169798+197542518+197653169+197972141+197674375
4377+196860778+196342585+196598839+197328467+197912401+198073105+197981871
4367+197875252+197844299+197950468+198167422+198151916+197486043+196295374
4357+195247406+194837276+195060171+195722825+196579557+197245746+197467573
4347+197406360+197343447+197352907+197494164+197905783+198495342+198975018
4337+199247817+199303134+198911067+198027112+197251506+197233609+197801751
4327+198184658+197906505+197109738+196195687+195540493+195433016+195872354
4317+196465899+196903222+197366714+198042498+198528927+198429151+198145899
4307+198246819+198508142+198370269+197921305+197718187+197860693+197836975
4297+197338469+196775380+196721612+197128613+197491743+197632444+197815362
4287+198216182+198743866+199287914+199758851+199928654+199661436+199380606
4277+199757422+200652958+201010643+200301801+199348255+199129872+199551492
4267+199886813+199782599+199352812+198735173+198033986+197559333+197702155
4257+198394739+199035886+199216789+199196620+199468019+200186458+201140259
4247+201979169+202381809+202216322+201624056+200945279+200543105+200566342
4237+200814459+200889976+200586390+200116115+199867366+199984077+200330633
4227+200826762+201544794+202426554+203222930+203809346+204269153+204632148
4217+204767539+204644180+204515692+204594953+204654678+204330397+203744357
4207+203399261+203539119+203959206+204273229+204143794+203575321+203087463
4197+203148000+203468566+203421174+203045607+202998095+203591474+204512533
4187+205368047+205877097+205663075+204548103+203075582+202204110+202426448
4177+203483982+204778458+205800527+206368880+206705177+207178762+207866488
4167+208465041+208676506+208521592+208155515+207553999+206642024+205628468
4157+204861254+204406305+204146411+204225417+204975454+206334784+207596984
4147+207934801+207217761+206160408+205541490+205469990+205625836+205921405
4137+206443749+206913303+206812940+206129049+205527684+205643884+206427461
4127+207237388+207495613+207245916+207062532+207401657+208053482+208328492
4117+207871256+207138514+206854436+207152457+207521647+207489687+207118992
4107+206806563+206783055+206951174+207148185+207426699+207953285+208644260
4097+209072934+208857334+208108860+207431692+207433647+208136263+208934460
4087+209309230+209373271+209468506+209565063+209354486+208670009+207682818
4077+206811572+206345447+206125590+205909839+205943664+206634068+207819367
4067+208890227+209402554+209189962+208306022+207256068+206831199+207294872
4057+208044022+208407317+208386622+208244628+207911067+207317778+206797494
4047+206621419+206617854+206600212+206684287+206974757+207352837+207618837
4037+207626312+207459757+207519767+208044639+208616706+208628407+208144912
4027+207853824+208261819+209239835+210244472+210776623+210746528+210550148
4017+210636283+210903412+210772126+209941458+208801324+208057077+208154643
4007+208929767+209636309+209605221+208996515+208586415+208828968+209447720
3997+209930720+210106238+210158232+210301354+210549081+210714176+210651925
3987+210558330+210820435+211420267+211799459+211557719+210969047+210573130
3977+210642345+211218593+212207799+213234471+213736436+213392994+212392628
3967+211349758+210968069+211518298+212520845+213166459+213158337+212940541
3957+213073150+213611828+214155485+214391856+214554154+215149835+216062261
3947+216459065+216044032+215602784+215818430+216278854+216215625+215581607
3937+214919254+214909072+216093228+218237789+219927115+219753627+218133862
3927+216905201+217158372+218156362+218522304+218134960+218025001+218713600
3917+219493191+219397145+218412180+217287372+216514157+216057854+216061042
3907+217321603+220617804+225507494+230148405+232834637+233060150+230863971
3897+226834953+222674951+220332432+220495768+221841667+222212828+221602799
3887+222163030+224765789+227479665+228502726+228606428+228512322+227517701
3878+226034381+225870729+227524921+229828366+232039224+233817437+233852209
3868+231941673+230295874+230335565+230701056+229556019+227372985+225895335
3858+226562471+230725436+238878073+246370342+245141441+236895555+228715469
3848+224042357+223353067+225763102+229652155+233500405+236863128+239870603
3838+241750924+241384139+239242587+236780889+234748061+233096667+231876038
3828+231327283+231435211+232506341+235631159+240630282+244038832+243380359
3818+240991170+239046764+236675894+233210837+230119528+229110289+230905346
3808+234622536+237798506+239431581+241410099+244607877+246553727+245808893
3798+244268586+243106538+241701727+240131806+239598106+240509374+242162798
3788+244078659+246323613+248802772+251552865+255261812+260002229+264022313
3778+265726844+266168363+267630416+271383326+277302019+283868431+288938318
3768+292103158+294739908+297521164+300566916+305049875+311945396+319720285
3758+325790552+330556568+336946438+347029329+360355690+373121625+380751858
3748+384091585+387871266+394531198+401102152+403996661+405049622+407738231
3738+413698284+422323573+430758755+435380806+434823658+431017175+427074037
3728+425050895+425074959+425883578+426606137+427110674+426745830+424992088
3718+422943859+422431952+424446972+428720513+433351497+435311350+433735051
3708+430881994+429330662+430770456+435476611+441043966+443815987+443425545
3698+442683764+443449729+445647066+449401029+455659148+463422727+467860325
3688+465771819+460927053+457835609+457201697+458040035+459981930+463588048
3678+469083691+474195059+474807825+471499381+469363047+469942484+469385427
3668+464821491+458731251+454622641+453543810+454365905+455861920+458205748
3658+461626451+464299899+464478064+464301102+467612704+475417763+483289390
3648+484770665+480176108+474695565+471186275+469276205+467678098+466282883
3638+465832792+466373726+467501888+469722718+474334180+481666678+488928968
3628+491243768+488105038+483625899+481316874+482686009+487271181+492650745
3618+496174232+497516236+497947196+498183417+498475015+499894686+503690130
3608+508838285+512249032+512702342+512241451+513038339+515029656+517078968
3598+518734468+519475707+518368691+515845013+514125803+515357952+519926310
3588+525716169+529145144+528492702+525145064+521548180+519659798+520333176
3578+522780631+525001039+525236568+523268714+520630851+519679892+522097687
3568+527197504+531736142+532864394+531061861+528477662+526240890+524293851
3558+522415456+521133072+521552211+524049479+527462993+530350703+532391291
3548+533740213+534160675+533129221+530375308+526564554+523515192+522871894
3538+524345288+526179345+527251769+527627833+527504925+526860785+525872045
3528+524903760+524372782+524604521+525255699+525450860+524984495+524428009
3518+523957493+523164215+522080602+521419196+521377986+521058413+519733134
3508+518159332+517736764+518604400+519540861+519700587+519779157+520969916
3498+523056046+524274299+523508334+521825461+520849655+520880096+521414202
3488+522158871+522779006+522671379+521906437+521566589+522335021+523669263
3478+524690671+524781393+523358293+520733726+518941360+519684945+521844953
3468+522676974+521261575+518997490+517331161+516829060+517547017+518864174
3458+519463434+518432461+516358724+514905725+515189804+516715417+518069211
3448+518115294+516313845+513144162+510241712+508820117+508120749+506776761
3438+505241582+504891207+505436141+505400226+504664521+504485543+505462071
3428+507064810+508386659+508363678+506345530+503282752+501320884+501793957
3418+504207361+506959649+508475095+507987674+505832780+503243317+501840491
3408+502715528+505427238+508244861+509712720+509511302+508129954+506558679
3398+505686650+505561877+505730929+506077875+506368691+505562599+503210529
3388+500823837+500503481+502719288+506056337+508858860+510586312+511504123
3378+511775628+511373033+510443852+509392304+508873058+509413060+510741888
3368+511958396+512614688+513282411+514679341+516456004+517446128+517206267
3358+516516706+516069292+515613154+514720129+513542305+512700898+512935765
3348+514576406+516899929+518516205+518801607+518329887+518022527+518432040
3338+519357250+519741978+518718766+516877429+515478093+514663338+513570941
3328+512218229+512095622+514362715+518150849+521054983+521174523+518710764
3318+515696356+514217548+514909154+516842115+518579735+519076601+517950214
3308+515948730+515009322+516630891+519755634+521252190+519398521+516002213
3298+514074486+514504875+515874792+516798138+517400707+518413751+519728141
3288+520503852+520488992+520495429+521194255+522049559+522184259+521861376
3278+522158811+523462732+524977095+525607639+525128098+524390349+524067046
3268+523587866+522112306+520242514+519474744+520130014+521112437+521550346
3258+521562077+521600460+521891336+522246104+521919913+520158410+517438126
3248+515629457+516265175+518911942+521709170+523198146+523072590+521700748
3238+519879144+518654153+518608491+519428601+520175856+519886363+518393898
3228+516708137+515878943+515584036+514662435+512802149+510933259+510131799
3218+510582522+511439570+511505807+510265776+508259179+506446660+505549665
3208+505931263+507480219+509405299+510619762+510591125+509679932+508689327
3198+508246244+508327221+508221579+507292879+505718235+504100185+502665354
3188+501352258+500351997+499982460+500150128+500349500+500175696+499657412
3178+499072501+498507983+497784522+496710895+495251549+493695404+492754522
3168+492987765+493870592+493979422+492484611+490048196+488072040+487489986
3158+488137284+488870431+488557446+487101889+485119055+482954807+480793356
3148+479240580+478803032+479082297+479218050+478914870+478486346+478067929
3138+477324464+476087862+474843410+474235817+474416480+475164216+476216606
3128+477170363+477420059+476645341+475247990+473917447+472863704+471761351
3118+470265788+468477483+467059798+466833173+467981880+469533783+470022257
3108+468948210+467174163+465814743+465277449+465283375+465280758+464843480
3098+464027281+463369785+463379953+464037779+464752938+464720151+463544793
3088+461735913+460356430+459957866+460023230+459706124+459019029+458778597
3078+459244090+459587547+459171807+458453730+458005623+457589703+456858781
3068+456134658+455813250+455751796+455695906+455606447+455310878+454493235
3058+453260333+452221901+451747955+451469141+450836552+449991957+449562741
3048+449655208+449650455+449086630+448273649+447914671+448274130+448647156
3038+447871716+445675071+443184571+441849276+442125233+443281099+444265718
3028+444606227+444389890+443632858+442197456+440310488+438587277+437487932
3018+437115838+437463446+438420030+439486317+439926753+439509268+438817120
3008+438490268+438423098+438028445+437012211+435628306+434367520+433538717
2998+433084986+432856586+432975584+433589703+434369175+434627264+433984628
2988+432750372+431584971+430835099+430332096+429883027+429657695+429812037
2978+429969838+429463196+428123178+426518513+425333469+424792294+424715560
2968+424802582+424777736+424667371+424941222+425860055+426760239+426593804
2958+425140685+423198670+421685058+420947068+420844464+421118104+421466765
2948+421443092+420758073+419747916+419042352+418735052+418349964+417669848
2938+417108609+417071731+417340258+417408510+417212326+417101179+417158512
2928+416954117+416050414+414549226+413084194+412340819+412501298+413038262
2918+413108018+412284629+410957847+409968415+409783361+410035765+410024575
2908+409641773+409457772+409835671+410436164+410765995+410733418+410446782
2898+409941042+409308964+408709945+408132373+407399887+406425586+405397381
2888+404698825+404502491+404541746+404507214+404389299+404166193+403585252
2878+402616636+401735584+401420131+401656202+402109903+402547963+402938465
2868+403199893+403022901+402210010+401154252+400530987+400456509+400428113
2858+400153750+399913439+399972125+400103396+399903422+399276338+398484172
2848+397906029+397763328+397945284+398126277+398064612+397703618+397070969
2838+396226765+395273460+394343136+393567786+393040929+392741570+392507936
2828+392205900+391933853+391915083+392214442+392716513+393226705+393413173
2818+392936250+391862954+390709915+389958118+389719250+389807295+389928369
2808+389889535+389674250+389232792+388443153+387455195+386698315+386342134
2798+386094242+385659401+385063630+384401021+383595079+382657024+381970592
2788+381955491+382483190+382976146+383075351+382850050+382423721+381810775
2778+381125124+380588431+380193928+379608926+378658629+377724304+377355068
2768+377610179+378010248+378052962+377676236+377195131+376756560+376090883
2758+375084185+374226325+373983817+374081759+373893877+373254941+372539120
2748+372163357+372208988+372415520+372445089+372066528+371181264+369946738
2738+368831872+368256856+368181355+368233334+368195402+368185145+368321830
2728+368363431+367882146+366839562+365775321+365284951+365377839+365443806
2718+364961197+364174476+363756781+363875358+364048049+363879900+363474117
2708+363114055+362876030+362592733+362117585+361590608+361255032+360991558
2698+360374160+359285373+358119099+357281663+356849469+356783202+357085148
2688+357607102+358026662+358157211+358036288+357687085+357102805+356425276
2678+355843884+355405193+355107969+354960485+354813723+354440126+353870014
2668+353379163+353137979+353098424+353183792+353375644+353590838+353630665
2658+353344872+352814977+352294166+351954349+351767791+351622653+351444367
2648+351208869+350933995+350636320+350251442+349702416+349104450+348734612
2638+348695568+348774048+348738162+348606711+348505641+348431854+348324888
2628+348231940+348219938+348212539+348083404+347842851+347580852+347305677
2618+346981742+346668576+346499886+346530237+346648001+346662259+346497058
2608+346235841+345929533+345524983+345093631+344933875+345245326+345800308
2598+346138742+346080566+345813904+345474388+344987057+344413846+344065907
2588+344096168+344307001+344486580+344640682+344819028+344961157+344962932
2578+344776976+344485106+344301677+344379464+344588673+344621581+344329772
2568+343815158+343207204+342556988+341976137+341678312+341783443+342182458
2558+342661638+343105443+343519077+343874747+344037150+343937524+343733399
2548+343642557+343670892+343646257+343483071+343279367+343150834+343080356
2538+342977361+342813212+342659231+342633092+342810896+343139554+343441951
2528+343580050+343593315+343633683+343807066+344085189+344325290+344376667
2518+344179340+343772654+343307402+343056111+343224049+343706147+344177535
2508+344403468+344311182+343881455+343229975+342678453+342462386+342458656
2498+342450775+342510424+342798082+343139313+343177305+342869673+342539542
2488+342485337+342709135+342974864+343059299+342954590+342815559+342758917
2478+342783463+342818837+342785869+342673941+342573202+342585324+342754796
2468+343075693+343423662+343544254+343323134+343008554+342955282+343199143
2458+343444297+343429348+343195022+343000462+343026723+343182388+343218184
2448+343010329+342663232+342358819+342212178+342260396+342466176+342706999
2438+342837969+342803918+342711240+342785719+343170206+343709275+344061756
2428+344128173+344182348+344417365+344608556+344502132+344302248+344406717
2418+344816652+345162575+345246138+345261389+345459047+345803948+346069978
2408+346181636+346308906+346602008+346973049+347221813+347312746+347462727
2398+347934566+348737049+349568018+350066900+350103598+349894961+349860007
2388+350192064+350552276+350397723+349553489+348199303+346443245+344247021
2378+341694586+339078260+336671324+334479371+332273221+329880121+327373409
2368+325048441+323387105+322825927+323261730+324100640+325043027+326413816
2358+328553068+331369999+334797019+339235911+344713987+349791334+352451547
2348+351922193+349236623+346432476+344962631+344788557+345263615+346008734
2338+346734422+347049212+346689271+345876080+345335958+345695899+346872761
2328+348274083+349393762+350012544+350270603+350764612+352095035+354168350
2318+356264708+357716233+358270764+358075182+357627887+357519057+357999199
2308+358899713+359935679+360909289+361699228+362277281+362740638+363202942
2298+363643709+363969088+364246278+364705514+365433849+366259193+367017367
2288+367696971+368221181+368369507+368083233+367625922+367304754+367187441
2278+367178146+367215476+367256235+367157030+366743305+365997043+365080526
2268+364213100+363601266+363373859+363446804+363541226+363468251+363310690
2258+363263614+363456128+363956605+364716614+365479571+366001825+366389019
2248+366941474+367648362+368125766+368130429+367877634+367715471+367664094
2238+367422248+366760060+365820622+365037240+364753282+364908857+365149560
2228+365266211+365386833+365634936+365828112+365765514+365640170+365845107
2218+366498391+367441770+368542318+369730010+370902420+372020535+373175980
2208+374455537+375861130+377381389+379043266+380885444+382904706+385041822
2198+387241385+389474547+391670470+393718609+395551943+397158653+398591559
2188+400007409+401543641+403123580+404494610+405467047+406105381+406699407
2178+407473734+408334964+409004461+409328126+409364493+409268055+409140094
2168+408944180+408583638+408050915+407426177+406746964+405934434+404868388
2158+403548404+402116280+400674531+399226254+397799755+396460098+395266933
2148+394305024+393655350+393539270+394635787+397711018+402677579+408574914
2138+414570342+420431221+426202339+432026249+438006787+443953936+449601695
2128+454955179+460061312+464834997+469375320+473942955+478458582+482423859
2118+485467867+487767537+489758372+491579525+493228768+495254587+498669816
2108+504026217+511076922+519416990+528894755+539119776+548973485+557020029
2098+562316511+564759333+564927602+563502638+560651024+556347975+551052877
2088+545193713+538425883+530245783+520706052+510112668+498873519+487664843
2078+477086769+467406563+458781154+451291787+444882635+439557638+435349702
2068+432036927+429197075+426483891+423807435+421426217+419676385+418529603
2058+417762044+417377738+417422166+417731753+418149629+418593674+419015821
2048+419720363+421365545+424382931+428825012+434778718+442474195+452028214
2038+463299277+475956381+489694121+504218460+518766834+532041818+543080992
2028+551767706+558333275+562935202+565645860+566652046+566625275+566383790
2018+565917846+564509546+561861817+558296277+554116918+549515051+544676151
2008+539506308+533668321+527179576+520603899+514454641+508715798+503123687
1998+497691784+492770374+488706133+485480681+482602476+479549144+476449518
1988+473987504+472599509+472095001+471950405+471748597+471492372+471579906
1978+472322258+473572697+474949864+476220186+477424902+478872397+480878122
1968+483232599+485191429+486348227+487187859+488476891+490471727+492884198
1958+495320312+497576577+499667369+501694632+503711246+505783629+508082006
1948+510717102+513654444+516918218+520459513+523688635+525836911+526997590
1938+528120127+530019518+532792442+535937098+538798699+541034027+542733625
1928+544289619+546320582+549259007+552641719+555453326+557588667+559873989
1918+562296236+563667417+563603888+563344114+564197252+566315688+568878411
1908+570851318+571653380+571564523+571593400+572643263+574658343+576783577
1898+578380180+579433111+579991823+580051563+580082064+580711705+581763193
1888+582456484+582556110+582430916+582301811+582177038+582106710+582109116
1878+582116937+582032833+581794356+581678487+582389224+584230019+586078515
1868+585956569+583412556+580159852+577876034+576765288+576028321+574891345
1858+573108665+570923331+568828538+567232657+566274538+565908822+566052666
1848+566716719+567910005+568943023+568184518+565016219+561178332+558617474
1838+557544509+556773671+555517397+554612762+555319830+557187095+558048415
1828+556770844+554344927+551586502+548309974+544737335+541794277+540091009
1818+539519543+539549563+539732211+540107433+540925497+541863281+542054953
1808+541238272+540270468+540256932+541604289+543788180+545683601+546418523
1798+546269265+546513878+548310876+551496622+553989257+553611990+551296287
1788+549810680+550404165+552413831+554873558+557564663+560316350+562462581
1778+563832137+565527283+569096794+574880456+580552580+582646772+580973103
1768+578171242+576275882+576202065+578101155+580793103+582316069+582412928
1758+582448302+582919179+583655485+585525398+589698259+595334167+599417088
1748+600382847+599972010+600264511+601612771+603481119+605509675+607407202
1738+609412115+613032581+619240496+625045094+625676901+622253822+618595273
1728+616099209+614928964+615153905+616535674+619074272+623660738+630920321
1718+638900087+642965802+641234680+636861724+633177849+631688813+632863870
1708+636473869+641284674+645479373+648908469+653632823+660492097+666038726
1698+666824845+664235351+660436328+656888355+655241157+656063192+658543254
1688+662252637+668254623+676376428+681463069+679472113+674883361+672555987
1678+673452741+676493981+679956466+683051309+686792458+691663965+695239792
1668+694801402+692297517+691534620+693189097+694815840+694477256+693422941
1658+694009267+697818337+705852428+716315865+721299692+718915947+717217552
1648+719290266+721347700+718755078+713300013+709224792+707993665+709602962
1638+713834119+719062919+721129858+718122970+713962501+712356273+713598470
1628+715904065+717994707+720509000+724155336+728179360+732228832+737733229
1618+745498823+752791253+755307351+753538508+750927357+748888754+747088086
1608+745237966+743677219+742722350+742372696+742952885+745175880+749126930
1598+753985201+758961147+763585634+767093961+768741580+768814254+768382722
1588+768320335+769069395+770742463+772895611+774613979+775601997+777049763
1578+780411238+784727041+786464119+785337611+785081327+787225031+789432865
1568+789337090+788251070+788357855+790504025+796093369+807741429+824306838
1558+833614710+829467477+822753009+820347908+821861429+824419579+825802612
1548+826290635+827963942+832064792+838090961+845133364+850975202+850418836
1538+843633079+837841475+836116369+836094771+834603931+832300200+832174645
1528+835252342+840099664+845000048+849906268+854979493+858557125+859596641
1518+859837344+860416029+860403214+859873801+861103304+865946294+874439952
1508+885025455+893043423+893212354+888570540+885261886+885685056+889395704
1498+893612121+894660240+892460587+890955428+893051605+898508595+904902406
1488+909617255+911909856+912680995+912841563+912983903+913826393+916083740
1478+919945150+925032092+931139719+938019989+943461698+944275551+941133181
1468+937679480+936063265+935500402+934005049+932037436+932135558+935103282
1458+938223633+937274780+932749256+928443079+925519573+923778766+923157727
1448+922797425+921077012+917967309+915673805+916214770+919614808+924805587
1438+930812325+935318536+934948007+930598454+926959458+926632004+928137583
1428+928463714+927213396+926387029+927173570+929211330+932176708+935902877
1418+938767365+938423366+934729383+930207049+927736914+927878712+928988676
1408+930420980+933190234+936928675+939020641+938250645+936159762+934239134
1398+933339793+934516294+937623410+940361561+940854156+939668029+937856954
1388+935388503+932380712+930537872+932058673+937225448+943916693+949414653
1378+952362223+953059003+952833160+953583664+956503801+960649650+963415474
1368+963424318+963200460+966516635+973114872+978306252+978770271+976943013
1358+977210427+981580314+989045466+995982528+998567389+997013440+995518328
1348+996722203+998724890+998947243+998717911+1001060867+1005951324+1010688793
1338+1014052735+1017078213+1020414841+1024277274+1029556850+1036724869
1330+1044428437+1050485770+1053843696+1055005999+1055377792+1056432287
1321+1058245047+1058803458+1056874708+1054339780+1054036691+1056984321
1312+1061723534+1065013358+1064536044+1061824965+1060837609+1063363393
1304+1067844036+1071875039+1073741823+1073268479+1071373299+1067867739
1295+1061675526+1054335809+1049928923+1050024218+1051622926+1051444610
1287+1049622465+1047248527+1043522057+1037412745+1029773308+1022405196
1278+1016536406+1012661941+1010585196+1008977283+1006009860+1001072718
1270+994991261+989004797+984194233+980849062+977928143+974136399+969393516
1260+964321554+959410281+955408215+952606354+949359305+943700416+936382417
1250+929625416+923500162+916252130+907459774+898376602+889724060+881098230
1240+872203601+863347536+854783490+846626732+839391935+833869009+830457300
1230+828734720+827578192+825904163+823500144+820909868+818418256+815761743
1220+813085257+811347637+811204154+812299619+814181925+817013625+820836954
1210+824960423+828466103+830825001+832141436+833247790+835183819+838207192
1200+841707578+845247309+849153297+853542496+857196352+858683764+858699766
1190+859865198+863737016+869165189+873967571+877155964+879124660+880847179
1180+883318337+887069112+892195760+899118142+908532679+919738077+929922429
1170+936811843+941435188+946325705+951743832+955572875+956624242+956303947
1160+956717912+958454028+960577156+962452483+964655325+967680923+970408726
1150+971322085+971464666+972923681+975008187+974786976+971571451+969322045
1140+971825449+978462610+985816344+990136780+989677754+987042959+986906816
1130+989860703+991494244+989143347+986109748+987023768+992616420+999502887
1120+1003711664+1004087789+1002279480+1001075004+1003422352+1010415664
1111+1018076999+1020085041+1015627620+1009432639+1005129410+1003351964
1103+1004200409+1007045646+1010290891+1011861805+1010035569+1005575561
1094+1000460043+996203016+995012618+998450016+1004222669+1007907327+1008673051
1084+1009194523+1009347572+1005214356+996141833+987572313+984292536+985010312
1074+984388251+979591163+973183575+969480388+970323659+972769068+971126503
1064+964486935+959202426+960993227+968590853+975513897+976656227+972408887
1054+965923631+959619219+954316962+950201313+948263780+949963438+955061149
1044+960922779+965227693+968096573+970525077+972030115+971244418+968395631
1034+965057980+961586110+956936235+951664419+948966035+951154077+956749376
1024+962140310+965122231+965684673+964635592+963194865+963144571+965778403
1014+970287202+973721892+973229357+968470712+961122272+952353439+942815694
1004+934161226+927737275+922774985+917876106+912818221+908139048+903454761
994+897187588+888521329+878689338+870114162+864283816+860283675+856038741
984+851501066+849205096+850766625+854337459+856498188+855684455+852632567
974+848167626+842483529+836459345+831845326+829570412+828666197+827503353
964+825401400+822677568+819849116+817363640+815567244+814483450+814046624
954+814660563+817076433+821511595+827280698+833533914+839790198+845678540
944+850773724+855002775+858738209+862205627+865417001+868934112+874007698
934+881461419+890475527+898859391+905043663+909253403+912708067+916122483
924+919086658+920543387+919688685+916807352+912942393+908952961+905449928
914+903445857+904065271+907007787+910045418+911053229+910263981+909385275
904+909124659+908939425+908273206+906912734+905813418+907146819+911736292
894+916815233+917954074+914369764+910385325+910992226+917875263+928590713
884+938370184+943773752+944883475+944037676+943461759+943979922+945087058
874+945690650+945079177+943474813+941566699+940068037+940235886+943413450
864+948649891+951846225+950094648+946099682+944665091+947095039+951474131
854+955797936+958670305+958902405+956994892+955884687+958018344+962778434
844+967690669+970910406+972543707+972624322+970910707+969662073+971566457
834+974712738+974452904+970686849+967693437+967698069+970081332+975061489
824+982927010+989701518+989875201+985291984+983680642+987751471+992693065
814+994994149+997664559+1003263468+1007760174+1005715916+998259066+991980583
804+992582851+999721330+1007147257+1009831504+1009622626+1010255155+1010779876
794+1008481139+1004498084+1001646410+999473228+994914677+987501744+978999303
784+969922809+961090507+954435538+950757077+948636655+945749788+941522180
774+937572875+935520796+935444814+936538474+938811583+943665041+951612320
764+959925376+964920874+965760235+963719346+960092201+957163943+957398329
754+960628774+964801696+968163772+969140961+967546885+966863641+971190453
744+979355213+984490464+981084290+970754108+960205604+956154147+961299505
734+972471394+982798868+987810549+987955055+985454057+982124467+978099180
724+972892217+968585739+968577798+972370203+975041756+973613663+970003544
714+966047743+962696435+962319528+965892107+971813838+978905152+986648486
704+992516674+993516002+990498646+986183444+981226149+974929978+966804323
694+956768989+946336233+938900981+937078596+939921125+943593390+944293359
684+941818892+939357721+937645489+933416498+927366745+925426986+930177991
674+938001219+941750429+935898425+921709300+909076170+909652629+921425282
664+932631943+936357811+932495138+925319118+920373373+920890213+926421502
654+933792983+938781141+942592137+947941439+946314034+930922720+912659698
644+903864936+903860484+905614407+906734959+910320653+919425061+933268082
634+944325244+943441244+927648838+906350412+891757309+888314918+892612492
624+895201204+889157468+878086408+870043233+868619833+872501577+878670869
614+883416640+883142367+877628526+869634020+866463435+876842828+896416449
604+907725263+898721684+876086909+857862270
##END=
