##TITLE=<SNM>
##JCAMP-DX=4.24
##DATA TYPE=INFRARED SPECTRUM
##DATE=29/4/2025
##SAMPLING PROCEDURE=Instrument type and / or accessory
##ORIGIN=Admin
##XUNITS=1/CM
##YUNITS=ABSORBANCE
##RESOLUTION=4
##FIRSTX=4497.3318
##LASTX=599.83466
##DELTAX=-1.4281778
##MAXY=2.2367759
##MINY=0.6933381
##XFACTOR=1
##YFACTOR=2.0831599e-09
##NPOINTS=2730
##FIRSTY=0.69840169
##XYDATA=(X++(Y..Y))
4497+335260726+333793614+333216383+333644056+334374021+334727101+334439115
4487+333539906+332829999+333761082+336757995+340453085+343276063+344812703
4477+345243151+344493672+342643781+340591484+339405434+339209180+339280454
4467+339226720+339266863+339422230+339454677+339574506+340380867+342070442
4457+344076243+345580980+346263105+346249285+345527217+344135900+342732967
4447+342205236+342675741+343343016+343388024+342940780+342869992+343485993
4437+343858415+343115374+341823887+341328288+342114705+343241327+343704823
4427+343795210+344108518+344083110+343112055+342083947+342078081+342758832
4417+343441672+344193583+344869327+344675334+343198494+340969514+339010351
4407+338153003+338644625+340330795+342810364+344993477+345397688+343732262
4397+341346113+339519227+338430603+338024675+338653724+340418035+342681235
4387+344790814+346681192+348044183+347620373+344703574+340860786+338389915
4377+337562696+336924377+335913952+335495807+336347175+337995576+339574449
4367+340431883+340058460+338378928+336306231+335122470+335230425+336133754
4357+337301778+338303620+338679561+338558758+338771064+339826269+341389919
4347+342860979+343790632+343842249+342989622+341636331+340235658+338770721
4337+336870757+334840893+334133761+335707598+338183619+339166948+338424766
4327+337832656+338391346+339342057+339893050+340224098+340649282+340748138
4317+339802205+338092974+337259345+338494523+340639410+341340276+340297919
4307+339622346+340487105+341507088+341043936+339494992+338427055+338519616
4297+338973756+338559617+337188415+336240794+336859370+338348570+339179795
4287+339117677+339168322+339942808+341210232+342478744+343196977+343017090
4277+342256567+341342136+339982379+338035119+336603172+336960687+338941195
4267+341147227+342251645+341725402+339883379+337675115+335996671+335148564
4257+335110967+335954152+337600236+339417652+340669425+341365026+342102602
4247+343141040+344192582+344891702+344836137+343595036+341379991+339341428
4237+338710205+339682204+341302822+342481805+342900408+342757717+342100571
4227+341066454+340339951+340377262+340676435+340712144+340926538+341915504
4217+343147220+343256577+341452266+338368513+335657096+334743610+335842907
4207+337997837+339806440+340306474+339658570+338991524+339261913+340261552
4197+340983649+340837667+340155829+339697054+340062208+341332122+342901323
4187+343859760+343710717+342561119+340821272+339063170+337909538+337664529
4177+338079440+338758360+339733964+341184309+342633652+343115088+342260687
4167+340794891+339839688+339845038+340166616+339836254+338792009+338004761
4157+338098496+338400674+338006278+337304982+337785503+340107817+342736314
4147+343415978+341904088+339955626+339163171+339955369+341820911+343545307
4137+343972837+343097005+341887550+341238129+341490607+342295251+342642207
4127+341704601+339696625+337570651+336268376+336322540+337533454+338928662
4117+339547954+339375219+339271098+340043896+341517045+342558086+342289729
4107+341133379+340203125+340079204+340628938+341530235+342438171+342861666
4097+342378886+341116554+339808472+339132212+339064601+339104916+339062770
4087+339245118+339781175+340233483+340110850+339385892+338487828+338040813
4077+338399157+339159681+339431071+338871895+338110113+337928652+338465710
4067+339357251+340142238+340450195+340242668+339886069+339756311+339831047
4057+339780889+339384576+338860736+338767430+339377423+340097917+340073453
4047+339494648+339483861+340413743+341194209+340780728+339606552+338855815
4037+338975330+339496852+339928988+340185929+340255973+340132195+340173483
4027+340920758+342209384+342992168+342471590+340938813+339262686+338140099
4017+337885818+338373120+339121883+339698170+339979146+340054798+340127846
4007+340422384+340916953+341286570+341390606+341517045+341839252+342092216
3997+342128582+342200715+342310044+342002086+341319618+341063993+341562510
3987+342101400+342130385+342106694+342595483+343292028+343521158+343365134
3977+343674693+344776393+345754888+345584814+344438650+343206133+342371990
3967+341855275+341473211+341237214+341285598+341577475+341760281+341553040
3957+341070974+340539209+340042580+339793650+340128160+340964650+341748864
3947+342320344+343254203+344766150+345961213+345915748+345000716+344268005
3937+344202453+344874649+346407913+348299235+348934893+347249610+344617479
3927+343409598+344096701+344876881+344257761+343218437+343721504+345960698
3917+347875225+347358396+344683660+341927436+340525961+340355974+341111118
3907+343617897+348843934+355631732+360521656+361293853+358953170+355067205
3897+350517743+346803740+345576631+347009522+349388460+350811766+351513719
3887+352895794+354779391+355371329+354600677+354497729+355169095+354577815
3878+353010989+353091962+355530186+358409015+360259450+361093565+360789442
3868+359641246+358862955+358520433+357011032+353671883+350164349+348328220
3858+348871230+352417935+359505394+366758891+367463448+361889167+355137364
3848+350309872+348323270+349209889+352656994+357782800+362820222+365429549
3838+364300982+360886696+357665145+355439570+353802757+352713790+352885780
3828+354497185+356260695+357332723+359163215+362825372+365535387+364624104
3818+362091029+359892637+357049716+352817110+348761043+347143601+349305226
3808+354405510+359504363+363216678+366847132+369959526+369728050+366532537
3798+363509986+361138773+357890984+354088082+351887171+352399222+354914901
3788+358255566+361506417+363700689+364571600+365411781+367608657+370777332
3778+373352267+374728905+375971351+378995675+385026270+392657110+398246870
3768+400036789+399667486+399072544+399279099+401193425+404897042+408584120
3758+410232836+410590179+412347251+417421240+425503416+433115858+436878159
3748+438489335+441254487+445550928+448164032+447587745+446879297+449071767
3738+454686334+461737140+467223923+469887213+470455803+469808357+468805199
3728+468815814+471139158+475582354+479826605+481238495+479620194+477269840
3718+475923416+475220547+474814849+476131029+480506470+485916313+488222547
3708+486174857+482092924+478975895+478437520+479924975+481435292+481530858
3698+480181488+478647966+479213695+483927451+492837532+502858814+508123992
3688+505074975+497296121+490457936+487402223+488034677+490527179+493440114
3678+496801066+500158756+501405121+500376269+499562240+499541124+498200909
3668+494516521+490201052+487306028+486723189+488225408+491021833+494369910
3658+497165648+497531775+495423025+494275831+497252687+503530581+507773945
3648+505441445+498641257+491844789+487396158+485666640+485708986+486224757
3638+486773948+487769896+489429484+491568277+494701987+499782214+505048537
3628+505338039+499746505+493567440+491188473+493616425+499131620+504313937
3618+506865552+507720497+508302649+508358501+507484042+506509897+506280481
3608+506129178+504642982+501887988+499725675+499871085+502202669+504998751
3598+506710243+507010504+506631501+506848499+508646859+512153449+516455241
3588+519448635+519177673+516123907+512511908+510052196+509575224+510929859
3578+512378630+511978168+510022611+508638390+509391187+512457944+517084318
3568+521307081+522440427+520016252+516352464+513643594+512166840+510958586
3558+509836972+510046302+512485641+516101932+518780130+519940886+521032114
3548+522818113+523790084+522296505+519071521+516190631+514847384+515003723
3538+515698723+515423184+513537498+511321223+510495291+511227774+512416742
3528+513154089+513015146+511772443+509986272+508748033+508026137+506824407
3518+505137808+504206296+504936890+507025783+509341516+510736095+510863306
3508+510370483+510244072+510915210+511511382+510344617+507252109+504461349
3498+504003776+505532262+507350879+508480734+509022314+509628500+511114411
3488+513484794+515268046+514813392+512215824+509150098+506983722+505745540
3478+504987249+504761667+505063988+505082128+503948496+501926157+500131574
3468+499228388+498861346+498124914+496441062+494218091+492647602+492701222
3458+494123440+495531639+495833502+495175469+494114342+492708547+491035625
3448+489666053+488958750+488543523+488018596+487738136+488385582+489965227
3438+491695832+492924057+493674051+494109020+493898030+492391862+489679730
3428+487076841+485971993+486501441+487594844+488192504+488306039+488790679
3418+489870347+490328264+488961668+486470082+484822282+484866688+485696511
3408+486138977+485771419+484698446+483354683+482574704+483010073+484160014
3398+484783769+484627315+484644597+485291128+485788873+485522890+485259482
3388+485941721+487023793+487179961+486391569+486064698+486951804+488309930
3378+489189424+489380156+489156520+489004759+489363103+490175472+491222465
3368+492739792+494870115+496903327+497897558+497707399+496959179+496508531
3358+496910080+497922509+498791588+499372539+500200588+501071155+500965975
3348+499897408+499218488+499671941+500612437+501328897+501893882+502488910
3338+502725307+502159865+501089639+500271089+499982788+499742843+499018372
3328+497787171+496470590+495832758+496387270+497348883+497212630+495962373
3318+495325742+496409760+498503574+500206310+500619591+499734660+498244572
3308+496786588+495560995+494624562+494136545+494448651+495866521+497711290
3298+498218935+496647416+494777582+494957727+497384820+500182562+501572562
3288+501367524+500672181+500783713+502048962+503381623+503456188+502530970
3278+502077518+502717410+503781570+504452250+504114221+502469282+500313150
3268+499032335+498950388+499354341+499899983+500556586+500757503+500126481
3258+499366988+499189418+499058143+498016129+496245924+495018329+495337874
3248+497004616+498790272+499229132+497664766+494944222+492568231+491279061
3238+491085353+492022073+494031766+496429617+498114843+498179908+496378744
3228+493574765+491383211+490729641+491135769+491658407+491938124+492117067
3218+492280502+492271117+491907680+491243066+490484031+489715324+488912397
3208+488076394+487081877+485706526+484117953+482899743+482450639+482641543
3198+482990502+483220204+483678235+484600534+484967290+483473082+480830593
3188+479158615+478999100+478884506+477879746+476700763+475998381+475412910
3178+474700656+474231609+474082652+473777241+473081182+472324979+471776304
3168+471216527+470350137+469279997+468355294+467692912+467079630+466333899
3158+465603076+465253143+465488225+466068860+466485002+466347776+465476064
3148+463916162+462182323+461051439+460741135+460728774+460512921+459898007
3138+458717250+457094601+455704342+455159444+455487344+456430359+457720902
3128+458916766+459472738+459118142+458013981+456682436+455791840+455556329
3118+455377958+454541783+453116446+451763041+450849183+450253840+449939817
3108+450151006+450938454+451871282+452316724+451966190+451225324+450876365
3098+451082776+451148184+450526719+449409024+448118738+446846650+446088502
3088+446376402+447449146+448393591+448633107+448274477+447665829+447089428
3078+446722357+446541869+446315428+445862176+445204344+444471431+443845302
3068+443539833+443723040+444355178+445017675+445079736+444293747+443026781
3058+441654720+440188267+438813230+438095025+438207673+438606132+438764989
3048+438703158+438688079+438850942+439056638+439006938+438597319+438007757
3038+437306719+436415150+435575685+435226983+435244436+434871814+433665106
3028+432151127+431260674+431306454+431846174+432423261+432958317+433381469
3018+433394745+432768988+431617931+430339720+429340224+428744395+428493491
3008+428706340+429488351+430356201+430487103+429683203+428558957+427777947
2998+427579747+427856460+428235348+428243503+427697030+426840025+425986597
2988+425213169+424525351+424096333+424025059+423966089+423473093+422731798
2978+422399834+422651969+422951400+422867364+422610852+422559464+422627905
2968+422336229+421387148+420039694+418860941+418233895+418265941+418929840
2958+419895315+420559156+420606138+420238781+419754827+419253534+418716647
2948+418099330+417381239+416623463+415949035+415540876+415657215+416338281
2938+417057831+417142210+416586152+415939765+415489316+415136065+414875547
2928+414714000+414309504+413388922+412359154+411923527+412247765+412870318
2918+413242683+413121222+412605051+411984157+411501290+411174105+410846004
2908+410410892+409985080+409811716+409929142+410041446+409870229+409534116
2898+409344043+409258834+408879059+408094473+407377383+407210400+407558845
2888+408044429+408299368+408171612+407884685+407794183+407811809+407558358
2878+407145421+407129970+407626656+408119223+408223086+408089122+407982569
2868+407867432+407516155+406866534+406190132+405869871+405999915+406271763
2858+406321263+406107355+405850014+405669668+405461082+405164799+404989346
2848+405147717+405418621+405248891+404390828+403225894+402347429+402024479
2838+402157012+402541394+402950411+403061772+402666145+401988856+401470224
2828+401153196+400650530+399835757+399167481+399127108+399661735+400306005
2818+400602804+400432616+400079336+399848461+399630376+399107824+398339289
2808+397754790+397580368+397623401+397629896+397508951+397189777+396599899
2798+395827588+395059597+394447630+394149115+394229802+394491779+394717304
2788+394962400+395246180+395245264+394697619+393812974+393019146+392575021
2778+392478138+392483603+392269695+391753552+391150141+390729736+390665100
2768+390983501+391465710+391702136+391447254+390902327+390505785+390455513
2758+390541579+390433910+389988498+389267117+388507623+388105216+388322700
2748+388913722+389226115+388829344+387951051+387167723+386802083+386792040
2738+386988151+387265550+387421431+387288526+386919766+386497673+386163678
2728+385950514+385761957+385534430+385448792+385720011+386173578+386346084
2718+385985307+385213825+384326720+383602563+383150799+382880352+382745759
2708+382882985+383284763+383564480+383374664+382899179+382578060+382456771
2698+382175795+381578679+380973293+380746939+381018787+381647206+382298687
2688+382550821+382151589+381195642+380058405+379246265+379114074+379486925
2678+379768101+379629416+379322260+379170069+379147894+379094274+378968837
2668+378784514+378563081+378424568+378492265+378694413+378826775+378773699
2658+378563024+378283078+378008340+377747565+377459750+377136428+376783606
2648+376344660+375821936+375454607+375547884+376071209+376568696+376577337
2638+376105573+375582505+375359012+375431946+375627256+375794525+375826199
2628+375711148+375528084+375276865+374911168+374584440+374546929+374755401
2618+374878864+374749049+374599090+374760494+375201528+375525137+375482247
2608+375238210+374970224+374544497+373849697+373159618+372870144+372999273
2598+373191149+373222852+373277616+373573042+373955821+374172447+374289158
2588+374443924+374488016+374290274+374066066+374032617+374052532+373917166
2578+373721198+373685976+373765032+373684259+373389892+373220363+373460966
2568+373930213+374245266+374297284+374210330+374042403+373788323+373521453
2558+373347488+373309634+373387002+373505945+373585832+373638422+373752271
2548+373932817+374040515+373941572+373651097+373273897+372885137+372562873
2538+372436177+372529196+372626136+372500069+372237720+372113741+372201239
2528+372374345+372634691+373124281+373806864+374395969+374627846+374453595
2518+373985864+373375128+372744335+372222984+371999348+372194686+372663161
2508+373086398+373302509+373392897+373466689+373528520+373557963+373567863
2498+373544715+373423484+373231407+373175212+373406488+373771585+373971930
2488+373916136+373740654+373544744+373297960+373008486+372837755+372965796
2478+373370092+373830069+374161059+374294995+374148298+373694502+373186457
2468+372989173+373141106+373360135+373496703+373667921+373912788+374035937
2458+373878653+373526804+373192523+373021391+373016469+373076785+373109660
2448+373105597+373122822+373280535+373700625+374301891+374745215+374754399
2438+374407242+374000972+373789725+373888467+374197054+374409446+374308643
2428+374007667+373746177+373581769+373441910+373335156+373351036+373525631
2418+373820169+374184293+374582151+374973887+375287195+375439213+375430344
2408+375387825+375482905+375824053+376396448+377049617+377593371+377960385
2398+378227398+378514268+378999910+379955514+381609151+384121396+387822981
2388+393252424+400811418+410598048+422676747+437230180+454189591+472810163
2378+491918152+510764364+529453206+548355842+567402400+586122029+603848343
2368+619321186+630475698+635935213+636961319+636100365+633806721+628180852
2358+617694787+602441747+583251898+561886403+541719261+526443331+518253028
2348+517734625+524304767+535630955+547488422+556303968+561472436+564416044
2338+566666483+568808881+570676884+572329034+574272173+576587277+578325379
2328+578228038+576185727+573229129+569846432+565442264+559758140+553567114
2318+547539811+541580891+535583001+529868433+524552782+519005254+512386470
2308+504596400+496319172+488245265+480652222+473636810+467273966+461416793
2298+455723856+450063623+444663136+439767890+435379230+431399359+427792511
2288+424506409+421426004+418531295+415963370+413829098+412065789+410584142
2278+409414973+408642318+408258823+408069437+407766658+407236094+406693971
2268+406337687+406028156+405526262+404814037+403976889+403045205+402134237
2258+401499552+401305787+401445131+401603787+401485760+401055742+400567124
2248+400263029+400105259+399898705+399599789+399390373+399479358+399881394
2238+400367293+400625093+400516680+400190811+399933641+399919277+400068349
2228+400091554+399745312+399134462+398651252+398500664+398431192+398085838
2218+397475703+396922135+396647368+396586308+396528282+396326363+395998720
2208+395688788+395529845+395529959+395587042+395608415+395585525+395543722
2198+395478085+395418141+395516168+395901294+396433546+396829773+397086571
2188+397513987+398258601+399076321+399686256+400062884+400255018+400205804
2178+399928319+399678817+399781708+400320083+401072737+401731199+402114408
2168+402211777+402163650+402224138+402567374+403070670+403446726+403619832
2158+403784955+404063843+404306163+404311628+404111998+403945215+404012998
2148+404322129+404742677+405136701+405389179+405429608+405325659+405265258
2138+405358992+405578051+405901602+406310791+406641438+406730567+406712827
2128+406895890+407348427+407823969+408097935+408240340+408506065+409007987
2118+409593058+410082649+410486458+410867121+411190901+411470503+411864385
2108+412483304+413225486+413871302+414251478+414327101+414207672+414113422
2098+414253767+414679293+415262848+415880165+416572189+417443529+418441251
2088+419322319+419840436+419972541+419967476+420082384+420280098+420324218
2078+420142500+419935144+419953599+420287651+420817986+421332899+421741802
2068+422155883+422720467+423419359+424055675+424415965+424514850+424641547
2058+425035113+425598095+426092321+426469234+426800025+427058340+427225981
2048+427481119+428047163+428925713+429912505+430814889+431578531+432269984
2038+433002924+433835523+434711584+435552108+436395465+437348150+438407532
2028+439449060+440398026+441308822+442262481+443325611+444648772+446373884
2018+448304463+449920560+450929813+451600035+452414922+453627210+455179101
2008+456829047+458312582+459519977+460566426+461679514+463013634+464549044
1998+466222110+468158211+470555060+473207421+475420177+476700420+477335706
1988+477951278+478780643+479665717+480518830+481509914+482878283+484679791
1978+486653088+488351476+489585251+490688954+492200215+494342556+496857891
1968+499232852+501139653+502752661+504507530+506543889+508601994+510463931
1958+512255596+514241883+516492666+518833922+521109425+523402326+525815056
1948+528141089+530190382+532335069+535052008+538003628+540413496+542300326
1938+544342923+546747298+549121687+551246574+553353149+555725936+558422274
1928+561383794+564620109+568032735+571063154+573108899+574512233+576305500
1918+578802465+581245467+582983912+584158002+585186683+586418170+588124111
1908+590267367+592385845+593977793+594950336+595676124+596694332+598329486
1898+600502499+602735942+604360566+605110675+605500607+606179928+607075503
1888+607637798+607781490+607908874+608245930+608750027+609356958+609979454
1878+610501005+610947018+611446422+612155271+613560036+616201724+619424305
1868+621178430+620366233+618163977+616042752+614435639+613377087+612956024
1858+612973706+612939715+612526034+611754123+610934600+610449044+610473365
1848+611137464+612634075+614353578+614412921+611849460+608260465+605605844
1838+604369036+603809659+603151512+602727931+603538984+605420206+606580733
1828+605962701+604436504+602624124+600097001+597003348+594383749+592816293
1818+591961062+591298623+590834469+590907775+591351613+591223143+589858550
1808+587909287+586732336+587200553+589241319+591817999+593360276+593046796
1798+591743606+591129751+592255429+594826444+596865092+596073667+592978126
1788+590426167+590206422+591775481+593533554+594790563+595844881+596862689
1778+597911570+599533562+602374508+606292433+609911871+611737069+611873094
1768+611213459+610265351+609765660+610660434+612797052+614821337+616125328
1758+617252265+618259085+619127478+621144209+625591296+631378082+635431345
1748+636363315+635554894+634597802+634416055+635613607+637801499+639511217
1738+640696352+643775527+650136339+656222013+656763535+653033366+648917556
1728+645845763+644353730+644822176+646801768+649836651+654692440+662324968
1718+671234363+676547268+675230172+669957096+664673320+661670655+661841186
1708+664874066+669176602+672862879+676025660+680384963+685824564+689155529
1698+688951007+686933989+683653553+679819864+677577493+677697609+679140543
1688+681623431+686814102+695206868+701742446+701006015+696374892+693234772
1678+693588710+696930263+700843324+703056853+704337267+706257459+707551322
1668+706182094+704066649+704595524+707881568+710607606+710349578+708976974
1658+709506536+713240939+720349113+728891866+732708732+730917525+730038946
1648+732450589+734687809+732206638+726650812+722641155+722359092+726133725
1638+733368023+741572003+745513906+742978943+738950573+738231195+741512088
1628+746628481+751584472+756917576+763317245+768786202+771723287+774389753
1618+779687722+786610658+791056314+792546115+793849191+795743117+797126136
1608+797588859+797949607+799052795+801171730+803794420+805714669+806271356
1598+806152442+806189124+806384319+806705238+807703589+809508873+811131151
1588+811774191+812128129+813547830+816421737+819900058+823124471+826214747
1578+829622223+832467747+833002861+832227058+832808638+835036702+836993118
1568+837781968+838778717+840697936+843202169+847693777+857487760+872457821
1558+882045106+879971894+875112442+872706465+871571002+870105635+868746823
1548+868991975+871966600+877241735+882517157+885258360+884444503+880682917
1538+876369680+873877808+873554657+873881012+872800371+870564639+869450807
1528+870387699+872246546+874042845+876586564+880831931+886010986+890671465
1518+894173363+895604623+894274709+891803952+891080053+893987152+900989688
1508+910349446+915858976+912967442+908077776+907181286+909805692+913074740
1498+915230643+917005083+919944742+924542846+930345083+935743825+937809713
1488+935004247+929333971+923948105+920956141+921256516+924764136+931123289
1478+939654540+948324963+954607834+957847240+958839582+957889071+955413909
1468+952355621+949373157+947073275+946208831+947046322+949829299+954961086
1458+960079081+958647706+949992334+941748125+937575376+936586524+936980806
1448+936619600+934132878+930951671+929590512+930219131+931373478+932702419
1438+934411222+935248656+933983806+931955458+931177195+932247135+934502610
1428+936431043+936632018+935125965+933670441+934455400+938113579+942709051
1418+944941979+943858648+941150693+938273524+936738514+938160962+941714019
1408+943962455+942434370+938319704+934930998+933879885+934533398+936030180
1398+937975094+939890880+941162711+941884836+943007423+944783580+946024737
1388+945252254+942485128+939572078+938205368+938843544+941511899+945772203
1378+950126012+952801177+953581729+954208975+956484364+960033301+962205055
1368+961671373+961537580+965701745+973089865+978157731+978525002+978113667
1358+980129254+983335583+985631230+987296599+989479169+992016993+994432470
1348+997430957+1001816927+1006761186+1010607179+1012980538+1014953778
1340+1017333890+1019818609+1022134399+1024773512+1027665446+1029201142
1331+1028011888+1025182902+1023751241+1026078133+1031335987+1035746335
1322+1036409232+1034651387+1034745580+1039221393+1046464733+1053564552
1314+1059827739+1065836616+1070059952+1070135604+1066966242+1063907897
1305+1062523619+1061460489+1059865278+1059447763+1061404179+1063885236
1297+1065065907+1066091497+1068323395+1070911006+1072504156+1072508505
1288+1070968803+1069172503+1069260058+1071715821+1073741823+1070883881
1280+1061559717+1049502706+1040205095+1036120588+1035286244+1034751073
1271+1034443545+1036131575+1039675991+1041746056+1039571955+1034432443
1263+1029368812+1025573864+1022745450+1020729864+1018888814+1015820512
1254+1011643643+1008610820+1007983861+1008500375+1008487443+1006460067
1245+1000287411+989869445+979339889+972486368+967745945+960836342+951058726
1235+941287290+933501570+927904657+923896545+919866401+913696148+904807183
1225+895349456+888349437+884595234+882403336+880329379+878566156+877577418
1215+877182679+877224739+877670581+877830640+876804077+874953528+873516030
1205+872740800+871853752+870837432+870903355+872924378+876374430+879989061
1195+883005689+885666776+888717510+892564304+896781517+900144758+901723316
1185+902487787+904733591+909000647+913043495+915173761+916822534+920341943
1175+925782459+931258284+935317498+937566163+938609436+940471659+944809045
1165+951002359+957505434+963702410+969425848+974209190+977917385+980464594
1155+980942539+979202892+977417809+978250550+982187874+987796061+993843508
1145+999898051+1005694852+1011090504+1015492153+1016696172+1012154092
1137+1002498136+992401776+986541684+986492356+992381403+1004852611+1022671859
1127+1039631813+1047669324+1045170757+1038102183+1032112304+1028440848
1118+1025564365+1023110433+1023286572+1027414113+1032127755+1034039421
1110+1035505416+1040298372+1047833446+1053407984+1052888494+1046704278
1101+1040315998+1038622474+1040846933+1042570099+1040915603+1036192920
1093+1029785984+1023529665+1020479217+1022091252+1024432221+1021406037
1084+1014385189+1011557805+1015888266+1021608500+1023844861+1025818903
1075+1032718090+1043913633+1052936792+1053408328+1045980951+1036105823
1067+1027660525+1022237634+1020482651+1021610216+1022777725+1021302803
1058+1017498927+1013366465+1009992466+1007770639+1006441641+1005089409
1050+1003418661+1002300022+1003488819+1007593699+1012613496+1016722496
1041+1019965678+1021990879+1022755064+1023231178+1023211378+1021263432
1033+1017258925+1013194675+1012072031+1016069327+1025170999+1036437272
1024+1043708538+1040199487+1026889816+1012936818+1005929590+1006816237
1015+1011372853+1014647166+1013304776+1007390664+1001251427+999270634
1007+1001108136+1002658023+1000144692+993436980+986197302+982136257+981065688
997+979669850+975466657+968443406+960235019+952919290+947459088+942995120
987+938414012+934255340+931483064+929322240+926559749+923618831+921224871
977+918431879+913999557+908688255+904298050+901336015+899048380+896765665
967+893756191+889282495+884084956+879880677+877456902+876346618+875880061
957+875961321+876747767+877962029+878624354+877943259+876748225+877153093
947+880532357+886094077+891220541+894017424+896028032+900046330+905590539
937+909746464+912488353+917096414+925049003+934057799+940396522+942751455
927+943618302+945553087+947910766+949264486+950497118+953220580+957689527
917+962088087+963400948+959757761+952852451+946739194+943272261+941285917
907+939469531+937740814+936893766+938180304+941657652+944602748+943774813
897+939436626+935544510+936128093+942139717+951218041+959363765+963584297
887+964412690+964904254+967076753+970630096+974965593+980599417+987173794
877+991787177+991534813+986623058+979736918+973723463+970786664+971917091
867+975464025+978116643+978424400+977709314+975588661+970602857+965089664
857+963190244+966786850+975387572+985682390+992415624+994096214+993722877
847+993787656+993685223+992104891+989138793+986302253+985790317+988266338
837+991942829+994521398+994733589+991890525+986910558+984105720+988386167
827+999311035+1009426509+1012513809+1011057656+1010929014+1014652316+1020664970
817+1024910395+1024661809+1021300170+1018154385+1018146946+1023182308
808+1032580177+1042854737+1050337050+1052609006+1049230772+1042034471
800+1033570975+1026304974+1023150262+1025414092+1029237080+1028153005
791+1020832526+1012528116+1006634490+1001989061+998379408+996915129+997300140
781+998454144+999866005+1001418296+1002709068+1003279146+1003981071+1004094262
771+1000059426+992886244+988831379+990599181+994613759+996529431+995046039
761+990677351+985904767+984927246+988717043+993238408+995681925+997131784
751+998784677+1000676085+1002580998+1004550347+1005105546+1002394902+997001997
741+990043982+982850085+979880668+986916280+1003475200+1018175101+1018303629
731+1006367134+994389780+987484183+983536902+981180825+981299281+984249241
721+990688796+1002087030+1016102174+1024988908+1024681265+1021332560+1023294927
711+1031881686+1039537162+1036022046+1020604998+1003862157+996600276+1000957977
701+1010472929+1016882497+1016524267+1011112821+1004743196+999801111+994858569
691+989198079+986173268+989617425+997641203+1004113719+1006874950+1006113168
681+999147599+987807277+978192981+973395562+972747544+974757179+974718151
671+970142995+965969330+968312245+979215711+987373281+985186362+980018123
661+977209394+975207999+973154644+972087737+970517248+965359309+959563310
651+960348554+970515645+982748109+983319789+968139540+949497908+936480829
641+929063467+928767842+936915970+948589286+955876174+957753333+958041348
631+953358951+940929632+930414726+931369644+940108279+945582902+944833194
621+945633317+951859765+958832544+963687303+969928629+977927227+979356256
611+973788241+964162730+949520340+934705073+927049025+930094551+939706214
601+946466631+936453533
##END=
