##TITLE=<SNM>
##JCAMP-DX=4.24
##DATA TYPE=INFRARED SPECTRUM
##DATE=29/4/2025
##SAMPLING PROCEDURE=Instrument type and / or accessory
##ORIGIN=Admin
##XUNITS=1/CM
##YUNITS=ABSORBANCE
##RESOLUTION=4
##FIRSTX=4497.3318
##LASTX=599.83466
##DELTAX=-1.4281778
##MAXY=2.1935768
##MINY=0.5169912
##XFACTOR=1
##YFACTOR=2.0429276e-09
##NPOINTS=2730
##FIRSTY=0.52698636
##XYDATA=(X++(Y..Y))
4497+257956454+258316866+259220187+260003390+260645352+261438095+262505182
4487+263515608+263748375+262808263+261240135+259972813+259236788+258478443
4477+257392217+256581005+256812722+257865074+258703566+258842036+258850730
4467+259288984+259840500+259999714+260080502+260818687+262122916+262949096
4457+262721435+262138847+262023864+262131815+261801250+261162556+260839256
4447+260926492+261125415+261284716+261108930+260159074+258783158+258248506
4437+259247000+260958294+262095899+262370184+262377128+262348214+261937707
4427+261242644+260878498+260772180+260048175+258559494+257378971+257373924
4417+258307092+259417009+260113938+260123245+259528491+258744091+258195172
4407+257931158+257577806+256949178+256631188+257403946+259217736+261245766
4397+262671631+263011416+262241167+261018455+260227375+260203129+260727628
4387+261422749+261785086+261289326+259969487+258657088+258236107+258776856
4377+259495872+259381939+258067264+256334467+255549251+256319354+257838086
4367+258819599+258796959+258071378+256975087+255804746+254971214+254731445
4357+255045176+255812128+256969952+258398676+259860952+260836922+260566109
4347+258808979+256378961+254400005+253316463+253063886+253760844+255503328
4337+257613780+258816798+258405911+256931439+255648362+255361882+255819334
4327+256244897+256280754+256120723+255895309+255542424+255189335+255010048
4317+254953621+255048122+255457317+256040576+256427043+256524199+256463455
4307+256224707+255725825+255137168+254878347+255282990+256197456+256999069
4297+257180195+256760526+256093239+255581257+255559842+256079235+256793145
4287+257313646+257603861+257862769+258146040+258252212+258080073+257943208
4277+258138688+258307092+257811478+256815493+256250061+256562858+257200443
4267+257576960+258021721+259187568+260752895+261510014+260905515+259725313
4257+259023511+259100740+259575698+259766334+259144125+257998000+257295761
4247+257492846+257957475+257881675+257275659+256777506+256809396+257142908
4237+257257044+257087181+257095146+257417396+257548309+257203535+256801460
4227+256844465+257431313+258328799+259076524+259370152+259495084+259845168
4217+260230788+260330279+260361089+260652733+261116283+261556171+261822694
4207+261573560+260697927+259806072+259540803+259745182+259873148+259723475
4197+259360524+258821933+258274969+258173524+258809738+259757319+260275224
4187+260194318+259943696+259877437+259979641+260079802+260037234+259807852
4177+259548710+259639914+260429944+261790105+262946061+263110119+262402803
4167+261737063+261728747+262083354+262048255+261239085+260019233+259135489
4157+258990571+259377942+259931383+260561295+261285504+261848253+261813562
4147+261051599+259902499+258889505+258539742+259191536+260531536+261653852
4137+262082449+262336719+262937309+263379385+262810539+261372099+260155427
4127+259908859+260335356+260764302+260964946+260933961+260493986+259674750
4117+258996377+258936129+259504537+260397792+261137932+261217699+260595723
4107+259915949+259830113+260280475+260819183+261376183+262118919+262720589
4097+262494211+261321216+259868742+258843261+258519902+258957456+260158869
4087+261797661+263039425+263094130+262129510+261167429+260844420+260768504
4077+260313765+259554720+259077078+259178757+259550694+259682628+259476878
4067+259351596+259701476+260371972+260831758+260853902+260767949+260934866
4057+261287780+261584209+261762504+261795094+261513515+260846958+259932142
4047+258884691+257917241+257637617+258556781+260297164+261896422+262889081
4037+263482376+263754327+263524390+263044823+262992451+263581517+264252859
4027+264402590+264050318+263648038+263468109+263428021+263479838+263836691
4017+264598449+265332841+265377685+264639092+263845590+263782044+264395909
4007+264973071+265160877+265359887+265991666+266858138+267434628+267447553
3997+266910538+265862037+264452948+263169288+262561404+262776782+263555346
3987+264451898+264882187+264382430+263239310+262443853+262597232+263345424
3977+264173471+265057623+265961031+266438673+266194644+265501683+264823164
3967+264471913+264701529+265674405+267239878+268933142+270207874+270638484
3957+270071593+268758056+267338230+266625079+267170176+268646691+269730582
3947+269378719+268287766+268042629+268877211+269348580+268582649+267518976
3937+267408107+268547463+270575026+272847494+274392280+274571655+273966601
3927+273669793+273882165+273855761+273155126+272457993+272750250+274076420
3917+275329270+275286965+273877818+272236050+271542009+272055334+273326653
3907+275146161+277713161+280750013+283273395+284607122+284573161+282951058
3897+280136557+277679025+277119924+278635622+280630537+281031096+279945278
3887+279512947+280822253+282475283+283043984+283096034+282963749+281676325
3878+279491999+278258346+278723150+280047307+281650796+283347065+284212399
3868+284073608+284398163+285721036+286333005+284800910+282128175+280081822
3858+279876715+282972706+290524267+298599772+298815237+291956667+284824455
3848+280876083+280463738+282612528+285984700+289620888+293280620+296534309
3838+297859778+296278784+293140049+290430320+288905402+288149946+287578532
3828+287049861+286787043+287513498+290234169+294360573+296513564+294976918
3818+292617972+291685388+290863585+288606435+286038764+285181862+287097301
3808+291140058+295123032+297893273+300497356+303089301+303915627+302832756
3798+301433179+299984119+298041225+296332352+295888379+296693289+298258499
3788+300525190+303565484+306918197+309970979+312782679+315721966+318568473
3778+320939205+323378910+326966928+332505425+340343699+349725126+358354510
3768+364433465+368375447+371270970+373881734+377234301+381919252+386725225
3758+389729458+391037831+392597031+396060495+401684275+408066662+413574116
3748+418856973+425630057+432795734+436011640+434761152+433699697+436139227
3738+442280532+449936076+455970975+458722485+458867986+458381650+459367043
3728+462930436+467970519+471609098+472229878+470907063+469000143+466888669
3718+465102188+464757385+466904424+471680580+476917163+478336318+474326997
3708+468307853+464358752+463747279+464874293+465279170+464449344+464083738
3698+465547824+468782052+472983526+477477724+482209823+486974250+489936265
3688+488993352+485114770+481132788+479106100+480079647+483908951+489161902
3678+494238455+497767187+498342539+496849832+496470076+498081355+498541520
3668+495143322+489677940+485300009+483194225+482420329+481622800+480647794
3658+479942578+479362441+478853026+479733677+483956917+491569018+498073419
3648+497930690+492292585+486221944+482092273+479451165+477932783+478200503
3638+480203267+482314215+483206566+483679073+485750663+490172708+494238513
3628+493363464+488100389+483632712+483654011+488610620+495522787+499621152
3618+499687382+499284168+500781486+503026294+504496011+505657569+507009648
3608+507416479+505968528+503703938+502406477+503058680+505379521+508056719
3598+510084691+511897460+514334597+516983787+519029089+521172248+524614035
3588+528184430+528773379+525715491+521415168+518093528+516613309+516916332
3578+518098488+518756118+518231473+517348721+517662131+520515669+526372945
3568+533347140+536951904+534854085+530241111+527453919+527498967+528579533
3558+529210320+529608340+530518284+532176712+534554680+537555616+540710310
3548+542938138+542813148+539834852+535624275+532699197+532151679+533116882
3538+533839632+532863809+530048257+527034484+525839139+526608454+527654417
3528+527887301+527809226+527924355+528183497+529066715+531121296+533286804
3518+533497105+531376411+528912199+527902881+527894653+527153055+525149066
3508+523234589+522822448+523825755+524956621+525212262+524841258+524556266
3498+524531583+524905621+526321128+528957188+531439082+531875264+530037229
3488+527488289+525957477+526311675+528367481+530641116+530903992+528243774
3478+524050878+520499798+518892078+519257480+520655598+521868448+522280356
3468+522081025+521622610+521085653+520639376+520466654+520539069+520403458
3458+519636185+518620157+517964453+517238494+515502225+512939980+510668855
3448+509240627+508589708+508818740+509873865+511026495+511390555+510633668
3438+509130925+508015114+508638607+510906407+512495395+511201435+508012430
3428+505948513+506195985+507162647+506960398+505297536+502954696+500715314
3418+498962998+497678200+496781502+496467625+496983634+498294107+500120122
3408+502105613+503823443+504797458+504528921+502748946+500052142+497952805
3398+497840360+499567643+501407721+501787594+500671258+498802938+496564782
3388+494645870+494469880+496333765+498260613+498348725+497268042+496961868
3378+498088124+499781504+500826650+500522344+499250733+498365822+498845360
3368+500258650+501618081+502799829+504344645+506074496+506877713+506097661
3358+504467476+503267230+502835833+502356936+501351820+500828517+502091434
3348+504791098+507174259+508098149+507799970+507121509+507006672+508065939
3338+509813003+511064891+511504925+511736875+511698888+510616338+508680037
3328+507045768+506233155+505881116+505663288+505693456+506182272+506936766
3318+507291372+506787384+505965144+506001730+507208162+508222148+507437428
3308+505162276+503240097+502726656+503272657+504458082+506159690+507703514
3298+508152300+507670603+507588501+508808295+510593172+511346207+510714545
3288+510206472+511205928+513315593+515184730+515932222+515452800+514307930
3278+513527528+513802250+514832575+515617820+515273776+513902149+512613558
3268+512480515+513566333+514787352+514759460+513303981+511794060+511526223
3258+512226975+512734989+512595236+512212212+511962406+511827262+511718611
3248+511581775+511066758+509883785+508664924+508345271+508553005+507964815
3238+506500817+505706760+506684101+508792890+510498875+510930914+510404578
3228+509548901+508453456+507033222+505765521+505373686+505885668+506659768
3218+507145025+507047752+506007157+503868666+501448393+500287651+501109366
3208+502926804+504210902+504557455+504499220+504176999+503179177+501485796
3198+499730388+498474590+497691154+497014502+496123756+494892350+493493239
3188+492335824+491707721+491553204+491772725+492457546+493484428+494141474
3178+493714102+492390325+491019282+489947936+488728871+486975154+484954243
3168+483289689+482415748+482378461+482798626+482912238+481960426+479947101
3158+477945241+477111184+477506987+478346150+479067208+479515907+479414345
3148+478547232+477324141+476450025+476035754+475469300+474110277+471855403
3138+469334093+467828023+468436228+470700584+472624310+472724851+471318680
3128+469468624+467908461+467157731+467460316+468275613+468541116+467659006
3118+465896653+463976516+462623300+462195812+462316280+462131303+461301564
3108+460412627+460047605+460042820+460112930+460471067+461329252+462294543
3098+462598850+461785625+460140968+458453073+457273659+456635782+456513359
3088+456965559+457673721+457945876+457428759+456501514+455854971+455840179
3078+456217309+456355983+455674255+454091656+452185903+450873445+450846487
3068+452038680+453427783+453780610+452950083+451890553+451220320+450683071
3058+450115801+449805163+449738379+449473314+448742569+447580982+446207313
3048+445106061+444636064+444495960+444150136+443557248+443017899+442698859
3038+442636772+442869714+443366933+443938346+444194979+443639496+442081813
3028+440054717+438559442+438264647+438935989+439655121+439680212+438963006
3018+437844628+436745419+436174822+436353671+436696169+436312883+435187940
3008+434241526+434048176+434112889+433736809+433101966+432949930+433518543
2998+434384372+435047137+435117655+434308223+432801540+431317936+430449072
2988+430102081+429681711+428765028+427637751+427003288+427067096+427278272
2978+427123435+426669834+426149216+425557963+424867510+424236431+423840570
2968+423615302+423278084+422702353+422234105+422417039+423301104+424100121
2958+423861198+422603854+421288333+420570864+420172873+419568315+418718707
2948+417928385+417409051+417144365+416912940+416470981+415916373+415708026
2938+416063216+416483410+416216799+415136000+413811522+412841271+412472106
2928+412653581+413056882+413198445+412786070+411828510+410500619+409165404
2918+408345994+408343455+408938093+409576816+409734017+409178708+408166794
2908+407317011+407039167+407119722+407109919+407062771+407477421+408357343
2898+408746756+407684951+405504855+403620896+402981035+403205166+403388596
2888+403317786+403416284+403750934+403793531+403292257+402796234+402906082
2878+403395015+403577803+403307983+402989555+402768050+402427827+401956079
2868+401503354+400932728+400050910+399139769+398742624+399008856+399514886
2858+399664210+399206087+398458070+397975322+397947255+398056053+397958604
2848+397632737+397156349+396513717+395765146+395132667+394815697+394833174
2838+395005809+395022556+394629612+393817933+392795165+391858992+391309461
2828+391282093+391601280+391894791+391841253+391318709+390459328+389566189
2818+388847728+388254023+387640392+387042545+386695991+386733716+386936227
2808+386909297+386492984+385877602+385363052+385152634+385265020+385419683
2798+385142218+384259846+383228296+382712783+382843521+383105231+383021904
2788+382635904+382126402+381440501+380650617+380159000+380153777+380298199
2778+380222633+379904497+379423120+378769488+378036673+377476929+377248597
2768+377246555+377225110+377034240+376687162+376204939+375520818+374644631
2758+373823616+373384924+373432043+373751667+373980700+373845177+373325055
2748+372650999+372107186+371831384+371765476+371716664+371500761+371095768
2738+370615646+370150229+369771231+369630282+369781997+369949643+369768401
2728+369232320+368648506+368258393+368116130+368127392+368038288+367604031
2718+366847028+365988930+365180373+364478338+364000725+363912439+364247847
2708+364811821+365292089+365500231+365482317+365385802+365293343+365163013
2698+364830114+364156001+363288274+362586210+362175002+361854941+361548300
2688+361463660+361667922+361869645+361818675+361637258+361574092+361624420
2678+361553085+361180127+360561127+359958903+359650687+359632218+359518782
2668+358968462+358196171+357732038+357705225+357793045+357805270+357773993
2658+357553101+356952219+356216719+355818757+355846912+356028913+356182496
2648+356277580+356248842+356058235+355772046+355413414+354959609+354566548
2638+354502128+354730810+354828083+354493404+353981043+353826293+354238288
2628+354911848+355368512+355342253+354888507+354300375+353893223+353717232
2618+353540192+353214674+352864357+352588643+352295248+351998148+351939971
2608+352206144+352487256+352413849+351965850+351439309+351102500+350962601
2598+350849894+350647207+350358656+350034859+349759466+349633455+349683083
2588+349866922+350134437+350340712+350284052+350024852+349890730+349978170
2578+350010468+349866980+349821728+350063131+350383514+350512443+350431479
2568+350234015+349933998+349527137+349083836+348727566+348588192+348703525
2558+348887655+348866182+348648032+348541189+348684707+348836451+348761761
2548+348556478+348458096+348577251+348873593+349204712+349391235+349343474
2538+349096265+348727683+348341246+348089689+348093978+348324207+348611037
2528+348802578+348912368+349058890+349236777+349247134+348945016+348486747
2518+348215263+348273090+348433500+348446513+348427432+348635662+348998262
2508+349207688+349188724+349132180+349169934+349262656+349284917+349098890
2498+348706239+348348540+348268130+348407855+348531590+348583845+348763511
2488+349259738+349979250+350530211+350542757+350067362+349555263+349404743
2478+349652478+350093766+350495025+350665705+350547483+350272061+349996639
2468+349772041+349661931+349783420+350107975+350426432+350594574+350639009
2458+350635683+350674895+350879040+351258592+351603133+351659705+351402810
2448+351078926+350979902+351158139+351391577+351457048+351358783+351221772
2438+351085170+350951485+350957670+351288965+351882727+352384614+352504995
2428+352302338+352035056+351896848+351982626+352308902+352739804+353063221
2418+353249044+353494240+353940780+354456088+354755522+354708519+354499852
2408+354463761+354756602+355243113+355698202+356018526+356211788+356301009
2398+356329368+356395423+356584921+356883976+357204826+357462130+357596340
2388+357573407+357361005+356842546+355813535+354171300+352024961+349507939
2378+346623357+343412149+340141888+337173454+334659905+332396278+330016559
2368+327504760+325409187+324184316+323469794+322619807+321880455+322328979
2358+324575597+328151827+332430851+337521175+343468721+349083748+352585550
2348+353073929+351149153+348618156+347126003+346758472+346795730+347164632
2338+348172666+349626073+350960354+351924858+352764662+353796270+355003052
2328+356140540+357087830+357901317+358728956+359850456+361483704+363396576
2318+365044996+366162265+366974674+367925173+369330235+371133084+372915568
2308+374264496+375104738+375647121+376125026+376586708+376881912+376900176
2298+376758643+376648824+376656352+376817929+377132826+377462458+377640169
2288+377694700+377809770+378097184+378484876+378789066+378908221+378943991
2278+379043306+379179500+379247539+379277940+379355286+379435958+379416031
2268+379272543+379054597+378869621+378891590+379208647+379663386+379968071
2258+379935248+379555959+378998054+378554752+378412140+378437435+378349148
2248+378096688+377946022+378183166+378805375+379524741+380038094+380247316
2238+380252830+380227068+380306427+380522096+380817825+381163066+381580955
2228+382026328+382325616+382289847+381860375+381176078+380528223+380162880
2218+380068145+380022747+379868348+379611452+379249464+378711370+378067395
2208+377592262+377476608+377627682+377855431+378081370+378275245+378387807
2198+378452694+378582995+378803070+379039980+379297605+379678878+380218986
2188+380817242+381346584+381758900+382094133+382446289+382898810+383447612
2178+384009719+384510585+384900844+385117798+385168097+385224845+385468348
2168+385850847+386170209+386345148+386488024+386724583+387028773+387255384
2158+387324677+387323189+387370046+387480711+387644681+387913276+388318794
2148+388786283+389160174+389317667+389317434+389380512+389638371+390027025
2138+390468430+390920106+391252217+391365858+391395968+391547479+391826111
2128+392131205+392489779+393023614+393749515+394505964+395073527+395372932
2118+395562693+395904082+396485124+397121046+397602102+397986088+398511112
2108+399261871+400077693+400786877+401407744+402071237+402814673+403528875
2098+404096904+404500760+404802236+405130817+405648606+406385798+407159694
2088+407752960+408078157+408145962+408043408+407942255+407970731+408125627
2078+408417650+408946963+409684739+410350741+410714655+410912790+411258264
2068+411814827+412365905+412751350+413012097+413212799+413349489+413481073
2058+413769742+414318836+415063235+415843432+416514074+416998397+417329079
2048+417640446+418081764+418754419+419672415+420673564+421481566+422032528
2038+422600732+423445934+424534319+425711020+426898954+428025326+428974629
2028+429703185+430309523+431003768+432003399+433386696+435083111+436982358
2018+438875273+440387412+441307830+441960528+442964740+444628419+446697384
2008+448660730+450227399+451508171+452814735+454368245+456148541+457918655
1998+459459765+460889481+462606202+464741717+466820660+468222133+468898639
1988+469365924+470138507+471399468+473010514+474671946+476201328+477697595
1978+479358590+481226355+483163035+484950713+486491473+488055195+490082554
1968+492558321+494905712+496730385+498290606+500015438+501999704+504129092
1958+506341574+508630788+511026845+513632854+516494912+519460195+522321553
1948+525043274+527738795+530504105+533279335+535795247+537832322+539609846
1938+541569021+543801984+546081220+548352988+550782014+553373960+555914847
1928+558295325+560721200+563484351+566523800+569518434+572488327+575594180
1918+578206549+579323468+579261848+579512354+580893317+582974389+585034105
1908+586888129+588779790+590936312+593287963+595403405+596812202+597547789
1898+598240488+599507314+601280578+602913973+604000490+604763679+605525408
1888+606245707+606847143+607524204+608361674+608997305+609060092+608760453
1878+608635171+608852475+609239291+609914076+611377899+613810251+616305683
1868+617172738+615832213+613708310+612400813+612088220+611948758+611445354
1858+610738592+610063516+609287257+608230265+607163762+606652656+606986955
1848+608212818+610387662+612744157+613041345+610024245+605531827+601889250
1838+599618533+598066190+596876856+596541156+597655099+599805260+601415722
1828+601368107+600019238+597891367+595148231+592522849+590964029+590327348
1818+589556866+588195451+586902483+586287393+586103000+585830962+585350257
1808+584700739+583904873+583444650+584144759+586026150+587715971+587736044
1798+586369494+585495787+586751176+590045040+593123935+593564144+592011275
1788+590856252+590921198+591415383+591876307+592844136+594544519+596298819
1778+597594704+598887264+601102954+604646624+608561472+611102943+611687866
1768+610727739+608802700+607442277+608531421+611959553+615193723+616522578
1758+616750151+616881910+617375103+619224284+623266748+628364103+631723205
1748+632160846+631143534+630313591+630318493+631265374+632760357+633944439
1738+634983167+637721051+643276646+648997844+650576329+648677374+646304424
1728+644535769+643723974+644315840+646162570+648957465+653397891+660338008
1718+668088929+671810573+669465282+664772949+661471149+660668806+661971869
1708+664562531+667525772+670154304+672878067+676931560+681857944+684413594
1698+683320716+681126674+679034807+676741216+675234504+675793284+678319467
1688+682240617+687920269+694963961+699261541+697790016+694208067+692418114
1678+693393995+696526107+700122878+702481181+703788620+705072427+705813091
1668+704847187+703246645+703309024+705712317+708649357+709652898+708842386
1658+708745930+711884986+719410375+728740773+732079160+728953700+727262304
1648+729481146+731971033+730035258+724866830+720594341+718854279+719507007
1638+722282353+726461478+729441525+728887179+726496782+725109984+725538697
1628+726825013+728042764+729316943+730262131+729513064+727644861+727564218
1618+730879031+735301601+736648603+734923070+733327547+733468059+734572607
1608+734956856+734099779+733255423+733840754+735843985+738146854+740032504
1598+741650552+743155513+744471589+746011561+748470405+751512597+753797668
1588+754921298+756201778+758784213+762047850+764606068+766299741+768612588
1578+773074079+778907489+782516746+782599081+782151929+782974578+783405859
1568+781477436+778385937+776519134+777140876+781249395+789624743+798493866
1558+797868973+788699627+781222203+778227394+777648073+777324744+776577019
1548+776221071+777676141+781458179+786703457+792324173+797155851+798518316
1538+795905188+793198114+792865273+793952608+794047547+792826702+792453307
1528+794432729+798361465+803209598+808820686+814852843+819356698+821326960
1518+822483267+824114502+826103086+828997354+834029472+841089094+848390119
1508+853871899+856118283+855530151+854324128+854118553+855652282+859374160
1498+864793210+869590110+871466308+871597717+873630824+879625402+887380816
1488+892565291+894705299+896435616+898795670+901333932+903779531+906147112
1478+908831838+912925360+919134325+925990648+930164813+930465677+929626573
1468+930344129+932939284+936151222+939086512+942184079+945798822+949756151
1458+954110508+958475834+960916706+959769152+955731356+951385927+949261674
1448+949361106+949023247+946588211+943471971+941858591+942437211+944706703
1438+948042289+951489444+953759402+955028796+956680279+958744313+959922735
1428+959879905+959599347+959421490+958917969+958521232+959374108+961392335
1418+962674799+961429797+957453271+952151800+948621026+949567265+953957158
1408+958024422+959576007+958625508+956016757+954011659+955163881+958986008
1398+961536990+960667309+959353626+960681489+963364114+964939739+965771842
1388+967337781+969288553+970445677+971458787+973810672+977292488+980471574
1378+982744975+984941118+988709619+995018073+1002329135+1007606274+1009594683
1368+1009178515+1007489336+1005344193+1003695977+1003799727+1006446932
1360+1010837351+1014574575+1015190540+1013194312+1011980820+1013710729
1351+1017544934+1021877701+1026118854+1029592443+1031501377+1032359737
1342+1033267230+1034399146+1035545416+1037164923+1039051332+1040064676
1334+1039978665+1039072222+1038092606+1038774159+1041333603+1043381181
1325+1044197878+1046481783+1051538350+1056909435+1059765774+1059362794
1317+1056522910+1053323343+1052164002+1053443432+1055409901+1057042828
1308+1059641018+1064634097+1070598274+1073741823+1072314412+1068690274
1300+1065292777+1062316699+1060518634+1061737495+1065785619+1069358874
1291+1068253683+1061028282+1050753746+1042232460+1037856396+1036563895
1283+1035963802+1034969714+1034288043+1034423654+1034784504+1034652978
1274+1034100033+1032961582+1030739180+1027436330+1023259014+1019627757
1265+1019423291+1023528251+1028457960+1029466286+1025564042+1019525641
1257+1013882284+1009143970+1005075423+1002065383+1000156333+998015859+994517995
1247+990032346+985302201+980189616+973878244+966058526+957531521+949251113
1237+941405953+933971243+927326504+921814440+917623003+914892704+912831880
1227+909554238+904306101+898763343+894712826+892015497+889684619+887448154
1217+885713694+884871030+884856442+884939652+883848233+880825473+877021786
1207+875066988+876528360+880370385+884224430+886686250+888266836+890403518
1197+893594974+896869290+899450790+901826133+904141723+905799508+907952470
1187+912570812+918395878+921843150+922247355+922850775+926244713+931366576
1177+935516234+937753631+939520302+942839433+948804602+957143421+966130883
1167+973496854+979018371+985155971+993076930+999746117+1001255455+998577907
1157+997189942+1000656178+1006465488+1008318637+1003304084+995653995+991602603
1147+993115792+997680100+1002779614+1008286427+1014399285+1019493314+1021395128
1137+1019709450+1015766360+1011819651+1010235973+1012699719+1019132931
1128+1026712063+1031654026+1033176201+1033365262+1033678380+1033648620
1120+1033248208+1035218294+1042650028+1054314747+1063005488+1062514979
1111+1055288178+1048382897+1047027609+1051799184+1058765035+1063948809
1103+1066694513+1067844518+1067442588+1064428931+1058762234+1051447787
1094+1043686246+1038581714+1040770038+1050634358+1060578620+1062381119
1085+1057348360+1051933861+1047357182+1042124275+1037935288+1037726388
1077+1041556975+1045996760+1047326606+1043860136+1037155120+1032852580
1068+1035532112+1042329675+1044842437+1038225532+1026670282+1017285734
1060+1012507857+1011043801+1010733484+1010200262+1010712360+1014563254
1051+1021351131+1028796753+1034920348+1037218023+1034195380+1028138657
1043+1023116751+1020589518+1019038517+1017681362+1017193187+1017460674
1034+1017374546+1015316348+1010367265+1004005243+999638983+999616226+1002110315
1024+1003039165+1001094053+997170802+991659088+986721910+986885646+993587161
1014+1001637312+1004180300+1000099148+993007607+986578013+983444501+984315933
1004+986478581+986112013+982909178+979653126+977506758+974727910+969555105
994+962176122+954409037+948299739+944521201+941702616+938086589+933861599
984+930556356+928645439+927134993+924612019+920181104+914612789+909909894
974+906985108+905185176+903741835+902338932+900663349+898655859+896875533
964+895517386+893931199+891459167+887850960+883599011+880177822+878777428
954+879493935+882153511+886503724+891252250+894543080+896094256+897166536
944+898600307+900966022+904974700+910224354+915203021+919218060+923052557
934+927123672+930984778+934898342+939803019+945775073+952093564+958633502
924+965766882+972484502+975716396+973651662+968902320+965817940+965569826
914+965518710+962802007+958102964+954938992+955276559+957509114+958652116
904+957419543+954582518+951899076+951779104+956305367+965130259+974895089
894+981721594+984451893+984905173+985245016+985345032+982155034+974294295
884+966473352+964650488+969427256+976053613+979474802+978979975+978039572
874+980541596+987118355+994293689+997845120+997145827+994212346+990546662
864+987726151+987413266+989059498+990265288+990690442+993598598+1001365157
854+1010349993+1012843382+1007525631+1002247792+1002581567+1006249002
845+1008774834+1009313775+1008363568+1005587638+1002605258+1002587869
837+1007059747+1014794679+1022107608+1024729722+1022728942+1021472270
828+1024859731+1030721325+1033791700+1031696740+1027593064+1027618739
820+1034290261+1041534568+1039872231+1030157292+1022406722+1022181482
811+1027395717+1032385996+1033397122+1032815234+1035876623+1042308668
803+1045484777+1041547639+1035459055+1034037129+1038700986+1045887641
794+1050925885+1052324004+1051654471+1050136497+1047324505+1041128553
785+1029368021+1013325605+999507340+995413935+1002033056+1010312648+1008691858
776+999084170+995220322+1004229316+1019324092+1028443955+1027800564+1021593292
766+1013682837+1006999994+1004285451+1005907175+1010339023+1015913057
757+1019124645+1017090254+1011695478+1009120980+1014122929+1024293598
748+1031182073+1028613644+1018398510+1007791717+1002101795+1000849207
740+1001015978+1000912578+1001425610+1005023372+1013294795+1023325302
731+1027071629+1021905476+1016636041+1018013502+1022578044+1023171719
723+1018656894+1014570023+1014691396+1016570920+1013527270+1004640465
714+1000987735+1010851239+1029136129+1041667728+1039843522+1030761704
706+1024730773+1021954842+1017087103+1008523220+1000158084+995139796+991027951
696+984759876+978837188+977687825+984483520+997831115+1006914100+1001353837
686+985637026+971389757+963643737+961659413+965025634+969974949+971234015
676+971490647+977361577+989002547+996656486+990601513+971829440+953918704
666+949328721+957860219+973720343+985688026+979397777+955996158+934400540
656+929726997+943369154+965719325+980526192+978285118+967029740+957958717
646+954638828+956429715+963147277+972201435+976889683+971738703+957111094
636+942051620+933164466+928113442+923799115+922978391+931000708+946303044
626+956096291+953617432+946505759+941589179+939143639+937285822+938122417
616+943260269+946209855+937825463+921517194+911141767+912027203+916453917
606+918604720+924235589+936929640+946618495+943596728
##END=
