##TITLE=<SNM>
##JCAMP-DX=4.24
##DATA TYPE=INFRARED SPECTRUM
##DATE=29/4/2025
##SAMPLING PROCEDURE=Instrument type and / or accessory
##ORIGIN=Admin
##XUNITS=1/CM
##YUNITS=ABSORBANCE
##RESOLUTION=4
##FIRSTX=4497.3318
##LASTX=599.83466
##DELTAX=-1.4281778
##MAXY=2.2392995
##MINY=0.69933701
##XFACTOR=1
##YFACTOR=2.0855102e-09
##NPOINTS=2730
##FIRSTY=0.70550776
##XYDATA=(X++(Y..Y))
4497+338290243+336210106+335537610+336311138+338151285+339703399+339494391
4487+337836444+336608202+336843533+337756904+338174606+337788171+337019388
4477+336614004+337343089+339306903+341604908+343058305+343063935+341761357
4467+339814291+338077748+337180181+337242201+337956853+338917296+339977256
4457+341232506+342396212+342547831+341099435+338893717+337670449+338411280
4447+340503163+342358715+342788792+341867904+340708399+340376152+340797112
4437+341243423+341478611+341723773+342103635+342657837+343334963+343554803
4427+342570181+340551178+338540664+337308736+336725325+336314825+336029993
4417+336173295+336889748+337927129+338523973+337883973+336498168+336175953
4407+337804977+340160542+341815088+342802539+343502873+343626368+343008604
4397+342018437+341100436+340807401+341669728+343342908+344365400+343507531
4387+341378666+339959765+340435428+342031041+343119610+343042614+342420991
4377+341966306+341590332+340827522+339773964+339176062+339714802+341468951
4367+343765383+345300149+344995882+343042472+340593334+338658186+337832299
4357+338418711+340025442+341573326+342377492+342795623+343331476+343672411
4347+343202836+342080485+341293782+341704196+343115151+344256165+343898654
4337+341967707+339325595+336988664+335921016+336646700+338461210+339794656
4327+339836640+339153627+338491934+337984890+337793830+338331084+339340657
4317+339746041+339130534+338540492+338991348+339910092+340011981+339307961
4307+339103211+339991346+340914635+340678961+339698654+339395074+340176518
4297+340869935+340167658+338140824+336190929+335580281+336260179+337347605
4287+338320281+339273464+340341027+341414077+342260427+342664039+342619625
4277+342140046+341044590+339544206+338451893+338196470+338426885+338887629
4267+339618086+340205813+339961251+338940846+338116102+338313021+339275494
4257+340117928+340451861+340558438+340589019+340267890+339521885+338786598
4247+338600625+339324823+340953447+342906715+344469689+345434077+345735799
4237+344918773+342913917+340887683+340238509+340965794+341893398+342433224
4227+343118524+344132012+344487409+343410844+341599277+340278836+339811061
4217+339858419+340153482+340447346+340359861+339938930+339833897+340284781
4207+340516139+339809575+338605513+337866567+337812236+337810921+337328685
4197+336675709+336619006+337323083+338094067+338294415+338110186+338170662
4187+338586935+338999436+339650754+341130674+342727259+342882793+341754669
4177+341150108+341656410+342094089+341890597+341857158+342537857+343460059
4167+343936923+343702964+342920119+341849356+340543776+339137279+338201958
4157+338106242+338357692+338398791+338656672+339938872+342049418+343825602
4147+344393380+343735174+342256169+340433399+338706744+337275954+336229570
4137+335967173+337011643+339101496+340999461+341678702+341410961+341243395
4127+341625486+342007977+341721973+340709742+339238539+337730696+336991837
4117+337722694+339657470+341627715+342533255+341979282+340257229+338215562
4107+336926502+337089610+338701943+341042132+342870446+343276716+342639860
4097+342128672+342140018+341970108+341195323+340463779+340493617+341007235
4087+341039474+340010895+338299588+336806207+336023905+335656362+335331375
4077+335341949+336114191+337322826+338302332+339007553+339635578+339729864
4067+338830526+337701173+337674564+338883771+340151196+340664899+340922980
4057+341725374+342843238+343189918+342213641+340728205+340241910+341465407
4047+343348739+343955986+342664382+340918665+340405275+341248053+342248995
4037+342350198+341607794+340888427+340855359+341336081+341564724+340910319
4027+339559754+338555783+338773651+339870737+340790625+341055593+340861304
4017+340440001+340053994+340164314+341078314+342603906+344076824+344561261
4007+343448942+341326564+339870537+340422138+342679358+344917629+345630081
3997+344774527+343363829+342400414+342429251+343419704+344604646+344843006
3987+343553260+341224332+338916524+337394991+336797033+336932961+337668420
3977+339026787+341054078+343414045+345112633+345288231+344396209+343841093
3967+344196690+344500813+343691189+342049018+340799084+340711057+341481498
3957+342427708+343241105+343769042+343736231+343303467+343261569+343863014
3947+344263082+344002457+343945182+344744804+345577379+345521618+344847665
3937+344050901+343311670+343101404+343801623+344716738+344812654+344306381
3927+344293606+345224697+346491464+347336614+347910622+348963209+350458676
3917+351133773+349908504+347291257+344893850+343959873+344499327+345835402
3907+347898990+351308142+355937875+360134473+362171396+361585384+358728119
3897+354732184+351558935+350836280+352455329+354092984+353420374+351558163
3887+351439783+353524206+355350206+355343975+354440722+353084583+350748110
3878+348529273+348371595+350344355+352909128+355325970+357742468+359249054
3868+359090061+358472154+358221332+356930529+353428548+349408434+347564457
3858+349289339+355028705+364082394+371135342+369517779+362420531+356035563
3848+352448156+351580284+352856112+355396049+358389299+361697334+365008769
3838+366608041+365071074+361589186+358275892+356084064+355150201+355468872
3828+356522430+357362635+358181091+360512592+364077907+365215034+362771269
3818+360492414+360031584+358897115+355939133+353551872+353708893+356114759
3808+358903174+360427394+361498786+364037008+367110055+367065927+363691529
3798+360404844+358545291+357188781+356113187+356103813+357122503+358256829
3788+359144507+360135131+361289492+362585211+364709247+368020111+371095958
3778+372188300+371946653+372700774+376208186+382617876+390065805+395676016
3768+398325130+399035238+398980478+399390663+401755632+406052489+409930073
3758+411496849+412246626+415129299+421484229+429789484+435829287+437062472
3748+436268938+437096197+440142264+443068150+444363984+445614289+449419251
3738+457262189+467619628+475744997+478275617+476610525+473830770+472107117
3728+472824341+476067612+479943567+482363181+483144454+482945191+481857537
3718+480058689+478684859+479267298+482149057+485075400+484737866+481137826
3708+477043260+474381571+473571374+474111058+475027573+475698697+476207027
3698+476723474+477639532+480125567+485357717+492891102+499649386+501130135
3688+496501602+490306179+486356029+485286324+486609880+489952869+495060866
3678+501342201+506469862+507095429+504426252+503107725+504029042+503440515
3668+498676511+491848033+486022096+482456067+481035509+481778026+485055794
3658+489742631+492938716+493771263+495499803+501321452+510353305+516229200
3648+513163269+504444143+496215341+490798676+487745207+486025355+485272148
3638+486087546+489143244+493676261+497729986+500504397+502795570+504234134
3628+502443632+497324259+492226951+490251590+492668289+498208479+502657356
3618+502323651+498639985+495752739+495804470+498442323+502343657+505490013
3608+505425936+501909122+497868601+496260441+497677684+500529090+502860048
3598+504327764+506041214+508465057+510470256+511570085+513192764+516010560
3588+517921329+516855281+514135516+512233664+511888985+512465566+513354701
3578+514308942+514646476+513252497+510352333+508504441+510444476+516057260
3568+521631860+523150107+521076144+518703573+517276670+515696747+513331608
3558+511633763+512445045+515356984+517978718+519010812+519793800+521921837
3548+524572094+525199833+522619884+518523460+515541156+514588172+514423321
3538+513543217+512101166+511306403+511641479+512724446+513974037+514599433
3528+514083900+513117998+512920108+513442728+513277762+511542420+508917828
3518+506831004+506453571+508164278+511139265+513733048+514694663+513897728
3508+511947289+509553283+507248848+505284006+503986457+504144792+506099232
3498+508734913+510373711+510607270+510383029+510486890+510992591+511675261
3488+512325007+512581087+511691552+509325555+506188631+503473382+501961595
3478+501729180+502418824+503371236+503891341+503768960+503233536+502509767
3468+501770564+501132650+500412139+499502312+499071892+499809779+500835529
3458+500253575+497644245+494675945+493090821+493175362+494062154+494832623
3448+495371477+496049918+496605292+496255182+495057836+493901703+493123803
3438+492312406+491417841+490976389+490972330+490410212+488598102+486376664
3428+485295526+485915034+487329477+488140359+487814657+486902086+486084459
3418+485564468+485387155+485635518+486277491+487202065+488131499+488376947
3408+487419219+485940757+485154282+485046706+484660471+483775108+482976401
3398+482455553+481888575+481379673+481630952+483021901+485020812+486719057
3388+487676157+488040156+487976250+487274259+485853701+484396788+483821923
3378+484349173+485681018+487701479+489951497+491005598+490058616+488678470
3368+489249792+492082849+495256470+497018049+497332548+497065093+496876634
3358+497199249+498116164+498934248+498927103+498418430+497989953+497457672
3348+496855370+497019021+498065291+498886805+498933220+498951111+499602800
3338+500751731+502062770+503291039+504025441+503714886+502236138+500387274
3328+499326371+499329115+499543582+499005699+497465446+495300541+493336612
3318+492599868+493393316+494694123+495086702+494340583+493444818+492967354
3308+492476972+491826083+491855749+493167131+494938713+495792409+495474024
3298+494941286+495124429+496208025+497607033+498203620+497216740+495261443
3288+494078387+494852629+497150891+499563760+501003181+501402277+501374269
3278+501429886+501660644+501840243+501651498+500955681+499998638+499402338
3268+499684655+500587394+501164089+500813236+499922157+499176438+498727727
3258+498288847+497540098+496381907+495176788+494527385+494569798+494923509
3248+495350899+495804584+495973894+495678430+495584973+496475708+497814184
3238+498115935+496928478+495436983+494930425+495421779+495839338+495280992
3228+493859233+492194312+490671550+489737430+490166250+492054326+494054723
3218+494542589+493231780+491035550+488809597+486722487+484695167+483104613
3208+482559185+482935074+483304218+482995379+482205875+481589339+481758135
3198+482949536+484637206+485760300+485604194+484338084+482789600+481812666
3188+481698344+482040737+482143969+481473360+479833990+477489714+475156642
3178+473593124+473128150+473539222+474177478+474265592+473456110+472168764
3168+471123723+470596959+470250136+469689503+469075311+468927722+469279289
3158+469360486+468501904+467143479+466359319+466392330+466252543+464963740
3148+462809152+461045801+460683116+461664051+462889663+463030993+461652390
3138+459622241+458255128+458088390+458540474+458524869+457397803+455535535
3128+454047126+453813739+454693357+455765492+456365423+456541849+456527102
3118+456268592+455705788+455049783+454613075+454561001+454707104+454536336
3108+453709449+452538397+451702593+451557576+451813685+451778588+451068395
3098+450165827+449834466+449986657+449849414+449233850+448760930+448750727
3088+448744068+448233565+447243856+446206532+445629351+445713520+446108501
3078+446277211+446094211+445793374+445419143+444721753+443614435+442405915
3068+441541016+441236406+441340839+441584143+441980096+442719527+443533724
3058+443608005+442562964+441191392+440675145+441210827+441788950+441347384
3048+439888299+438297315+437372655+437288686+437683095+437978530+437766064
3038+437072418+436267909+435743717+435668150+435818397+435633340+434737660
3028+433431222+432442742+432216671+432591017+433087000+433361658+433382321
3018+433280175+433199979+433257768+433399155+433226616+432229732+430457064
3008+428817808+428295159+428834928+429396332+429181493+428423657+427874971
2998+427942306+428448579+428927871+429004067+428618232+427989892+427377872
2988+426863597+426293448+425510717+424719555+424375391+424595345+424933880
2978+424838421+424142175+423174787+422611153+423033542+424308312+425474906
2968+425568792+424543872+423144120+421966666+421026486+420258275+419873869
2958+419868067+419675521+418831657+417627052+416741432+416578895+417100573
2948+417939835+418625936+418962841+419143126+419340159+419426414+419227809
2938+418803505+418287344+417563575+416369230+414897970+413995288+414289837
2928+415317901+415930436+415459917+414198351+412913978+412187322+412079517
2918+412206728+412153340+411911236+411850474+412224134+412764674+412886198
2908+412352002+411576846+411143624+411200414+411464039+411640580+411655442
2898+411535375+411249829+410714462+409857279+408731985+407674940+407186673
2888+407494426+408363469+409329114+409855107+409473874+408293847+407171611
2878+406862143+407211738+407522378+407403883+406977464+406496800+406030654
2868+405514264+405057350+405014765+405574769+406425635+406959059+406678028
2858+405479539+403828623+402559369+402198827+402573573+403189651+403745197
2848+404176874+404541446+404966893+405438469+405617068+405139633+404076757
2838+402872466+401917768+401355306+401134637+401029604+400736313+400182254
2828+399651145+399461314+399611247+399813310+399785244+399478262+399102202
2818+398955041+399184656+399652488+399995424+399937492+399614476+399404725
2808+399396780+399303951+398916944+398333361+397737947+397224643+396807741
2798+396450258+396161568+396053849+396116039+396060679+395616140+394828465
2788+393990232+393449777+393419368+393768648+394137849+394352116+394496962
2778+394589105+394498419+394163029+393616572+392907065+392172378+391647128
2768+391467157+391554156+391713005+391765422+391574276+391015473+390105531
2758+389188759+388697805+388628441+388584799+388380763+388167411+388011305
2748+387843338+387701437+387619983+387498630+387303255+387101906+386877865
2738+386587231+386288538+386023941+385743310+385458192+385334296+385538017
2728+385975211+386216115+385850829+384959922+384045951+383557712+383629420
2718+384078104+384493576+384543649+384280596+383963525+383644711+383192084
2708+382674093+382389861+382422243+382465799+382305721+382174766+382316982
2698+382498152+382335587+381862554+381405668+381108604+380867100+380597587
2688+380346022+380159907+379981823+379713567+379358999+379093488+379157937
2678+379605962+380179313+380535853+380525879+380133327+379387694+378556548
2668+378082857+378068882+378136446+377971994+377683275+377483184+377389298
2658+377357459+377380009+377376094+377244853+377040989+376908776+376878995
2648+376861618+376776077+376621458+376453891+376286724+376023556+375587220
2638+375109042+374855620+374936702+375167603+375274608+375245484+375365779
2628+375787168+376207385+376188236+375682850+375044336+374614944+374463068
2618+374436231+374377356+374297645+374337200+374576304+374927871+375210302
2608+375334998+375411708+375573073+375699341+375502250+374918754+374233139
2598+373781684+373716464+374013414+374458981+374684280+374521258+374266893
2588+374272666+374385873+374187011+373677165+373330143+373518230+374176750
2578+374952736+375469755+375511168+375124447+374579248+374155401+373930616
2568+373782084+373596226+373422057+373383617+373498395+373630322+373622720
2558+373475302+373349920+373374442+373484505+373475045+373166520+372564360
2548+371928247+371619465+371769569+372138456+372391906+372456355+372481392
2538+372515202+372423659+372199418+372149402+372528006+373058915+373150458
2528+372660019+372127738+372138799+372731670+373477846+373907237+373852249
2518+373529434+373242687+373027905+372801635+372725925+373032764+373568874
2508+373909781+373886802+373701259+373593597+373618261+373676965+373641812
2498+373486677+373327313+373272439+373289587+373314852+373373528+373449980
2488+373417884+373265951+373204389+373383416+373653558+373708290+373422400
2478+373044053+372984978+373345147+373761420+373820010+373476103+373002783
2468+372723667+372824670+373250604+373771252+374193298+374459639+374557898
2458+374437375+374070346+373572933+373178267+373023533+373042681+373141741
2448+373353264+373692170+373982975+373998666+373720636+373343804+373071662
2438+373004098+373154916+373450638+373739013+373877571+373825469+373705403
2428+373772024+374128792+374464497+374388474+374032620+373893262+374100069
2418+374326883+374393047+374477187+374757646+375222849+375768877+376204813
2408+376327137+376230535+376304930+376696138+377043132+376985914+376661642
2398+376469610+376625688+377194151+378354857+380405127+383539364+387774259
2388+393193840+400254991+409692799+421972411+436856894+453574578+471404897
2378+490102458+509779640+530300228+550662824+569274587+585207570+598805593
2368+610764761+621142064+629622373+636038608+639555250+638308403+630784908
2358+617297376+600153900+581920656+563614989+545778668+530601179+521021498
2348+518909523+524582898+536013501+548375881+557139078+561438537+562837774
2338+563052584+563352278+564578547+566944944+569808754+572074091+573078462
2328+572899892+571792346+569806868+566943115+563297118+558980968+553991865
2318+548285395+542025380+535716551+529903075+524547058+518809549+511807760
2308+503672244+495515008+488268742+481909953+475860776+469718084+463409625
2298+457053495+450955988+445476160+440714586+436519674+432759384+429336085
2288+426070749+422864833+419866352+417274170+415100833+413233221+411587335
2278+410152257+408990265+408187529+407729442+407473963+407246177+406847395
2268+406068037+404925937+403820106+403189823+403045692+403032945+402888129
2258+402625446+402326239+401972785+401545709+401145927+400910482+400846404
2248+400831800+400755862+400574262+400245674+399733456+399151960+398838491
2238+399070935+399653346+400021546+399929203+399781243+400059987+400644884
2228+400942234+400588181+399838175+399236930+399030637+399015889+398883705
2218+398515904+397971705+397377177+396845982+396433882+396172343+396074026
2208+396068996+396060708+396032642+395973052+395813516+395608595+395596848
2198+395882566+396240564+396413675+396440341+396553490+396885709+397374519
2188+397856841+398161279+398191917+398054246+398061562+398494555+399342763
2178+400320983+401114745+401589980+401798674+401833570+401719792+401468113
2168+401220807+401267708+401791729+402573887+403130233+403255243+403235780
2158+403392315+403656683+403787381+403790525+403900331+404257414+404780577
2148+405265872+405502317+405419920+405196993+405060265+404987471+404844512
2138+404735478+404895328+405318231+405772688+406090559+406263413+406373161
2128+406535183+406844337+407334405+407938622+408453726+408697517+408789345
2118+409078121+409716778+410488305+411092866+411466097+411781853+412217960
2108+412745297+413144136+413236707+413111297+413113269+413560637+414423050
2098+415320702+415874675+416040327+416134957+416573694+417496297+418606587
2088+419427158+419705359+419543365+419222208+419004425+419064758+419484690
2078+420201000+420949062+421383598+421350273+421021027+420790241+421041805
2068+421862205+422904759+423676315+423993843+424029997+424019108+424135687
2058+424481395+424964546+425351067+425551959+425718296+426074550+426808266
2048+427975516+429355576+430596222+431564810+432329907+432891025+433264113
2038+433694590+434415873+435300721+436029406+436516530+436981647+437668490
2028+438636364+439780093+440912791+441864202+442673798+443652962+445080494
2018+446879313+448716174+450330821+451654550+452754179+453807537+455015972
2008+456456137+458057094+459667655+461127026+462437664+463859252+465587964
1998+467412477+469044673+470679613+472709362+474917024+476511494+477099020
1988+477140376+477366161+478133487+479326060+480622351+481851764+483185552
1978+484934671+487134959+489420473+491355193+492892931+494484743+496631528
1968+499282757+501840071+503887626+505640117+507432906+509178595+510710560
1958+512319463+514430066+516927875+519242199+521043048+522576556+524354426
1948+526772668+530049750+534148517+538389729+541479953+542704736+542877533
1938+543401011+544916970+547198484+549763172+552316256+554860823+557516282
1928+560307955+563307521+566655482+570033110+572683482+574528230+576397157
1918+578626940+580479863+581522189+582465798+584094193+586214227+587950084
1908+588862312+589523834+590800976+592765990+594658296+595894054+596725114
1898+597768869+599230983+600797587+602218775+603608752+604940026+605801667
1888+606105590+606393966+606964887+607476019+607714608+608017960+608706575
1878+609667047+610641123+611647094+613041873+615251993+618284942+621210028
1868+622353642+620857746+617785128+614922519+613206668+612483699+612165028
1858+611820063+611336483+610828381+610430028+610166346+610019557+610116787
1848+610922354+612911947+615365857+615905226+613187119+609066002+606018820
1838+604748766+604487713+604421864+604637017+605522265+606563219+606583340
1828+605455501+604041230+602350873+599686326+596273544+593184464+591042308
1818+589676681+588642701+587841765+587629527+588151690+588786003+588738445
1808+588079782+587560820+587705836+588565591+589849993+590915926+591088494
1798+590483905+590192500+591317080+593759101+595697936+595247909+593095579
1788+591327540+590839045+591406537+592887914+595145934+597185258+597869072
1778+597700390+598695845+602430098+608448551+613730489+615221527+613646748
1768+611494418+609872883+609377013+610873424+614060306+616877244+617996852
1758+618126835+618032920+618083736+619401119+623171498+628632749+632946726
1748+634414271+634118693+633721540+634132354+635573777+637195655+637569200
1738+637264134+639175989+644921099+651368887+653160190+650694048+647592735
1728+645495336+644776654+645335343+646460895+647910834+650991969+657222089
1718+665421053+670604159+669551144+665008638+660725299+658500317+659121483
1708+662878372+668740891+674111485+677643561+681044395+685816745+690011600
1698+691058213+689200489+685175573+680568990+678159436+678970547+681739870
1688+685419192+691037292+698920557+703997973+701187666+694481569+689705447
1678+689250733+693056037+698895692+703710112+706835146+709075275+709279396
1668+706120751+702104695+700626919+701937615+703555492+703713484+703818831
1658+706358426+712810100+723355341+734245489+736770107+732544671+731325662
1648+734909411+737854618+735017616+729414264+725813195+725134240+727298574
1638+732755537+739792081+742662807+739270717+735554641+735825583+739486442
1628+744123549+748785178+754548809+761407068+766862374+769860397+772970284
1618+778359284+784277706+787425947+788872000+791759188+796316442+800058298
1608+800816192+799255647+797938949+798472202+800223035+801319149+800697297
1598+799230725+798716792+800031946+802491401+804948398+807080265+809288384
1588+811980083+815040011+817801675+819775835+821300712+823350153+826854505
1578+831706423+835486691+835180766+832642430+832341307+835604556+840299338
1568+843590367+845310848+847165142+850381405+855582517+862876398+870000855
1558+871721564+868011033+863986117+862326912+863575817+866361888+867918204
1548+867554090+867890538+870958583+875612438+879856394+882744554+882317906
1538+878508601+875177445+874269447+874098593+872138209+869597414+869527221
1528+871810049+874073557+876170841+880605257+887309353+891709758+891364049
1518+889493293+888380945+887578866+887390978+889395834+894450615+902182118
1508+911296054+918159000+918639779+914770855+910960349+909112685+909575459
1498+911745680+913794321+914172725+913913158+915547097+920030499+924866069
1488+926647597+925753489+925406066+927694896+931869287+935655957+938114383
1478+940611164+944862322+951029393+956912547+958349796+953736982+947113997
1468+942712049+941442395+942130953+943341389+944595438+946628131+950425490
1458+955434370+958433308+956866933+952347577+947455875+943753918+941429762
1448+938916119+934808778+930052319+926706816+926264849+929433097+935632578
1438+942301406+945688980+944724507+942363997+940774815+939824060+938686219
1428+936632948+933920214+932123081+932545156+934884573+938298726+941697046
1418+942105802+938045676+933532264+932730128+934803862+935634236+933518889
1408+931146547+931408286+934153887+937095721+938797225+939820459+941061076
1398+942735657+944727022+946538846+947325720+946790182+945468568+943985133
1388+942781042+942432019+943137611+944416239+945808617+947492458+949923104
1378+953401906+957923720+962642281+965968807+967288649+968063863+969937134
1368+972935443+975966677+978361025+980416297+982560967+984578970+985947741
1358+986973890+988649957+990467897+990147454+987472560+985982266+988943649
1348+995470033+1001287852+1003019479+1001317575+999296372+999056640+1000178248
1338+1001350271+1002517951+1005173524+1011344825+1020726731+1029152451
1330+1032610104+1032730827+1034288228+1038446557+1041946395+1041812067
1321+1038583286+1035343873+1035044808+1038143720+1042757505+1047259599
1312+1051960726+1057365045+1062264863+1065227389+1066924948+1068771240
1304+1070279940+1070230782+1069272311+1069036466+1069766180+1070854634
1295+1072285139+1073741823+1073556622+1070779868+1066790735+1063103296
1287+1059237516+1053932314+1048071739+1044517256+1044159315+1044097124
1278+1040721212+1034091481+1027771791+1025103299+1027206242+1033124093
1270+1040883662+1048278661+1052140325+1049746891+1042835473+1036757572
1261+1034132866+1031780816+1025589737+1016592981+1009049022+1005289217
1253+1004856053+1006068318+1006870169+1005136713+999242184+989168748+977656577
1243+969378102+967221085+969173924+969205934+962328126+949239576+934667534
1233+922426277+913745105+908416982+905407127+903090402+900319078+896947853
1223+893231834+889636538+886764211+884459033+881782710+878552843+875767858
1213+874112998+873148982+872239555+871500181+871538193+872485860+873651939
1203+874351701+874812874+875977181+878319970+881148798+883342798+884623656
1193+885774416+887642829+890652627+895063321+900471355+905271370+908060814
1183+909703384+912322832+916331400+919999861+921867702+922454743+923460715
1173+926269022+931390509+938705825+947614154+956335452+962410666+965511636
1163+968235573+972362007+976267571+978145872+979188370+981618844+985487482
1153+988233141+988387932+988678652+993005033+1001366391+1008510453+1008557782
1143+1001431668+992658411+988295789+991138278+999274194+1007814807+1013547571
1133+1017276166+1020518208+1022375818+1021476336+1019747567+1021696405
1124+1029613052+1039504374+1042861767+1036524814+1027347658+1022592685
1115+1022788632+1023817411+1023545669+1024308308+1028684076+1035273337
1107+1039232975+1038582371+1037538959+1039690947+1043058628+1044945733
1098+1046837410+1050927146+1054588062+1053411923+1048632142+1045495504
1090+1045189123+1043980631+1038713269+1031441738+1027506108+1029675129
1081+1037838710+1050615849+1063471869+1069391891+1063925725+1051369113
1073+1042766423+1045148767+1053253931+1053433873+1041289961+1027037961
1064+1017149955+1009518083+1004615292+1005546098+1010719258+1013858297
1055+1010177832+1001675402+995157592+995020292+999736624+1005943136+1011521795
1045+1014660033+1015574948+1016343874+1017022144+1014819741+1009179120
1037+1004756251+1005088240+1007076748+1006186641+1003864315+1004544413
1028+1007665160+1008904862+1006744758+1003316143+1000741967+998727508+996839947
1018+996455026+998966097+1004397853+1010680046+1014022577+1011071140+1002980953
1008+995709307+993567838+994704536+993900399+989301246+983831079+980604013
998+979551569+977791933+972963452+965507177+957528968+950218911+943565916
988+938243395+934810092+932070779+928182420+923384234+919733492+917752473
978+915863711+913966775+913695261+914190845+912041715+905778786+897220624
968+889123349+883656439+881670675+881890401+882249714+882061541+881289871
958+879337374+876402857+874331580+874508036+876006218+876854141+876932108
948+878628524+883632946+889911595+893750853+894609350+895334605+897905181
938+901803771+906047327+910406118+914901581+919493989+924368942+929734448
928+935712946+942648944+950579366+958363000+964190994+967073610+967028110
918+964440215+959536167+952410968+944818422+940596759+942589096+949769342
908+957772644+961873470+960520361+956375465+952602971+949597574+946936570
898+946623501+950796463+957328163+961237728+960467201+957073226+954202328
888+954823379+960067876+967386622+972251115+972288041+969202047+966589802
878+966393969+968090842+970766193+974452146+978298149+979780326+977802451
868+974729604+973417194+973966966+975209754+976487411+977236559+977776157
858+979577634+981806560+981376025+979638225+981739453+987970430+992578500
848+992209013+989475930+987665649+987781686+989022416+990181407+990922439
838+991952018+994777130+999768748+1004887492+1007595653+1008282382+1009998804
828+1014047613+1017561169+1015502125+1005987493+994296980+989095925+994696419
818+1007223994+1017673090+1020803898+1019201911+1017745684+1018829109
810+1021770028+1025040994+1026868423+1025285413+1021609864+1020249667
801+1023667079+1028872249+1030862129+1030144990+1031442653+1038014994
793+1048696620+1057365273+1056518037+1044392760+1026290413+1008745841+997131238
783+993372462+994542428+996503270+997024919+995511303+993164054+992142135
773+992128188+990432343+986171125+982227949+982514096+989313708+1002214885
763+1016523931+1025079978+1024574562+1018243440+1012604648+1012104720
754+1015866925+1019324121+1017594665+1007773880+992033186+977668695+970757391
744+971856591+977760838+985247179+992727003+998886644+1003231317+1004901096
734+1001696322+993618711+984863973+981968896+989048710+1002870633+1014751834
724+1019586603+1020451444+1021940825+1023619978+1022616807+1018288139
716+1012883821+1010419507+1011382208+1010901830+1004783688+995262196+990306018
706+996674867+1012517421+1025810949+1025565044+1016606128+1007670762+1000509094
696+995101117+992655438+995500442+1005204277+1018297514+1027083461+1027315191
686+1021254095+1013925632+1009269548+1004072494+991670330+977021292+972089693
676+977382091+979946664+971881628+957422249+941348537+932267412+936209216
666+942149187+941641657+941946553+950804751+962169791+962780039+954637264
656+951574135+956888025+960892820+956637604+948962747+945606268+949407514
646+958162938+962999422+955204699+941200719+935698313+946075958+968773227
636+995810368+1014954754+1011617368+991365549+968431520+949950427+934918698
626+921106150+908542450+900261517+901090863+910949831+919920465+916896948
616+904314613+894135488+893430124+900614314+911915733+924156590+928891556
606+918240511+898381615+882395416+878574736+887803793
##END=
