##TITLE=<SNM>
##JCAMP-DX=4.24
##DATA TYPE=INFRARED SPECTRUM
##DATE=29/4/2025
##SAMPLING PROCEDURE=Instrument type and / or accessory
##ORIGIN=Admin
##XUNITS=1/CM
##YUNITS=ABSORBANCE
##RESOLUTION=4
##FIRSTX=4497.3318
##LASTX=599.83466
##DELTAX=-1.4281778
##MAXY=2.2132933
##MINY=0.67612207
##XFACTOR=1
##YFACTOR=2.06129e-09
##NPOINTS=2730
##FIRSTY=0.69379634
##XYDATA=(X++(Y..Y))
4497+336583560+335464475+334901737+335565392+336502421+336125152+334276829
4487+332173842+330879380+330652619+331407910+332959871+334640624+335535001
4477+335432002+335111929+335397158+336083455+336435827+336622192+337423055
4467+338821731+340059372+340809661+341272349+341401806+341077540+340649205
4457+340472816+340322539+339804765+338901048+337672717+336047107+334336368
4447+333389912+333967686+335785589+337363806+337350504+335676604+333297727
4437+331339061+330523161+330982090+332058727+332652636+332309459+331485001
4427+330849799+330897279+332013646+334385757+337641661+340482792+341193812
4417+339409886+336671812+334626310+333630928+333232261+333028431+332686989
4407+332083623+331569118+331377924+331287214+331317923+331908189+333011688
4397+333822151+333729909+333105117+332975485+333945508+335367837+336096178
4387+336103812+336229279+336443693+335821301+334217551+332632944+331933346
4377+332246653+333351511+334772135+335831103+336249896+336201491+335659890
4367+334763315+334339606+334656557+334459319+332792648+330832767+330277490
4357+331019103+331946792+333015650+334860849+336911643+337457349+335809156
4347+333214535+331270616+330560608+331063142+332512479+333794623+333436438
4337+331447323+329408992+328450825+328403027+328832027+329539317+330165786
4327+330325722+329928558+329017900+328009188+328062857+329959614+332588326
4317+333959330+333611005+332603912+331859234+331791599+332555478+333402201
4307+332943851+331140695+329695204+329979046+331892748+334553442+336924655
4297+337943199+337119377+335132344+333289110+332580288+333314672+334997305
4287+336285868+335897206+334061317+332338404+331991872+332940497+334063659
4277+334303259+333522175+332542697+332366106+333206410+334265263+334763257
4267+334941873+335275999+335728913+336226156+336828538+337403768+337576889
4257+337204130+336615860+336146492+335670329+334915212+334072132+333505577
4247+333007640+332185061+331372488+331224032+331715347+332289680+332450743
4237+331725005+330094508+328614953+328345541+328922737+329279794+329409888
4227+330198404+331693052+332786778+332786229+332381287+332709977+333944033
4217+335124016+335384782+334987011+334729281+334683680+334220414+333091671
4207+331793681+331030293+331169872+331793941+331998292+331808977+332387301
4197+333954472+334952716+334268675+332793631+331981723+332328775+333531341
4187+334996033+336087214+336385658+335811006+334615438+333307993+332350722
4177+331925770+332056008+332535092+332719519+332123499+331226287+330903612
4167+331263474+331840901+332506725+333328899+334141097+334930191+335902295
4157+336704921+336537959+335434576+334411955+334105443+334116287+333702756
4147+332472922+330701343+329413879+329539606+330766000+331872217+332201370
4137+332233641+332695143+333564132+334146417+334092171+333945739+334187999
4127+334227238+333487475+332907301+333641280+334956331+335214292+334446683
4117+334084652+334690331+335626608+336285752+336462401+336113441+335523551
4107+335243324+335415317+335533209+335091832+334173136+333310595+333051390
4097+333551872+334270930+334282786+333399830+332604606+332707346+333152452
4087+332981644+332314259+331914348+331983458+332212561+332370038+332380217
4077+332335136+332501549+333029414+333790488+334597307+335296674+335593990
4067+335105509+333806883+332345315+331697130+332374983+333910432+335147496
4057+335156836+334012478+332692483+332086052+332116559+332078997+331792061
4047+331888555+332814393+334083149+334807991+334682668+334124325+333599005
4037+333143402+332625513+332177659+332061849+332350520+332890616+333260252
4027+333046966+332374636+331876294+332047102+332671894+332976121+332415639
4017+331300168+330424557+330173912+330402812+330988134+331825720+332444006
4007+332338548+331642854+331049263+331182132+332137205+333423513+334344435
3997+334580073+334273764+333594841+332626554+331676426+331291089+331884940
3987+333415272+335308530+336687687+336904298+336099445+335262842+335565479
3977+337361724+339752890+341288513+341145002+339486919+336996744+334640942
3967+333562339+334296868+336010788+337119348+336800258+335521787+334206303
3957+333489384+333600971+334321418+335272038+336464946+338063375+339615451
3947+340394858+340632029+341273823+342357399+342696933+341550493+339692975
3937+338399034+338193931+338832401+339908083+340950107+341225822+340409576
3927+339336092+339188157+339984161+340677253+340969625+341736077+343291826
3917+344415220+343625692+340995678+338103771+336430969+336221761+336992811
3907+338831649+342396899+347374329+351702330+353320277+351945891+348520884
3897+344370862+341003139+339773854+341211046+344132130+346196110+346762665
3887+347195887+347941346+347983014+347385606+347344690+347315484+345741114
3878+343271671+341928370+342544198+344940800+348919234+353316865+355523083
3868+354678673+352775091+351229001+349639767+347544703+345559375+344495202
3858+344912087+347750586+353736526+359812944+359931992+354359438+347604935
3848+342911029+341867444+344373754+348656646+352712228+355958474+358525798
3838+359635109+358401343+355588203+352757568+350692143+349271231+348325209
3828+347940276+348126381+349298094+352378361+356621841+358346749+356221930
3818+353596600+352234648+350282516+346751561+343580757+342767373+344830832
3808+348601185+351757271+353628292+355870135+358728067+359457535+356973982
3798+353739013+351301841+349278402+347485830+346502130+346688610+348014591
3788+350423801+353505023+356276350+358375231+360820673+364338269+367646917
3778+368953350+368660458+368883662+371464808+377015703+384366631+390955936
3768+395154075+397286614+398038262+398326007+399813455+403155472+406447059
3758+407619351+407851576+409803448+414411965+420365200+424923663+426610923
3748+427604281+430933864+436835773+441189220+441260065+440234610+442033428
3738+448429052+458389521+467862984+472606366+472321918+470698621+471281167
3728+474266242+476879861+476958860+475847032+475762857+476185294+475247860
3718+473127523+471828810+472691525+475349818+477929865+478263500+476358270
3708+473924742+472115803+471706900+473226329+476095769+478631545+479575659
3698+479123930+478716414+480240211+484359495+489588380+493590611+494992525
3688+493660762+490452337+486990434+484730113+484294925+485661909+489032379
3678+494797168+501102053+503215999+500426339+497340867+495877939+493497674
3668+488882478+484630873+482899083+482874591+482507529+481456975+481304644
3658+482951970+485136039+486421074+487867924+492015373+499703897+506915652
3648+507045023+500185121+491939786+485861199+482306648+480312067+479302285
3638+479607698+481569488+484710190+488231112+492238837+497311430+501800899
3628+501896496+497464165+492569291+490448520+492150701+496835817+501577666
3618+503493074+503059332+502180916+501000036+499043567+497494469+497873156
3608+499504780+500570458+500677794+500634420+500880439+501396940+502567352
3598+504720104+507406938+509850066+511417034+512323962+513645258+516005223
3588+518184694+518008132+515507634+512846824+511655593+511637144+511062985
3578+509216166+507645323+507879891+509222469+510181157+510964959+512723930
3568+515034276+515778868+514053497+511581972+510288783+510319145+510706622
3558+510696443+510093888+509343339+509546562+511338382+513739062+515349809
3548+516211685+517327561+518766661+519331047+518126052+515809808+513847671
3538+512674252+511665945+510821361+510897064+511770679+512300077+512077711
3528+512046540+512842082+513543820+512884068+510985894+509065397+508031643
3518+507942755+508198547+508020308+507245412+506565650+506665122+507648041
3508+509432979+511495166+512259479+510594658+507786145+505882419+504893254
3498+503603823+502090003+501796099+503491975+506310783+508800062+510108751
3488+510274787+509906973+509351493+508282809+506533438+504780654+503646561
3478+502812156+501867175+501210951+501291859+501748387+502059930+502142110
3468+501653774+500116589+498371208+498052610+499278598+500623027+501178334
3458+500887379+499461985+496956050+494645358+493701938+493871792+494156038
3448+493913836+493246740+492788360+492903158+493184512+493126680+492735270
3438+491843495+489731919+486500536+483950967+483807080+485529704+486771596
3428+485861835+483305500+480916878+480080275+480755468+481646231+481418285
3418+480172373+479294102+479706533+481035521+482457908+483518901+484028289
3408+484022823+483931506+483987170+483682943+482616803+481375749+480569826
3398+479857620+479041866+478824329+479644739+480941197+481841733+482007394
3388+481798157+481806889+482194482+482664399+483234106+484352323+486019255
3378+487665395+489011502+490210482+491163849+491446476+490919276+489985341
3368+489266195+489133297+489576350+490643011+492691086+495662513+498446390
3358+499774973+499650287+499168023+499004993+498889618+498548522+498319795
3348+498545978+499046401+499490380+499737787+499728650+499509928+499110653
3338+498099917+495973999+493332852+491718577+491978765+493525203+495338941
3328+497082529+498865154+500227222+499957724+497382679+493433076+489848683
3318+487902508+488085895+490107772+492829190+494701976+494789071+493574649
3308+492591325+493005347+494607073+496194224+496721540+495893901+494120529
3298+492393481+491745238+492302453+493212445+493819511+494299983+494904505
3288+495476293+495992042+496687592+497468156+498037168+498593169+499565678
3278+500867080+501959938+502235105+501318288+499647164+498402900+498282551
3268+498715137+498655570+497887151+497200334+497239834+497472320+496803430
3258+495063948+493271781+492443622+492715665+493558109+494328378+494666235
3248+494542994+494062003+493466676+493169013+493212676+492932189+491869577
3238+490684245+490428337+491266039+492401693+493127663+493567594+494154419
3228+494593019+493871850+491602218+488921167+487269417+486689358+486286787
3218+485804928+485670930+486029896+486677850+487401506+487791701+487507050
3208+486973489+486790276+486563342+485506050+483853635+482485234+481654761
3198+481140747+481120882+481960521+483322792+484172349+483744071+482220275
3188+480409515+478878518+477554013+476224042+475123000+474627839+474557284
3178+474270927+473492243+472660816+472250582+471932880+470778690+468511227
3168+466293096+465780296+467377713+469628664+470413392+468849952+465998353
3158+463680056+462839289+463111535+463568381+463502308+462666081+461305921
3148+460094073+459543364+459377703+458984992+458381078+458040416+457908645
3138+457385754+456358333+455445738+455043659+454838209+454381998+453497481
3128+452169448+450747899+449993852+450235099+450817760+451011528+451029456
3118+451443854+452025647+451922937+450850523+449553892+449077266+449748353
3108+450799948+451013697+449941513+448380126+447440321+447391886+447619226
3098+447454606+446755788+445772609+444755309+443812815+443000472+442436086
3088+442263717+442449214+442772555+443087163+443351630+443411805+443126662
3078+442656803+442241451+441843854+441353175+440953322+441003058+441566143
3068+442070846+441579299+439814458+437777515+436797950+437174410+438168982
3058+438999831+439391877+439471425+439501758+439558000+439395231+438755374
3048+437706497+436551787+435499932+434495326+433351662+432128536+431339702
3038+431514732+432518731+433624457+434301732+434569004+434520078+434018874
3028+433132217+432409717+432282804+432410555+432089268+431221175+430398162
3018+430047930+429932178+429543458+428687192+427626228+426847949+426566883
3008+426434447+426047231+425637922+425778252+426448356+426878629+426385261
2998+425133971+424003464+423686542+423972610+424136478+423890083+423429420
2988+422800203+421958569+421173032+420643692+420079422+419231454+418399680
2978+418008473+418142962+418691213+419457810+420035411+419913905+418867082
2968+417167851+415440080+414375415+414452043+415714176+417643204+419245074
2958+419592010+418622566+417302600+416638309+416576139+416278909+415460119
2948+414808174+414908282+415359317+415287692+414394789+413169754+412235704
2938+411809479+411736466+411723772+411500944+411025272+410574296+410418987
2928+410453802+410400278+410272411+410329404+410616918+410836160+410700746
2918+410220419+409528079+408645239+407676807+406988949+406837630+407046723
2908+407295923+407441140+407469304+407426219+407375587+407244597+406883491
2898+406393102+406059120+405903319+405678033+405282489+404843628+404437529
2888+404035825+403692359+403533494+403616743+403912093+404322298+404649514
2878+404642574+404169881+403330733+402397868+401669007+401334591+401422670
2868+401818764+402298599+402583163+402520039+402212458+401847015+401498025
2858+401193422+400986469+400872192+400799092+400708064+400403548+399690475
2848+398872118+398655073+399254621+400058491+400358814+399971395+399114117
2838+398180818+397652780+397777785+398272338+398606176+398529287+398101415
2828+397370240+396366125+395348680+394700900+394498198+394461416+394412721
2818+394453522+394602440+394606055+394283524+393801665+393432607+393239678
2808+393165190+393228951+393398862+393431711+393162472+392842428+392851363
2798+393179128+393485640+393524619+393260961+392797550+392376328+392160584
2788+391940821+391420128+390750111+390330884+390171613+389918828+389464121
2778+389084770+388944237+388812697+388423832+387872401+387477319+387420007
2768+387647259+387949260+388054746+387848950+387488105+387136628+386747041
2758+386253008+385734801+385259245+384809078+384404107+384066337+383733280
2748+383388628+383158253+383130117+383183583+383102242+382802844+382424909
2738+382201763+382217638+382320956+382316156+382163247+381921970+381596547
2728+381167489+380748291+380554061+380646188+380820900+380823849+380583498
2718+380192378+379769073+379394088+379130488+379044636+379156137+379371216
2708+379523459+379498591+379289730+378936895+378496183+378110036+377968810
2698+378040319+377991017+377639483+377305501+377326581+377434699+377096379
2688+376333657+375715487+375586058+375720374+375750273+375607716+375434190
2678+375269021+375025460+374691507+374342778+373987918+373607555+373299829
2668+373167913+373112886+372977211+372829015+372845122+372979727+373040566
2658+373062543+373247548+373480613+373307521+372563189+371689920+371252100
2648+371376151+371724273+371832679+371536549+371166479+371120503+371246924
2638+371068511+370614961+370457021+370835447+371334135+371546236+371537358
2628+371470331+371272573+370910137+370583124+370405001+370209440+369874070
2618+369568166+369538758+369829308+370229046+370391410+370131540+369677556
2608+369432434+369504637+369703118+369884075+370014574+370020473+369874475
2598+369717865+369675850+369686289+369636119+369511895+369337386+369094259
2588+368755506+368337407+367966817+367888136+368238716+368827999+369301501
2578+369480377+369429021+369283053+369108717+368879961+368575474+368299440
2568+368217665+368359036+368600949+368806398+368886178+368842688+368801569
2558+368847141+368831122+368550895+368119321+367946518+368294929+368990161
2548+369617382+369886331+369739784+369243871+368565353+368010249+367858034
2538+368081296+368339662+368333272+368122646+367976561+367948368+367841031
2528+367617365+367546983+367797368+368154165+368341860+368369677+368335990
2518+368155235+367780105+367477526+367549614+367925033+368318264+368638424
2508+368926776+369052677+368841329+368418632+368101797+368013979+368063975
2498+368206329+368470421+368795005+369015231+369000744+368802263+368696632
2488+368919605+369263505+369244507+368796191+368392955+368373060+368590452
2478+368815218+369025843+369213683+369259283+369116264+368891441+368694088
2468+368557864+368522962+368654068+368903036+369075434+369047501+368901446
2458+368743187+368548032+368274196+367946575+367614068+367403992+367510230
2448+367932927+368397784+368703630+368940164+369234242+369500097+369556021
2438+369342475+368948550+368528138+368267487+368340356+368737028+369155561
2428+369250985+369037323+368888751+369106143+369610124+370078219+370285606
2418+370251224+370086055+369844692+369629902+369669633+370073332+370651106
2408+371162518+371586603+371995506+372359532+372611855+372718613+372616453
2398+372290076+371963207+372055392+372918569+374675487+377314870+380989539
2388+386253962+393849839+404125842+416800991+431440967+448016476+466771022
2378+487620517+509884939+532554477+554503539+574408747+591143873+604861943
2368+616850999+627452482+635163040+638873739+639567322+638437625+634790079
2358+626329551+611469234+591240222+568475897+546458593+528692605+518222112
2348+516793710+524404103+538169884+552210774+561843392+567115333+570465794
2338+573474696+576073105+577736653+578854726+580348305+582443976+584371067
2328+584934701+583365188+579871535+575204636+569799160+563700852+556924055
2318+549458532+541488017+533759877+527034088+521039589+514609323+507088860
2308+499020145+491201382+483727965+476267965+468782982+461570562+454862990
2298+448767979+443424875+438815751+434504984+429998772+425382737+421210565
2288+417745510+414714688+411887987+409482883+407757975+406538232+405434010
2278+404292399+403196186+402244208+401539838+401173181+400998383+400602057
2268+399706668+398552305+397696386+397379956+397237688+396797584+396124010
2258+395657072+395520703+395379274+394976471+394464655+394114220+393951450
2248+393837347+393754762+393796344+393922621+393987075+394002140+394137989
2238+394456587+394842647+395134469+395169458+394833857+394228583+393684727
2228+393501572+393674029+393864037+393674260+393037468+392278071+391712615
2218+391347085+391068998+390904523+390870257+390748058+390285052+389573829
2208+389016499+388892650+389109724+389419995+389731654+390074310+390379116
2198+390512188+390481161+390410895+390381603+390457566+390734814+391181020
2188+391615572+391997960+392497429+393156602+393756902+394126625+394341530
2178+394552068+394828189+395193921+395616387+395959130+396110882+396162208
2168+396301469+396539651+396726450+396844457+397047130+397360351+397604230
2158+397674496+397672819+397686091+397650264+397544749+397558195+397893739
2148+398464168+398950596+399178485+399276655+399412243+399548236+399577470
2138+399552891+399653549+399981227+400459790+400908800+401206001+401390197
2128+401587347+401861357+402173016+402451392+402688910+402998313+403512963
2118+404170199+404753005+405244146+405881170+406721879+407478644+407947000
2108+408265280+408616063+408996021+409355420+409670665+409885888+410029833
2098+410296729+410788651+411314376+411644252+411806154+411960769+412140859
2088+412276129+412383928+412599932+413016614+413526638+413884678+413964863
2078+413893845+413888900+414059303+414407020+414890036+415413882+415879982
2068+416288539+416694435+417091049+417459355+417861984+418326407+418726578
2058+418960568+419151067+419483922+419958812+420461665+420940893+421373652
2048+421718507+422035630+422535562+423416725+424686840+426099193+427249161
2038+427881500+428145939+428435303+428993616+429791385+430710052+431681087
2028+432667881+433663638+434731947+435983671+437484450+439190967+440942941
2018+442495277+443662248+444524037+445418617+446627661+448118579+449682366
2008+451272843+453015448+454893497+456690262+458271110+459688292+461002388
1998+462262382+463686793+465521438+467588599+469268080+470162775+470599930
1988+471234959+472392040+473930236+475477397+476710672+477640530+478630736
1978+479998298+481725172+483605650+485421673+487053587+488739632+490947035
1968+493605879+495940861+497552591+499049004+501094997+503524477+505823719
1958+507947150+510172135+512500119+514647608+516521377+518412380+520659573
1948+523312112+526289149+529670203+533374366+536656758+538731148+539937936
1938+541317989+543221137+545182002+546911768+548692369+550860620+553423057
1928+556213989+559186631+562362264+565504817+568282679+570878023+573653283
1918+576139901+577490981+578011877+578886592+580679395+583031785+585238899
1908+586703099+587392924+588017745+589278490+591077945+592781802+594007617
1898+594907199+595823842+596919303+598295945+600226505+602636901+604488462
1888+604706027+603732650+603018132+603348759+604352960+605204137+605528866
1878+605731973+606385364+607476660+608790959+610719379+613647201+616471792
1868+617001710+614809921+611986024+610418882+610103985+609858371+608857697
1858+607410558+606416651+606250614+606320244+605833064+604769007+603899208
1848+604183801+606045136+608391453+608694090+605982792+602359305+599798488
1838+598208329+596621004+595008811+594560263+596101611+598464526+599088364
1828+597140454+594260749+591621685+589015180+586503925+584785551+584055996
1818+583750352+583230612+582347801+581460248+580962311+580726124+580214192
1808+579311486+578664631+578987683+580270983+581751376+582605676+582653330
1798+582418299+582765987+584484302+587482680+589931013+589677649+587372914
1788+585464619+585056149+585642685+586662327+588143357+589792562+590759346
1778+590957480+591732954+594681306+600013046+605617986+608634811+608672055
1768+607090398+605018900+603791813+604693593+607413912+610123359+611860759
1758+613148339+614253689+615290681+617210716+620829750+625305802+628486525
1748+629236784+628354725+627227167+626979644+628170644+630235491+631845371
1738+633186214+636614864+643401204+650067657+651339622+648252588+644625342
1728+641976793+640792559+641193337+642455992+644122663+647307780+653424132
1718+661255907+665883596+664316975+659639955+655761485+654216493+655125445
1708+658122492+662174806+665817089+669137245+674014769+680603785+684910793
1698+684166028+680689492+676519316+672575900+670601908+671686380+674992079
1688+679178506+684539393+691347594+695888476+694444633+690206272+687537192
1678+687895637+690774706+694343426+697053914+699592176+702759019+704521403
1668+702670883+699638442+699219678+701559460+703358510+702349971+700588281
1658+701331196+706186397+715462651+726431891+730601489+726624299+723179282
1648+723648650+725224235+724238251+721723757+720786352+722575917+726877084
1638+732980655+738805300+740489378+737283441+733584887+732708206+734804803
1628+738561247+743137870+748696659+754736441+759682728+763529506+768410963
1618+775476054+782785025+787529940+790176233+792294575+793691458+794015898
1608+794446807+796226830+798611200+799817757+799468912+799050611+800022889
1598+802041990+803390121+803082568+802071947+801988669+803155090+804495586
1588+805217334+805738346+806809980+808655353+811201597+814478552+818656594
1578+823620231+828012021+829881800+830154363+831713582+835320761+838918628
1568+840376119+840542850+841358634+843612592+848156655+857157859+871005994
1558+880876649+879154633+872891040+868528166+866935578+866903250+867249203
1548+867463934+867715794+868809694+872259568+879309508+887087325+886998206
1538+877903661+869032695+864896466+864048991+863533820+862077023+860407807
1528+859875576+862114787+867967365+875711698+881286276+881600595+878826376
1518+877637053+879629668+883505246+887508923+890817976+893945782+898459945
1508+905333670+911315619+910603124+905516478+902488548+904047709+909070104
1498+914077866+915859682+914798284+913904543+915302120+919308284+924687330
1488+929207566+931248644+930688480+928604086+926645303+925769143+925747167
1478+926812439+930550839+937735007+946150311+951532712+951731887+949191774
1468+947365427+948056524+950798762+952707114+951996470+950332286+949402920
1458+948529651+946414316+944221081+943469029+943315715+942457657+940660284
1448+938138504+934804583+931128237+928378192+927286549+927832428+929921796
1438+932889233+934651443+933706057+931914295+932096062+934246096+935426223
1428+933852373+931684180+931717607+933566219+935033426+935797160+936955658
1418+937769533+936262942+932841116+929894384+929350702+931261483+933526199
1408+933936751+932937812+932712613+933901589+934969116+934390504+932589141
1398+932015270+934459613+938099236+939309609+937789370+936544528+937228454
1388+938330334+937434453+934775089+933141382+934858772+940215785+947230331
1378+952637079+954774274+954980620+955114965+955829021+957745181+961500006
1368+965986699+969361912+971996176+975097842+977732106+978078291+976760060
1358+975848622+976170632+977681792+980579425+984693042+988675726+990884344
1348+990929569+989812016+988732749+988814524+991053793+995504457+1001117551
1338+1006064648+1008841180+1010070002+1011779989+1014664552+1017502040
1330+1019573364+1021722646+1024437876+1027338285+1030603270+1034838103
1321+1039596319+1043484852+1046028320+1048375273+1051126012+1053402872
1312+1055660995+1059851066+1065193967+1067331220+1064154141+1059586772
1304+1058599226+1061864673+1066589925+1070251177+1072575575+1073741823
1295+1072810837+1069540995+1065203105+1060878978+1057132944+1055558169
1287+1057235770+1060159312+1060916801+1057797901+1051658185+1044890178
1278+1039543229+1035884984+1032838491+1030114008+1028703592+1029033352
1270+1030176814+1030391256+1028250880+1024020789+1019372107+1015632551
1261+1012950979+1010633058+1007776023+1004129576+1000223809+996652776+994276097
1251+993771914+993498599+990174972+983127057+975188523+968445211+962263335
1241+955785242+949412578+943202191+936366057+928850914+921579477+915131804
1231+909408307+904313102+899781473+895202595+889563707+882438702+874697954
1221+868225876+864489847+863223434+863107364+863450599+864275809+865167006
1211+865465826+865308348+865177069+864841930+863914184+863112569+863997057
1201+867369147+872086765+875863508+877926678+880025819+883740624+888125648
1191+891317243+893384519+896017395+899929292+903780524+906162523+907905880
1181+910967584+915689018+920003371+922089385+923081557+925469282+930190948
1171+936125937+941339699+945155826+949441320+956650241+966032213+973123792
1161+974711522+972870139+971515127+971709096+972288924+972919990+975153014
1151+980718223+988901272+995892975+998261673+996827083+995416667+996831478
1141+1000915832+1005108447+1005683301+1001714612+997641710+998868450+1005761143
1131+1012655687+1013755775+1009975966+1007364835+1010446838+1018573789
1123+1027040102+1031202066+1030754212+1028897677+1027439608+1026306209
1114+1025571159+1025715509+1026884185+1029219457+1033561280+1039752235
1105+1045166964+1046881116+1044681172+1041509414+1041131421+1044496340
1097+1048090506+1047941530+1045705384+1046226916+1050078552+1052541632
1088+1050576373+1045956376+1040408170+1034856031+1033114004+1038963054
1080+1049130332+1053638481+1047940026+1039211849+1034554840+1032923620
1071+1029775110+1023803802+1017135036+1011664672+1007565860+1004960165
1063+1004576621+1005634953+1005773404+1004195737+1002947136+1003585143
1054+1004927201+1005390785+1004526769+1002190226+998693102+995459694+994386673
1044+996548678+1000947524+1004490682+1004378603+1001236686+998920846+999957087
1034+1002055245+1001224194+997316114+994042917+994322594+997551954+999944710
1024+999393452+999616570+1003893273+1008390087+1007597668+1002165936+995947800
1014+989839776+983000173+977363483+976743057+982553129+991257594+996746812
1004+996314457+991516568+984428054+976502128+969362837+964003569+959303937
994+953073887+945432554+938910103+935241044+933727108+932429697+929781553
984+924456984+916120448+907438132+902826926+904322933+909288826+912193109
974+909319650+901870552+894134662+889254883+886994100+884812547+881027534
964+876747187+873971580+872890982+872228396+870880671+868272373+864822267
954+862641409+863706160+867282572+870821161+873250757+875698917+879058978
944+883072197+887060665+890643091+894314695+898692374+903201622+906800993
934+909788960+913275153+917369396+921621290+926410446+932099879+937854663
924+942738953+946750727+950360045+953947445+957214801+958478611+955898883
914+950858502+947346111+946852165+946841350+944995457+942165430+939831084
904+938119593+937270035+937720318+937991841+935873672+932693760+932977254
894+939028081+948289242+956599811+961794257+963674619+963410151+963010587
884+963254235+963006712+962313476+963623263+968254769+974288420+978601443
874+979406122+976363099+970975551+967308747+968632703+973232285+976706044
864+978001837+979098801+979929043+979389466+979017604+980222368+981830455
854+982068378+980039618+976628086+975633138+980802890+989470111+993159470
844+989208593+985421961+988091503+994026493+995691487+990413357+982398369
834+978446683+983193102+995931954+1010350720+1018033751+1014140360+1001458993
824+989831564+988234581+997008792+1007595355+1012276885+1012440319+1013317984
814+1015979198+1017762401+1017783684+1018347665+1021721143+1027964147
805+1033428959+1034402856+1031812197+1029675870+1028649229+1024926097
797+1018195103+1013800768+1015025889+1019408079+1022755417+1023164060
788+1020759969+1017096172+1014652523+1014005032+1013090124+1010277273
780+1004494846+995770254+988640911+987954441+992066785+994305592+989773153
770+979142869+967411110+960009839+959326260+963864771+970434587+977811105
760+987336907+998832825+1008210807+1011465266+1010939569+1010955763+1011559764
750+1011767845+1010697946+1007827957+1004605653+1004733809+1010100422
741+1015475247+1012927615+1004365186+1001020971+1008675432+1019949622
733+1022743503+1015163993+1005073285+1000458262+1003916406+1011013248
724+1012952714+1005806947+994379270+987106271+989728738+1001330258+1016389808
714+1029918187+1041735423+1054078701+1061007713+1051712432+1028991366
706+1008523333+1000338665+1003119592+1010353496+1015854627+1016180686
697+1011242958+1002804290+994432707+988764209+987629770+993583959+1004832355
687+1012344086+1008111451+993298730+975726248+963813243+961884360+968898964
677+980666174+991771146+996612409+993276869+983869856+969426048+953340841
667+944163307+942218462+939980176+935620193+933984636+939963520+953650765
657+969893044+980863151+981920674+975642392+964239641+952216233+947810910
647+951803079+954187796+947417650+936722594+929321554+926798790+930787200
637+941928143+954660576+959702286+954903588+950074411+950507576+953813158
627+955751873+952279270+943494938+933019587+926036213+926849741+935334096
617+943907688+944216397+937369160+933804546+939394623+946621645+950268901
607+955290371+959745545+954419993+936722594+922984803+921048691
##END=
