##TITLE=<SNM>
##JCAMP-DX=4.24
##DATA TYPE=INFRARED SPECTRUM
##DATE=29/4/2025
##SAMPLING PROCEDURE=Instrument type and / or accessory
##ORIGIN=Admin
##XUNITS=1/CM
##YUNITS=ABSORBANCE
##RESOLUTION=4
##FIRSTX=4497.3318
##LASTX=599.83466
##DELTAX=-1.4281778
##MAXY=2.2428451
##MINY=0.6972999
##XFACTOR=1
##YFACTOR=2.0888122e-09
##NPOINTS=2730
##FIRSTY=0.71224689
##XYDATA=(X++(Y..Y))
4497+340981771+339848210+340186352+342702243+345330533+344832936+341129269
4487+337829774+337889784+340871825+344267398+346004620+345507451+343398473
4477+340919992+339004311+337824010+337474540+338213572+339544653+340065763
4467+339045259+337488836+336818687+337157571+337652085+337859051+337930332
4457+337954701+338110646+338940677+340523467+341956447+342389269+341951225
4447+341134919+340081885+338925183+338068842+337782406+337945627+338428071
4437+339374441+340628562+341381035+341202405+340847655+340984738+340816780
4427+339354038+337247970+335928018+335984860+337334774+339673518+341917496
4417+342571723+341585518+340493819+340117754+339822243+339103128+338327456
4407+337984206+338308480+339446464+341092059+342261574+342173486+341181346
4397+340446279+340627620+341044177+340415661+338535963+336743810+336500833
4387+337969796+340022161+341177950+340576029+338493474+336125367+334816316
4377+335202625+336718500+338018734+338124257+337164276+335908015+335030986
4367+334995574+335993963+337662187+339244834+340245848+340650620+340558023
4357+340154593+340029380+340865889+342434525+343181948+341625781+338321892
4347+335528383+334751883+335554863+336753227+337838420+338943588+339989517
4337+340393917+339761863+338598141+337937808+338256175+338963848+339016096
4327+337929590+336190456+334787124+334568316+335881962+338087418+339616847
4317+339531727+338629844+338208522+338538417+339032047+339106695+338660662
4307+338194111+338350142+339027909+339340912+338724409+337662244+337103411
4297+337344048+337680221+337395469+336844882+336893791+337535862+337849749
4287+337318053+336435031+335798411+335425884+335334829+335884217+336980795
4277+337847637+338143319+338379533+338764387+338643712+337474111+335603259
4267+334146595+334406893+336672301+339385826+340520071+339943889+339277079
4257+339477938+339783150+339176121+337789654+336315098+335018602+334138320
4247+334431119+336400076+339343765+341750879+342530347+341730420+340276609
4237+339112174+338546549+338429498+338736023+339356949+339582034+338889656
4227+338063420+338376537+339782779+340864976+340522639+338952577+337069454
4217+335771360+335644350+336579990+337626889+337814565+337174692+336525745
4207+336438741+337090399+338686857+340946216+342689002+342983286+342245594
4197+341417132+340726095+339856086+338688455+337500278+336688795+336312473
4187+335965827+335483012+335477904+336535133+338188233+339295313+339298651
4177+338678068+338180129+338026638+337986090+337875373+337764457+337925167
4167+338615176+339555240+339803068+338620541+336393598+334399845+333826031
4157+334992378+336987729+338237799+338085478+337448601+337539771+338593433
4147+340031606+341135062+341477883+341113289+340205385+338711711+336991353
4137+336155301+336907888+338536819+339768483+340139440+340036514+339842675
4127+339461416+338540386+337070510+335650485+334984588+335323871+336448557
4117+337742085+338420224+338176191+337321306+336215824+335132999+334512559
4107+334702318+335525272+336533421+337614191+338901099+340247560+341324963
4097+342064082+342472763+342332398+341591111+340703924+340264253+340558366
4087+341293432+341484989+340357991+338619457+337726905+337979527+338492418
4077+338609098+338204926+337282669+336330079+336270669+337196949+337924739
4067+337459758+336164061+335068110+334844537+335621893+337021914+338265620
4057+338842231+339011930+339295484+339810515+340290420+340375997+339927025
4047+339320452+339057215+339030392+338846226+338612494+338671619+338996036
4037+339391876+339718604+339667583+339152465+338864774+339483930+340462288
4027+340501923+339347247+338247986+338163493+338430925+338173794+338077488
4017+339272484+341155122+341901374+340857671+339163138+338133274+337898772
4007+337637276+336862174+336178757+336451125+337508553+338297352+338366150
3997+338371943+338786787+339078731+338699612+338008832+337562314+337286778
3987+336920900+336631981+336722152+337180113+337665468+337716889+337238040
3977+336785843+336918160+337551356+338388493+339385256+340344238+340759738
3967+340558708+340338816+340505718+340829821+341060499+341333210+341698945
3957+341813885+341484161+340989732+340771067+341175867+342132909+342809478
3947+342418032+341488926+341225119+341830150+342455870+342445997+341765746
3937+340810246+340512766+341751222+344079836+345709537+345392112+343858231
3927+342789931+343082217+344234411+345079366+345136693+344899680+344973444
3917+345358383+345437797+344710948+343539836+342763051+342753463+343438365
3907+344983716+347605472+350737865+353250245+354655375+355114620+354465816
3897+352522170+350074365+348584001+348821099+349772348+349486312+347969923
3887+347238595+348181940+349548804+350372586+351177678+351530972+349926153
3878+346983890+345252660+346306151+349796033+354296402+357748760+358125396
3868+355992049+353966507+353174855+352560835+351097294+349272612+348023313
3858+348142076+350956045+357563310+364386073+363807551+356461224+348772390
3848+344568529+344557258+347423988+351150512+354587832+357729071+360298836
3838+361020491+359342565+356791433+355151031+354525426+353703042+352194301
3828+350914583+350788458+352182230+355472451+359923256+362181045+360351911
3818+357093707+354546656+352031850+349036112+346887584+347080796+349774945
3808+353369266+355816415+357415013+359935897+362730034+363020351+360972580
3798+359252565+358247898+356425327+353726127+351889773+352099193+353934890
3788+356186316+357941145+359102184+360563528+363476371+367577848+370738804
3778+371504517+371228268+372191616+375468968+380855669+387098597+392276363
3768+395379080+396823645+397155081+397034035+397676990+399747531+402222017
3758+403594246+404373427+406766388+412320933+420209057+426669509+429016528
3748+430068135+433854240+440376357+445267801+446667566+447889585+451747029
3738+458140023+464525541+467838534+467380059+465398490+464663452+466327653
3728+469875860+473823617+476701990+478051762+477946524+476023880+472308599
3718+468460886+466947836+468967471+473211195+476431591+476527241+474911036
3708+473716068+473919410+476116106+479527573+481302290+479995721+478267687
3698+479004409+481882410+484925802+487631794+491421723+496747701+500523363
3688+499440681+495024005+490674900+488327995+488631667+491112858+494730492
3678+499041074+503687801+507108941+508064585+507135878+504650007+500562741
3668+496058519+492415204+490127424+489643581+490741729+491837024+491757925
3658+490924355+489895947+489146556+490363011+495413168+503427217+509016918
3648+507379227+500893921+494326320+489907018+487672827+486531477+485528694
3638+484719379+484392651+484399043+485335225+489139593+496508063+503223077
3628+503273755+498330491+494135020+492907607+493901088+495605209+496670371
3618+496815158+497313668+499369799+502605975+505360876+506133380+504791142
3608+502507015+500773845+500362596+501237599+502962151+504578213+505406247
3598+506330673+508556474+511334717+512751888+513009961+514523980+518481126
3588+522755126+523998404+521683287+517737727+513815509+511074590+510483798
3578+511754584+513032960+512947640+512261939+512677583+514879700+518097727
3568+520783687+521582672+520453307+518429306+516260289+514233606+512789669
3558+512586841+514022674+516699389+519048120+519260593+517621589+516579941
3548+517561608+519195704+519446528+518587163+518496249+519732222+520752755
3538+519923522+517840111+516667030+517614056+520045596+522081981+521586153
3528+517755305+512151051+507420888+505233894+505560736+507325637+509706670
3518+512626334+515547423+516594436+514265737+509626087+505471535+503641517
3508+503915454+505302150+507419918+510169796+512871337+514631044+515126586
3498+514246904+512011229+509432676+508082904+508256912+508623132+507952042
3488+506477857+505310597+505079975+505475815+505628250+504960755+504090090
3478+504248175+505677502+507233925+507589417+506197642+503364212+500312317
3468+498708068+499066185+500099958+500489006+500500877+500796273+500685728
3458+499227694+497314182+496576262+496705241+496070504+494812160+494685349
3448+495741037+496142070+495514011+495414138+496340618+497022267+496608221
3438+495600073+494740137+494358507+494377169+494231925+493356237+491929136
3428+490472357+489068654+487768363+487214153+487896714+489164704+489686441
3418+488640627+486265187+483747527+482652689+483800774+486474692+488913651
3408+489582231+488186232+485875796+484256424+483995441+484649296+485517850
3398+486223126+486772029+487337311+487849118+488077342+488331705+489368673
3388+491216098+492875362+493561577+493340942+492464513+491143105+489957697
3378+489501134+489718971+490400163+491958641+494926414+498754695+501631099
3368+501868569+499655950+497259965+497020840+498973332+500654225+499776140
3358+496899851+494449249+493828209+494725698+496338621+497915703+498689635
3348+498515342+498087371+497830726+497537099+497452007+498204651+499323972
3338+499500376+498629996+498177029+499328423+501679609+503663717+503913457
3328+502295455+499819229+497761556+496702330+496203992+495598703+495007112
3318+494949927+495202464+495082102+494681982+494799148+495715070+496846661
3308+497594568+497916845+498047993+498150833+498251049+498266401+497878208
3298+496615526+494681754+493333923+493626066+495043979+496215805+496722533
3288+497295291+498265602+498818785+498279013+497465532+498031100+500760833
3278+504996539+509240063+511946055+512380474+511117050+509240691+507174173
3268+504832005+502520712+500916064+500226483+500179343+500676197+501644796
3258+502540629+502585429+501446647+499627929+498117561+497514442+497564093
3248+497514613+496907669+496071646+495744689+496101950+496391411+495839655
3238+494646884+493747740+493889674+495070346+496488773+497051316+496359509
3228+495069262+494050270+493679084+493882027+494358336+494863123+495412026
3218+496071817+496529635+496089851+494247334+491258616+488228293+486572282
3208+486891249+488317608+489312859+488979967+487420748+485364103+483855048
3198+483638352+484397844+485209499+485813075+486601103+487428224+487621864
3188+487070735+486203037+485158136+483853963+482600013+481859582+481616463
3178+481357078+480409652+478412275+475851613+473865022+473125105+473210282
3168+473379011+473508760+473810434+474067422+473754448+472666344+471046088
3158+469355464+468159611+467872918+468352623+468990413+469223546+468780651
3148+467698625+466389346+465398518+464831096+464259422+463339362+462248462
3138+461320098+460499312+459556196+458733156+458546650+458936668+459264994
3128+459095980+458492946+457766811+457332135+457409608+457618914+457350312
3118+456547731+455616799+454769847+453985814+453312555+452816499+452425653
3108+451882628+450936487+449810460+449150669+449202346+449458050+449448120
3098+449299081+449197752+449005910+448682293+448435463+448280318+448029522
3088+447759893+447778555+448202930+448896649+449640447+450198852+450382476
3078+450241541+450034718+449851950+449557067+449032191+448234947+447229053
3068+446290274+445760803+445585826+445175775+444025864+442327678+440812289
3058+440089635+440162171+440501483+440587916+440463332+440682482+441533658
3048+442446356+442557871+441818867+441014632+440673893+440530618+440156350
3038+439529318+438732102+437682806+436565796+436038295+436434335+437099090
3028+437061167+436144046+435003695+434295451+434174691+434391044+434542794
3018+434320734+433665680+432759745+431984330+431731536+431886682+431720436
3008+430827142+429867561+429786350+430609619+431461565+431511644+430646058
2998+429467812+428795380+428958402+429434825+429236648+427879058+426072866
2988+425177518+425752473+426905580+427403034+427135774+426859068+426789385
2978+426389807+425505730+424742670+424479833+424334417+423898114+423310175
2968+422798482+422264475+421559256+420681115+419645687+418619704+418091347
2958+418458652+419498959+420533388+421126264+421485864+422096545+422965727
2948+423411104+422791834+421317307+419842294+418927000+418393306+417783709
2938+416934102+416019378+415350856+415228954+415698101+416366851+416732216
2928+416721258+416685504+416859825+417043335+416859055+416202118+415322207
2918+414506728+413873333+413424360+412997017+412256073+411237138+410731323
2908+411413999+412701792+413230292+412488891+411236282+410334057+409985528
2898+410065512+410459269+410942655+411182065+411077227+410888695+410864583
2888+410919228+410834307+410564164+410184504+409785667+409502256+409402868
2878+409349279+409203778+409039501+408904216+408638895+408107028+407330072
2868+406454584+405778272+405523138+405522111+405509641+405612939+406097010
2858+406832475+407401524+407472577+406892770+405765402+404546693+403777242
2848+403616332+403771392+403938779+404171484+404660605+405291747+405702967
2838+405708503+405349159+404652644+403700853+402786072+402166288+401773986
2828+401409078+401040432+400720353+400446529+400265844+400223213+400097116
2818+399597493+398927316+398637398+398820195+398961159+398726057+398412655
2808+398399529+398522002+398301910+397620690+396806980+396124333+395575659
2798+395170716+394944032+394766943+394519086+394300621+394214245+394177349
2788+394143877+394246832+394581550+395033547+395360931+395369349+395040709
2778+394522853+393968357+393408782+392820558+392254134+391814607+391539100
2768+391384040+391364379+391560187+391939648+392376294+392792850+393036484
2758+392797901+391996633+391035796+390329693+389795857+389123083+388348780
2748+387840141+387750883+387823562+387803131+387716384+387628267+387470867
2738+387284589+387294291+387536526+387675179+387414995+386968962+386823489
2728+387004859+386913803+386118156+385037500+384483604+384723613+385306445
2718+385634399+385433597+384767015+383869213+383027625+382471845+382252381
2708+382241994+382293386+382364381+382485000+382681521+382962907+383292403
2698+383522767+383440557+382973265+382301718+381676255+381226341+381010900
2688+381043088+381159426+381098161+380829759+380611750+380624762+380692533
2678+380470815+379888497+379249623+378825476+378564978+378324141+378102366
2668+377936662+377858305+377982261+378360638+378813976+379091367+379049335
2658+378650270+378024265+377426396+376922236+376358895+375790845+375530861
2648+375614355+375613841+375200281+374635370+374443727+374684536+374852151
2638+374604666+374270804+374365455+374903657+375502383+375876194+375917998
2628+375578058+374992716+374501739+374303306+374271261+374211051+374107868
2618+374043835+374007938+373902700+373740449+373714710+373924872+374092545
2608+373812814+373146889+372690326+372882539+373455753+373785335+373622542
2598+373197795+372781867+372517345+372542799+372905281+373418686+373842548
2588+374100192+374223578+374267922+374327988+374431457+374405347+374060443
2578+373516505+373123461+373043506+373136873+373244222+373304089+373231838
2568+373023360+372940665+373240284+373747183+373984168+373716308+373223705
2558+373046730+373448962+374086010+374339488+374049856+373667370+373576629
2548+373606134+373398455+372974336+372644270+372552130+372602466+372712983
2538+372852177+372894894+372710386+372405545+372262041+372369990+372503848
2528+372456680+372316087+372269032+372331724+372423208+372510383+372548820
2518+372445893+372180402+371851990+371601994+371531968+371644169+371854074
2508+372086692+372307983+372479137+372616591+372848097+373227358+373556140
2498+373592922+373394745+373253325+373322808+373493334+373602196+373578854
2488+373378651+372977789+372513465+372285240+372493433+373019593+373560335
2478+373944561+374194900+374320883+374249488+373980344+373664374+373465113
2468+373380335+373260031+373046587+372902085+372995452+373277979+373531686
2458+373522269+373159159+372684476+372554726+372909875+373354168+373450617
2448+373199907+372883423+372702824+372731930+373001045+373437348+373805937
2438+373879016+373697247+373531971+373544641+373623426+373599285+373482177
2428+373409327+373453670+373566898+373688230+373851080+374143908+374548765
2418+374871983+374966435+375013689+375348835+375947303+376363974+376287129
2408+375899592+375618749+375698619+376105930+376623273+377050217+377328948
2398+377497477+377624944+377855137+378454005+379780178+382206325+386024732
2388+391439084+398688962+408107656+419924989+434047395+450192632+468195366
2378+487893633+508657375+529508206+549973983+570046432+588739889+603860170
2368+614455113+622324147+629571343+635604594+637580427+633684518+625113348
2358+613689172+599386253+581760753+561780245+542044112+526000547+516371120
2348+514459491+520250935+531603602+543670390+551870546+555489721+556670564
2338+557507558+558820747+560677760+563081621+565803250+568205684+569786362
2328+570437250+569941080+567998918+564840644+561021723+556675072+551561167
2318+545768068+539864595+534382187+529276785+523824339+517280194+509795586
2308+502246146+495108298+488124539+481087706+474225279+467712151+461426563
2298+455282767+449421354+444072262+439404220+435400676+431811777+428356138
2288+424961478+421714802+418701486+416020720+413836579+412281469+411308333
2278+410631564+409844022+408712345+407395674+406295129+405678170+405478167
2268+405406144+405205371+404821943+404368805+403928963+403426687+402766183
2258+402059766+401562740+401368044+401294937+401095334+400673127+400091666
2248+399464377+398872186+398366771+398031939+397944393+398023692+398075912
2238+398084158+398269209+398735531+399240803+399475562+399440750+399364361
2228+399338594+399274332+399193720+399278013+399536171+399668346+399359681
2218+398556530+397481324+396532101+396026315+395878046+395689314+395282288
2208+394928281+394944146+395284000+395645855+395825712+395846315+395804853
2198+395731803+395663804+395763277+396211565+396969032+397748727+398266355
2188+398458312+398451691+398411657+398458397+398670071+399117931+399835676
2178+400668162+401250109+401349810+401169497+401085603+401219119+401468916
2168+401764313+402068469+402326342+402548031+402773117+402940105+402989813
2158+403038865+403255904+403635479+404039280+404384642+404679981+404934144
2148+405110577+405173525+405174553+405263982+405532498+405850466+405994996
2138+405908991+405679083+405379492+405169217+405329499+405891613+406467567
2128+406745900+406904384+407265896+407790915+408180906+408345896+408516679
2118+408891489+409380382+409799878+410157994+410588790+411126621+411695727
2108+412240549+412768222+413316982+413886716+414352695+414540856+414492033
2098+414559718+415095181+416046943+417001674+417634128+417970814+418203462
2088+418428062+418607634+418671610+418641420+418687447+418988151+419541020
2078+420190395+420771885+421175915+421400829+421580743+421857677+422258568
2068+422750657+423281583+423721425+423951504+424048352+424200644+424444021
2058+424664313+424867255+425226770+425785860+426322464+426680894+427040552
2048+427629318+428384045+429172415+430091534+431192221+432187586+432830227
2038+433313014+433940417+434703191+435440968+436125955+436827179+437644055
2028+438712127+440054936+441458753+442645303+443550040+444395024+445479760
2018+446845654+448232378+449467895+450681553+452022051+453476090+455027377
2008+456672173+458275879+459696304+460999734+462366398+463862498+465409333
1998+466941188+468555737+470437033+472553174+474502726+475824105+476509806
1988+477061562+477932855+479050293+480081897+481051009+482303361+483938884
1978+485687007+487299530+488747634+490137183+491685502+493646897+496037232
1968+498471911+500473655+502017922+503559507+505458694+507699391+510163176
1958+512737792+515127557+517055280+518684924+520431506+522483243+524825354
1948+527525581+530739442+534470418+538292649+541334442+542963858+543594771
1938+544339654+545947497+548338575+551019570+553656107+556065618+557979758
1928+559364856+560882528+563367372+566772761+570214219+573125607+575608510
1918+577653456+579071483+580249016+581923404+584196916+586407195+587933428
1908+588847923+589723953+591030066+592765804+594583781+596216450+597691947
1898+599120704+600404217+601351471+602085168+603016841+604234438+605278654
1888+605869218+606377373+607144285+608020315+608814335+609499750+609987416
1878+610313003+610778355+611474727+612243979+613364384+615421029+618072062
1868+619622950+618766152+616223952+613867232+612961125+613353085+613947644
1858+613885951+613100891+611890028+610512350+609270556+608504100+608440353
1848+609304056+611194569+613204473+613294702+610735837+607430493+605289269
1838+604399713+603742263+602743474+602002358+602417602+603765433+604541533
1828+603691756+601588769+598842657+595871517+593466857+592284416+592008994
1818+591687916+590746597+589497726+588700796+588705875+589012971+588796332
1808+587899813+587014937+586934867+587846053+589171056+590033503+590049597
1798+589650903+589614207+590509299+592236419+593567928+593116787+591472076
1788+590526819+591108366+592529476+593846546+594865309+595727471+596501402
1778+597535175+599409309+602433696+606326466+609897702+611604448+611214258
1768+609742413+608351266+608139877+609655153+612118139+614103674+615468398
1758+616915817+618178955+618992493+620723609+624917825+630671945+634557638
1748+634511468+632233790+630590163+631105166+633678868+637035405+639470370
1738+640811866+643113970+647684965+651770975+651428781+648217488+645515606
1728+644099519+643648263+644089988+645306785+647410171+651310817+657641005
1718+664584529+667909163+666190546+662584441+659908297+658998139+659976781
1708+662925550+667353526+671815003+675534164+679439090+683725132+686136413
1698+685713407+684209603+681900992+678471576+675642769+675093296+676825952
1688+680492952+686600281+694339023+698726194+696847437+693179695+691505308
1678+692322042+695063132+698515832+701289395+703467771+705540453+706144086
1668+704283992+702509446+703439236+706318208+708122088+707269856+705404511
1658+705012381+708009831+715856379+727089084+733474459+731882253+730024327
1648+731384029+732698588+729970738+725319446+722959358+723939998+727267086
1638+731892925+736654363+739264819+738776982+737900381+739489848+744163740
1628+750242590+755184028+758292252+760821725+763652016+766870614+771275990
1618+778002475+786061382+792154386+795330466+797358976+799009108+799892957
1608+800100979+800394320+801353959+802922310+804133400+803733108+802023794
1598+801200439+802956381+806549702+809829822+811875738+813474050+814988127
1588+815596840+815125153+814838089+815612249+816835781+818127797+820676731
1578+825384523+830146475+831209524+829470533+829160013+831564046+834705256
1568+837013638+839610568+843250117+846877624+850844700+858358927+870453794
1558+878281281+875486088+869715589+866271278+864769185+863874436+863530987
1548+864620860+868175316+874667356+883348388+892194238+897234180+893514618
1538+883633169+875626481+872291631+871705347+870965487+869431264+868616071
1528+869547688+871992069+875217287+878765694+882247329+884843346+885910733
1518+885472718+883776587+881647862+880914964+883245147+888803402+896453229
1508+904673588+910849173+912099185+910005844+907883226+906892142+907441672
1498+910346953+915197707+919188866+920478542+920994915+923558174+927796219
1488+929930651+927727278+923521135+921257724+922967324+927718661+933482768
1478+939626165+945986830+950567526+950754146+947086975+942983330+940785607
1468+941412982+945352321+950802370+953514982+952901305+953693384+959425761
1458+967688523+970539302+965258238+957939534+952378140+948674616+945896031
1448+942313952+936713351+930776777+927456308+927836911+930999066+935606186
1438+940694123+944563152+944670501+941408473+938032247+935704118+932857049
1428+929436650+928203188+930473619+934668405+939929380+947371699+955253631
1418+956869464+949644413+939788759+933486078+931973086+932627683+932457442
1408+931888051+933952229+939465569+945282239+947901826+946965872+944784186
1398+943922708+944588377+944431320+942007198+939214003+938741803+940706964
1388+942662994+942317718+940467668+939845886+941641491+944845080+948037254
1378+950937399+954474963+959146344+963415094+965431846+965964884+967192239
1368+969692378+972545326+975352617+978526415+981944245+984494263+985383306
1358+985409786+986366400+989423089+993963379+997670557+998349009+996015516
1348+992730888+990557191+990125854+991650888+995626524+1001597112+1007799634
1338+1012713622+1016291591+1018993189+1020643436+1021287303+1021944754
1330+1023287049+1025202673+1027800174+1030872729+1033123698+1033576381
1321+1033561542+1035306868+1039313893+1044281983+1048788602+1052471467
1312+1056654155+1062572238+1068295141+1070270575+1068688356+1067093239
1304+1066631311+1065605528+1064289486+1065545947+1069993327+1073741823
1295+1072615140+1067558020+1063265643+1062700875+1065059593+1067923499
1287+1070023003+1070841621+1068510981+1061543830+1052254714+1045214057
1278+1042606854+1042902364+1043050062+1040650596+1035918891+1031945309
1270+1031321188+1033949963+1037899918+1040843722+1041467273+1040143240
1261+1037350102+1032524460+1026235647+1021007202+1017878604+1015363285
1253+1013005936+1012503489+1013871237+1013619443+1009198886+1002160169
1244+994506005+986227833+977427810+968937565+960513636+951421983+942519177
1234+935401303+930175940+925332206+918994484+910328177+900527882+892010700
1224+886487144+883861622+882519897+880589834+877533887+874505448+872753559
1214+872431853+873071155+874225403+875338105+875902873+876051884+876341402
1204+877150032+878730653+881092738+883391590+884328058+883377950+881691635
1194+881736435+885301906+891852501+898867819+903617957+905106752+904876701
1184+905789770+909532502+915268645+920736158+924660773+927597386+930029269
1174+932123980+935375222+941368067+948704977+953509446+954676250+955951944
1164+961152025+969781179+977589205+981145488+981552628+982435393+984967491
1154+987558714+989822467+993407971+998492370+1002131748+1000877341+995245294
1144+989957496+988651269+992326944+1000710695+1010930743+1017487901+1017961585
1134+1016278123+1015813456+1014521611+1010685683+1007559939+1008578188
1125+1013121104+1018563221+1023163435+1026738894+1029347124+1030467187
1117+1030649470+1031935493+1035021174+1037514693+1036399994+1031431105
1108+1024751475+1019896727+1022052617+1031765880+1040702986+1040588960
1100+1034467706+1030356356+1030270408+1032485994+1037549734+1046177975
1091+1053583541+1053734777+1049841665+1049281005+1053073446+1056216653
1083+1055552468+1053320104+1051569185+1048975907+1044869580+1040652536
1074+1037567654+1036109620+1036288022+1037975707+1041641337+1046652686
1065+1048183656+1041015732+1028074454+1017933620+1015192188+1016663462
1057+1016749867+1013677540+1009459583+1007015145+1007952925+1012796374
1048+1020386391+1027611043+1031760059+1031323242+1025544068+1017321826
1040+1011742855+1010093407+1009253103+1007444200+1007005329+1009618581
1031+1013297680+1015622384+1015736411+1012251922+1005052837+998843695+998528667
1021+1003186180+1007715513+1009461752+1010166343+1012269272+1015365339
1013+1016054635+1012240622+1006453344+1002392673+1000104266+997183746+992556252
1003+986368683+978865983+971936613+968560672+969164135+970340926+967962004
993+960803097+950022960+937506058+926040507+918923660+918023147+921872201
983+926250411+927179917+923637901+917993584+913508880+911721436+912108659
973+913058538+912361366+908068362+900751712+894015354+890948963+890518937
963+888829711+884044475+878335440+874487299+873130565+873589582+875119411
953+876917413+878208516+878807127+878983988+879487577+881740944+885952052
943+889850244+891961220+894569279+900883373+910655419+919764820+924118148
933+924127279+923830228+926330025+931678831+938090744+943700362+947333690
923+949718832+953216447+958269172+961948385+961952608+959580878+956639642
913+952876993+949051965+948268046+951834203+956857936+958958354+956228678
903+950312935+945174490+944856151+950252326+957683859+962161143+962469666
893+961616692+961817009+961539305+958946255+956122413+956875571+961313420
883+965673825+967486608+968275663+970257717+973093658+975145452+976256155
873+977462623+979041532+980980783+983430586+985376343+985988366+986864624
863+989049849+989940831+986920896+981699870+977450638+975182548+974796866
853+976427367+980305412+986615341+994678814+1002221462+1007623059+1009474079
843+1004817137+994119524+983949812+980916294+985231384+992228212+997825788
833+1001049579+1003093269+1005628335+1009535487+1013066088+1013077959
824+1009056438+1003493561+999330163+998273220+1000544735+1005282603+1009616869
814+1011190071+1012510794+1016672479+1022898514+1028850497+1031277244
805+1027183814+1018317818+1010920471+1011286520+1019740012+1028604981
797+1030542748+1027691855+1026573960+1030152044+1036465625+1039076252
788+1032880008+1024077474+1024416244+1035409938+1044997874+1041693842
780+1028453402+1014746468+1004978646+999165001+996680272+996222910+995362631
770+992269417+987477902+982047314+975694925+969383513+967502702+974399885
760+989582544+1007536198+1022242661+1030644790+1031342875+1025042077+1015712555
750+1008470325+1005376312+1005211151+1006868246+1005763592+998106917+989202912
740+986641251+992902898+1003241081+1009702703+1010106647+1008442817+1009631023
730+1016237945+1024588710+1026043776+1018748243+1012768980+1015136715
721+1019047406+1013776272+1000573955+988108644+980340454+978057639+983383218
711+996333284+1011984034+1026206199+1039789746+1051129286+1052738328+1042706156
701+1029005272+1017433113+1008682171+1004428944+1006689159+1013629715
693+1019828927+1020202738+1012887572+1001051748+993418928+991861592+990337128
683+985860414+981168545+982328899+990100743+995009023+987437383+971531414
673+958556693+953216961+953200467+953790118+953449351+956039376+960110947
663+962430744+964676006+969886417+978704474+989857509+997959333+994952067
653+979974861+962364086+950661863+946684629+947399492+949350843+951260189
643+951637709+951643702+957903808+974435154+993312435+999124139+986112094
633+968510108+958226027+952090049+948623309+951322909+959868512+966535816
623+960330554+942385404+930348406+936528842+952029041+961097466+966804731
613+974041483+982667441+987920426+981856014+965501929+948694647+940032392
603+939717364+943880362+948154648
##END=
