##TITLE=<SNM>
##JCAMP-DX=4.24
##DATA TYPE=INFRARED SPECTRUM
##DATE=29/4/2025
##SAMPLING PROCEDURE=Instrument type and / or accessory
##ORIGIN=Admin
##XUNITS=1/CM
##YUNITS=ABSORBANCE
##RESOLUTION=4
##FIRSTX=4497.3318
##LASTX=599.83466
##DELTAX=-1.4281778
##MAXY=2.2010453
##MINY=0.67406905
##XFACTOR=1
##YFACTOR=2.0498832e-09
##NPOINTS=2730
##FIRSTY=0.68288481
##XYDATA=(X++(Y..Y))
4497+333133531+334692034+335739332+335034620+333720161+333625602+334848701
4487+335843632+335438268+334132881+333281359+333255945+333090148+332183611
4477+331479625+332202686+334140703+336028475+337169926+337817501+338277559
4467+338377875+337785895+336733595+336194709+336669509+336969177+335491596
4457+332734069+331017910+331782492+334404287+337349564+339519616+340613060
4447+340706921+339741387+338123625+337420861+338651985+340338573+340294376
4437+338587201+336702308+335364674+334847131+335557775+337052658+337997460
4427+337853906+337188186+336311279+335287707+334896649+335764891+336852956
4417+336501937+334764465+333115939+332317220+332005339+331806365+331799910
4407+332252698+333357424+334954629+336392637+336884010+336153100+334812384
4397+333984762+334362910+335666407+337014974+337708143+337854691+338190648
4387+338873029+338902484+337576045+335894808+335180064+335022204+333852840
4377+331301761+329023222+328832912+330674568+332862823+333908784+333739730
4367+333289064+333227915+333197820+332581676+331812994+331944801+333082820
4357+334308303+335048344+335523261+335752795+335400555+334795345+334835500
4347+335527942+335782483+335230687+334855883+335197132+335524453+335336237
4337+335078207+335064482+335093530+335144909+335498312+336195610+336915704
4327+337439616+337840501+337899266+336869385+334627570+332491712+331887722
4317+332786932+334120465+334855214+334406758+333043915+331972366+332202249
4307+333331080+333944084+333175111+331612508+330712339+331430572+333288715
4297+334665225+334398064+333083285+332409889+333370247+335211060+336131408
4287+335313760+334037857+333961472+334732654+334706601+333574572+332475051
4277+332101555+332468305+333692538+335610725+337349796+338120194+337951111
4267+337394110+336954115+336855631+337068359+337299435+336939780+335478424
4257+333431832+332271860+332821126+334143029+334557203+333669567+332676439
4247+332522912+332707755+332462896+332209344+332851018+334309612+335807867
4237+337036345+338047327+338366506+337237501+334820758+332367407+331032158
4227+331029396+331853324+332766927+333199826+333257864+333778548+335318849
4217+337177689+337949192+337076123+335306869+333664013+332740786+332713454
4207+333282725+333740573+333594839+333026236+332472754+332135372+332144473
4197+332706359+333774215+334858355+335355689+334975797+333895990+332562137
4187+331390853+330700069+330784392+331787407+333347538+334713260+335417158
4177+335528087+335299367+334966405+334775194+334903977+335428004+336396533
4167+337725094+339090380+340051844+340154922+339113729+337119041+334726287
4157+332436000+330711234+330152256+331076675+333034785+335161105+336850863
4147+337830383+337885949+337088946+336038332+335360632+335156947+335176865
4137+335359033+335950839+336982698+337912525+338145288+337796595+337530743
4127+337630419+337520508+336420027+334542548+333279120+333782997+335614650
4117+337287193+337817821+337036752+335119903+332889428+331781358+332424108
4107+333797971+334604890+334937532+335692722+336877468+337483958+336812830
4097+335216759+333557329+332366622+331709073+331626814+332325507+333727430
4087+335070995+335425358+334758795+334175450+334795432+336487806+337943929
4077+338053956+336885377+335226849+333821349+333140945+333173977+333377109
4067+333437764+333785177+334746379+335721770+335956277+335562602+334846171
4057+333537673+331706049+330465068+330713735+331908832+332929555+333576636
4047+334375559+335442630+336332767+336708705+336690444+336568437+336413863
4037+336143010+335905508+336003091+336336169+336386967+335858287+335034242
4027+334490646+334510913+334699507+334432724+333848333+333791749+334534029
4017+335206727+334878360+333648719+332259502+331180480+330590012+330713967
4007+331492390+332395263+333179240+334171263+335352782+335987854+335692984
3997+335092280+334894439+335084313+335339813+335604357+335830082+335547191
3987+334560605+333824373+334276289+335002054+334313915+332649542+332246476
3977+333888605+335932608+336740980+336644153+336868890+337540688+337695610
3967+337022795+336505834+336951440+337777346+337765279+336538749+334894381
3957+333867931+333767906+334107032+334303099+334333484+334636409+335428527
3947+336305638+336781426+336997789+337487273+338389041+339226170+339388013
3937+338686558+337712940+337478463+338199836+338784693+338314691+337411440
3927+337122733+337453543+337770077+337908745+338117635+338319081+338072682
3917+337231424+336348672+336107565+336561575+337207202+337543246+337419233
3907+337042248+336875462+337488756+339180403+341519946+343275446+343264688
3897+341639656+339778693+338957643+339700999+341582694+343102002+343139424
3887+342222390+341407854+340948756+340740331+341052270+341626659+341341587
3878+340073128+339344398+340211535+342109368+343935148+345055255+344998584
3868+343939684+343020615+342877846+343036607+342814313+342135014+341352084
3858+341016680+341988756+344872738+348170430+348841209+346659061+343541356
3848+341056399+339939228+339944142+340222410+340590002+341994688+345025015
3838+348250188+349459272+348659477+347475662+346657694+345753658+344617616
3828+344115833+344928799+346669354+348545524+349800346+349612305+348348091
3818+347540126+347507705+346724310+344245197+341260753+339479025+339769418
3808+341729592+343802789+345112654+346577180+348752960+350189747+349773973
3798+348583848+347675247+347018919+346696890+347245546+348499030+349370674
3788+349398675+349692587+351506765+354549537+357673086+360486702+363199769
3778+365687663+367827505+369975691+372448902+375191540+378143156+381577684
3768+385757139+390019782+392725842+393103147+392525210+392917169+394670460
3758+396847171+399056071+401899782+406046088+411354693+416380262+419730204
3748+422324114+426047959+431124820+435621563+438061742+439426097+441544800
3738+445755047+452052157+458424518+462621593+464393202+464806649+465015859
3728+466091333+468694228+472303771+475219738+475710559+473364939+469696282
3718+466928463+466218110+467483603+470091964+472635308+473196263+471704405
3708+469999469+469347910+469838906+470961776+471789135+471753022+471710133
3698+472927765+475259138+477388482+478789533+480663552+484494779+489231815
3688+491001738+488466971+484891768+483743514+485701914+489095095+492318930
3678+494956397+496117678+494523323+491602180+489947054+489403137+487781362
3668+485018893+483192997+482879313+482914206+482614479+482505615+482896818
3658+483082388+482249067+480817108+480368477+482344644+486625635+490422290
3648+490631761+487924800+484857893+482530330+480882095+480005275+480302589
3638+481851002+484127041+486392786+488390964+490534934+493073132+495005944
3628+494879168+493034692+490621817+488364329+487133234+487773541+489879885
3618+491831947+492794399+493187812+493607860+494608519+496679506+499417289
3608+501379643+501713914+501063459+500286926+499671248+499597974+500627593
3598+502592972+504657621+506498666+508438108+510355103+511665258+512172363
3588+512080130+511531853+510855868+510657388+510817079+510726417+510970374
3578+512826888+515716279+517303946+516699608+515513146+515356188+516203320
3568+516911289+516336028+514697127+513523517+513949322+515693948+517560174
3558+518551819+518427544+517632925+516743398+515970180+515625966+516527355
3548+519035429+521992163+523485678+522558643+519506187+515492560+512404572
3538+511792790+513217742+514387398+513631451+511703291+510559631+510926119
3528+511625830+511301562+510202913+509588223+509865386+510205356+509861374
3518+509075245+508429559+507884364+507062180+506264886+506506458+508314181
3508+510939959+512918597+512870155+510214718+506146542+503312223+503477149
3498+505886651+508399261+509860152+510447742+510223732+509092052+507981074
3488+508432932+510614645+512606019+512235227+509543910+506828400+505910262
3478+506178934+506014125+505558894+506453189+508762201+510072531+508346631
3468+504286248+500185156+497961166+498319105+500179806+501061482+499564477
3458+497106008+495923210+496379372+497140727+496912355+495332015+492993112
3448+491007204+490075749+489921408+489862265+489679137+489758750+490574595
3438+492087825+493612337+494388056+494187889+493209969+491609682+489425701
3428+486978893+485112754+484732513+485925255+487622224+488522857+488470751
3418+488359095+488656438+488754137+488024941+486861480+486142287+486034701
3408+485780858+484721202+483172381+481998248+481659675+481969811+482542339
3398+483281159+484354133+485625994+486455534+486411395+485897574+485583977
3388+485571881+485567491+485423617+485254418+485429840+486454429+488398640
3378+490542262+491896033+492014435+491245171+490336221+489892214+490180659
3368+491262269+492909312+494433475+495102364+494821828+494199230+494094785
3358+495065552+497031978+499528886+502091509+504082417+504606096+503431788
3348+501530146+499997028+499142277+498730313+498483449+498351206+498496940
3338+498876745+498945018+498280665+497382706+497268608+498248913+499455670
3328+499705443+498601094+496725913+495103353+494384741+494298092+493953354
3318+492834351+491420855+490685030+491105485+492217219+493103547+493275683
3308+492901693+492564050+492922222+494029826+495088814+495375340+495039034
3298+494502794+493847222+493372684+493769005+494977856+495805157+495561491
3288+495449894+497213245+500620964+503347465+503823573+503238426+503612997
3278+504876280+505134659+503514018+501415350+500614044+501239085+502008116
3268+501733512+500356304+498836910+498237805+498808356+499956669+500954478
3258+501306078+500823689+499885953+499325579+499585936+500130724+500162360
3248+499659733+499237359+499122563+498715077+497487849+495881398+494641841
3238+493750919+492689372+491383985+490445260+490570525+491675280+492750027
3228+493075923+493159316+493773483+494864804+495784745+495655294+493839720
3218+491080769+489369815+489768346+491186261+491874109+491346650+490329417
3208+489437099+488518205+487331424+486335359+486097915+486152842+485361916
3198+483383423+481114537+479653733+479224410+479200276+479064573+479077745
3188+479732852+480822807+481429122+480929840+479659868+478477216+477973077
3178+478175192+478652231+478645252+477500138+475318658+472928899+471075671
3168+469901160+469257509+469115322+469367799+469529118+469080081+468096548
3158+467184545+466717799+466457501+466007766+465270836+464268403+462961155
3148+461589123+460770632+460911220+461655681+462139175+461842501+461017439
3138+460168620+459356991+458359589+457360442+456797422+456547475+455998558
3128+454971206+453969093+453507581+453694082+454321188+454948846+455093999
3118+454622194+453861915+453300989+453165984+453144408+452697842+451791771
3108+450952170+450558495+450519939+450528342+450211169+449391835+448491172
3098+448132303+448262742+448321013+448113344+447805912+447360044+446594328
3088+445615796+444873400+444857059+445649555+446610844+446819181+446094609
3078+445251112+445062052+445227239+444732434+443304807+441979328+441822428
3068+442595297+443130694+442740334+441848219+441335735+441548754+442028090
3058+442162514+441861042+441365685+440791499+440177159+439512951+438557739
3048+437202427+435971331+435499439+435663202+435819840+435630519+435136383
3038+434427367+433803285+433817620+434610582+435503685+435669860+434968055
3028+433841841+432804778+432216519+432129113+432232395+432202068+431990358
3018+431616949+431028109+430393269+430190514+430628096+431165673+431025987
3008+430104766+429006059+428287070+427989931+427829309+427590063+427272541
2998+426893550+426227045+425056605+423780731+423232104+423713970+424665634
2988+425348975+425501717+425244850+424662843+423758225+422795163+422261773
2978+422194430+421932882+421033789+420064329+419916356+420609001+421253466
2968+421072694+420126816+419056808+418395188+418233374+418351281+418454767
2958+418352735+418078335+417847812+417827428+417999798+418256897+418468724
2948+418417054+417951239+417278482+416781002+416570280+416521169+416659692
2938+417108236+417631100+417689748+417131963+416430798+416015315+415817998
2928+415702998+415706836+415564097+414734614+413228305+411746274+410882539
2918+410763992+411300319+412172195+412760658+412591981+411789366+410914524
2908+410420446+410251334+409969722+409335289+408622522+408246235+408330035
2898+408694052+408947284+408649506+407746080+406795346+406493730+407039652
2888+408010246+408677507+408516391+407642101+406713116+406276524+406288009
2878+406383702+406452935+406629433+406799505+406551477+405768111+404968433
2868+404822640+405415638+406084295+406013696+405068080+403973618+403545778
2858+403867080+404362088+404408117+403724544+402506679+401330394+400665139
2848+400484629+400532635+400769235+401277852+401930923+402418226+402542705
2838+402374233+402104077+401806299+401390322+400745828+399918352+399162260
2828+398749744+398672457+398590837+398231415+397784326+397680550+398014791
2818+398438502+398609069+398447575+397974199+397290132+396720395+396570416
2808+396749152+396879767+396690010+396227597+395825373+395779111+395958575
2798+395933046+395520878+394908776+394275273+393674628+393222363+393060723
2788+393163976+393334717+393363823+393140220+392640036+391910550+391149718
2778+390666922+390570474+390607692+390470070+390091603+389565424+389043781
2768+388791101+389024270+389573769+389929847+389784403+389317890+388853558
2758+388493235+388200312+387978251+387823444+387716760+387689021+387647382
2748+387322620+386697870+386125516+385739925+385244829+384518454+383871315
2738+383505961+383280497+383121562+383126767+383193615+383054743+382732772
2728+382536734+382562555+382554471+382327263+381996278+381656338+381202881
2718+380677952+380412071+380542336+380718573+380574001+380226181+380066751
2708+380233305+380455280+380357813+379857396+379249423+378908291+378953099
2698+379164983+379147421+378657007+377845000+377072828+376557379+376354479
2688+376495183+376878070+377209142+377323269+377403639+377648468+377870326
2678+377669403+376975914+376174986+375611268+375218611+374780448+374297304
2668+373891736+373596080+373442437+373533710+373877314+374320681+374669170
2658+374751778+374492760+374042879+373709190+373675112+373854750+374006329
2648+373934450+373603088+373102555+372582889+372243792+372245944+372528340
2638+372805852+372805678+372467017+371983814+371688245+371735670+371934731
2628+372045806+372089247+372166825+372215122+372156183+372080495+372123035
2618+372290635+372464051+372518600+372463382+372372138+372140394+371575193
2608+370832390+370416791+370571132+370989726+371287010+371430913+371565307
2598+371685715+371672136+371500698+371285469+371125720+370998071+370842102
2588+370658189+370438657+370155301+369930476+369986624+370294522+370562205
2578+370673803+370820119+371134297+371508607+371800366+371945403+371901962
2568+371702900+371463130+371189108+370733877+370069407+369447913+369151995
2558+369175635+369271764+369292816+369347277+369545554+369740429+369702948
2548+369479549+369369957+369540349+369802944+369847112+369610280+369315554
2538+369187586+369257371+369409037+369500513+369482398+369446110+369485015
2528+369573613+369682798+369889274+370252098+370666389+370901622+370774323
2518+370350350+369952168+369828997+369903755+369987031+370053734+370158703
2508+370276378+370319121+370194264+369921986+369759619+370002559+370590003
2498+371109582+371236242+370987022+370561508+370165768+369981885+370082899
2488+370361312+370664644+370936486+371121300+371116328+370981672+370959137
2478+371113158+371197540+371036744+370813984+370808750+371014063+371193295
2468+371224931+371175645+371057795+370776969+370347151+369906691+369518454
2458+369189999+369034989+369170081+369506125+369825886+370012532+370093803
2448+370148787+370254483+370459243+370729341+370941574+370972978+370782726
2438+370414290+369999564+369756828+369833650+370112557+370319906+370346395
2428+370304437+370301995+370369657+370564764+370918545+371329114+371698829
2418+372069998+372453380+372700186+372740400+372766598+372975662+373270766
2408+373418390+373411034+373467182+373694070+373947215+374055411+374022758
2398+373956665+373951868+374146452+374796150+376206331+378626069+382275447
2388+387476002+394647780+404119498+416023486+430355731+446934617+465269906
2378+484755600+505140824+526488586+548412599+569560136+588188260+603365456
2368+615295206+624364992+630154357+632174285+631228174+628491962+623677260
2358+615056135+601482540+583465442+562219915+540154588+521684701+510871744
2348+509382241+516560271+529137858+541499578+549573065+554055416+557885392
2338+562415371+566723142+569776063+571924337+573699028+574624494+574091627
2328+572503320+570677336+568565525+565372279+560770538+555199192+549041245
2318+542399746+535635484+529353552+523773832+518434464+512541874+505578085
2308+497621255+489168602+480838392+473256918+466845419+461421552+456211809
2298+450571725+444633805+439059493+434255957+430018901+425912053+421835793
2288+418097264+414968249+412379370+410132844+408227422+406809274+405905936
2278+405330152+404815894+404228130+403638970+403133552+402597545+401874426
2268+401067159+400442147+400091768+399878982+399610484+399150019+398525995
2258+397971059+397653101+397423276+397072693+396693761+396480277+396366062
2248+396197589+396061799+396139871+396394615+396604058+396577074+396268392
2238+395818831+395479588+395395352+395476681+395494389+395285470+394931660
2228+394705353+394711313+394704800+394456104+394103951+393920329+393923440
2218+393903086+393657007+393132776+392494040+392027294+391843323+391742804
2208+391501929+391175626+390972697+390952343+391011166+391091593+391244597
2198+391496317+391762838+391937155+392031917+392179600+392452779+392770824
2188+393077471+393484231+394099182+394840125+395539255+396101431+396490308
2178+396731590+397000117+397518329+398252729+398839447+398953749+398681413
2168+398386600+398282300+398294920+398296810+398293059+398367729+398574176
2158+398911587+399343440+399810069+400223952+400439123+400285072+399757614
2148+399156997+398867506+399001406+399404473+399922132+400453254+400861061
2138+401089897+401309982+401738404+402340881+402873457+403222935+403524232
2128+403881124+404191871+404379447+404563650+404871490+405305843+405849818
2118+406451103+406947013+407263778+407593135+408154294+408876917+409462007
2108+409735419+409856583+410109234+410552165+411027430+411449281+411863280
2098+412271959+412632399+412983417+413378866+413730873+413895449+413906993
2088+413954941+414104339+414229342+414272318+414355972+414590973+414976274
2078+415486112+416078994+416649545+417074593+417279296+417266822+417141296
2068+417066365+417174124+417528109+418093571+418704423+419177536+419509015
2058+419872857+420410027+421053532+421570610+421827739+422029505+422569961
2048+423605483+424895110+426086835+427017389+427678719+428076842+428276806
2038+428489970+428964479+429764942+430683633+431410095+431868815+432372023
2028+433318483+434764341+436412954+437983408+439433541+440840087+442217091
2018+443505439+444689139+445868709+447195729+448727162+450329571+451768509
2008+452971313+454130674+455472553+457079644+458950755+460925119+462587602
1998+463696864+464656175+466085809+468033741+469984029+471510053+472647549
1988+473734218+475075138+476656059+478130472+479221066+480097944+481204880
1978+482746053+484491318+486132575+487698784+489463327+491562635+493886767
1968+496207992+498277525+500016974+501729383+503831831+506310886+508758479
1958+510993054+513248506+515661323+518018429+520167749+522280607+524499946
1948+526658280+528612261+530600436+532934396+535507312+537961710+540212102
1938+542414343+544608733+546747295+548953026+551482151+554438768+557640796
1928+560770945+563649577+566262678+568529470+570375923+572086936+574057723
1918+576121092+577748420+579004667+580527435+582624300+585039327+587368461
1908+589268474+590530188+591348650+592276151+593679528+595392052+596916855
1898+597982472+598912997+600175234+601556454+602359505+602426499+602305771
1888+602439467+602805025+603382147+604402229+605959540+607598209+608588226
1878+608707616+608448947+608433536+609014903+610298599+611943257+612995441
1868+612723570+611673596+610964290+610911427+610982725+610614725+609796961
1858+608995131+608637424+608639809+608449412+607683289+606646341+605961750
1848+605842650+605977743+605884347+605187427+603853254+602178704+600494559
1838+599053905+597925365+596949363+596125144+595693349+595519817+595092500
1828+594487638+594190877+593803803+592329013+589786919+587309958+585761021
1818+585107019+584790137+584354911+583764471+583158679+582459607+581438246
1808+580146292+579042002+578651381+579168488+580311799+581441095+581891034
1798+581486804+580838327+580968069+582384123+584184054+584715932+583919917
1788+583367336+584101126+585799112+587550890+588880877+589776218+590291581
1778+590683482+591542536+593390676+596106767+598681776+600158078+600836912
1768+601399612+601868684+602209177+602819156+603942346+605361948+606998930
1758+608983907+610999647+612600632+614224646+616862404+620485293+623310307
1748+623743614+622439972+621210069+621258802+622825011+625421886+628010852
1738+629950062+632020991+635288616+638750302+639900127+638835207+637604083
1728+637376293+638332232+640135826+642055030+643571459+645190064+647921799
1718+651716011+654770676+655675264+655158623+654398489+653962740+654243741
1708+655635952+657979275+660271074+662021457+664365594+668280650+671967276
1698+672965900+672191868+671365090+670586115+669893673+670086686+671531702
1688+673698120+676292669+679710855+683308215+685019868+684560798+683493204
1678+683227788+684338766+686373174+688535928+690983870+694321630+697819546
1668+699529919+699170352+698565839+699191113+700851415+702170991+702495666
1658+702614068+703775640+706903521+711636225+715098900+715740399+715929516
1648+717291196+719339620+720634423+720808885+720774516+721458526+723383138
1638+726577199+730327795+733082675+733987496+734137767+734797642+736476437
1628+739392288+743598348+748820013+754499176+760122395+765791498+772202358
1618+779412139+785550837+788502046+789338012+790367458+792215540+794125847
1608+795155641+795100046+794590731+794338284+794643012+795788649+798152443
1598+801301027+803733791+804513173+804671294+805792565+807901701+810006709
1588+811917481+814157522+816460602+817885612+818231804+818230583+818928957
1578+821391379+825646521+829068546+829369029+828633262+830371724+835747962
1568+842162718+846029390+846497589+845222035+844813037+847592458+853939987
1558+859790648+861567374+861680601+862336754+863442498+864336793+864723518
1548+864728636+864644778+864481888+864056083+863867314+864781731+865848453
1538+864867625+862056044+859357050+858293991+858981956+860217034+861213332
1528+862148160+863338751+865141705+868134785+872254835+875998045+877821063
1518+877829262+877077329+876969453+878777757+882336794+886093263+889182472
1508+892540237+896868653+900408614+902234365+903873208+905962339+907640553
1498+908593875+909969105+912194665+914162371+915738872+917941637+920599632
1488+922335011+923556889+926037049+930015028+933881060+935903953+935871910
1478+934876253+934191720+935183307+938951291+944223782+947346197+947253034
1468+946178984+945858264+946570827+947812593+949175030+950658834+951670484
1458+950621790+946684926+941358060+936118659+931335709+927355520+924527075
1448+923222095+924069983+926907617+930038580+931964531+932960421+934069596
1438+935459713+936279978+936106330+936060679+937246559+939055271+939505210
1428+937969881+936683452+938039840+941894649+945575925+946299247+943829904
1418+940641484+938860163+938118814+937423290+936600292+935727106+934386943
1408+932084677+929412027+927842445+928054650+929308222+930668216+931929696
1398+933495265+936237700+940815889+945930608+948591685+947565554+944602657
1388+941715476+939149131+937040461+937148220+940693765+946417416+952133915
1378+956940533+960713984+962543863+961693475+959905931+960389076+964457311
1368+970424919+975591860+978698108+980198951+981099527+981948694+982395784
1358+982286803+982938362+985374674+988087567+988485225+986605333+985216146
1348+986385045+990483519+996347555+1001106545+1002047945+999879724+998500074
1338+1000814960+1006552917+1013780203+1020315338+1025100381+1028884474
1330+1032462120+1035677232+1037739380+1038410595+1038900370+1040897501
1321+1044305685+1046351201+1045493426+1044736608+1047251544+1052313284
1312+1056858267+1059443802+1060612352+1060638987+1059816105+1059319701
1304+1059818780+1060840665+1062319177+1064822599+1067823937+1069617644
1295+1069258484+1067212736+1064876682+1063845027+1064239894+1064183950
1287+1062208801+1059242937+1056907465+1055093985+1052744090+1049602601
1278+1046545436+1044453746+1042886723+1041181177+1040009254+1039469467
1270+1036983608+1030621191+1022899361+1017509282+1014822326+1013385104
1261+1012502207+1011972306+1011925317+1011894961+1010715943+1007984673
1253+1004712570+1002255439+1000377640+997943422+994943015+991784429+987150354
1243+978628556+965863886+951572087+939301263+930577321+924693047+920556831
1233+917660171+915469037+912837095+908573055+902152193+893926807+885358078
1223+878484893+874265050+871794254+869818232+868488944+868464810+869086827
1213+869282574+869393881+870140988+870921243+870120285+867316323+864745791
1203+865243591+869172953+874314133+878668544+882036020+884878771+887616438
1193+890829050+894694733+898629329+902125093+905408014+909009619+913234404
1183+917904767+922069014+924633963+926093226+928523664+933109703+938604052
1173+942990216+945943867+948547430+951704272+956108405+962156382+968611032
1163+973646079+978187631+984414316+990733001+993196529+991637996+989564102
1153+989641796+993230491+1000850201+1010020535+1015981107+1016479023+1013578757
1143+1010004368+1006885210+1005933575+1008935610+1014638559+1019851035
1134+1023192924+1024983956+1025862782+1028282113+1033848516+1038453978
1125+1036777277+1031271820+1029495675+1034029375+1040297699+1043201105
1117+1042380898+1039876779+1036440215+1031921402+1027650907+1027087626
1108+1033360486+1045364557+1055724260+1056884087+1050309640+1043634121
1100+1040852722+1039525295+1036016155+1031093403+1028887382+1031253676
1091+1035382972+1037802186+1037789509+1036652943+1034800732+1031243673
1083+1026983414+1025341488+1028406563+1034264318+1039126241+1040896803
1074+1039627530+1036835315+1034598937+1031733913+1024958369+1015595544
1065+1008154251+1003745000+1000030925+996935145+997853748+1004410517+1013202965
1055+1019648426+1023337262+1025576896+1026889204+1027899575+1027842816
1047+1024831476+1019169817+1013674595+1010194998+1007839055+1005821803
1038+1005822733+1009224869+1013821725+1016160919+1014890134+1011751785
1030+1010084854+1011285854+1013365215+1013098869+1009699873+1005068939
1021+1000856831+997392702+995219131+994892188+995960597+997830370+1000280755
1011+1002496197+1003531691+1003617410+1002912349+999724685+992429707+982409043
1001+972768300+965503563+961266332+959890171+959185110+955762969+948842097
991+940811643+933660190+927150818+920809801+915330107+911225875+908019311
981+905343346+903301902+901412414+898898757+896251462+894634194+893865163
971+892655963+890667323+888886176+888138837+888045732+887082466+884481985
961+881409176+878953150+876825347+874649043+873064166+872952220+874535700
951+877276681+880251501+883073549+886403981+890622195+894286142+895873925
941+896199938+896962979+898238649+899298102+901177006+906512536+916123621
931+927174719+936230489+942789467+948277652+953266235+957577961+961257609
921+964045288+965648425+966331678+965930298+963935377+961116120+958662711
911+956058392+952237953+947760138+944148414+942369129+942484914+943518488
901+943433118+941108230+938589746+939290272+944011229+949713363+952906493
891+954016250+955952726+959250417+961646253+962507982+964466848+969305858
881+975116333+979174972+982118388+986123351+990117381+990826513+988198874
871+985804666+986194066+988346702+988844385+985192884+978241249+972060505
861+970904284+974838822+978840353+978592733+976501857+978180885+984841400
851+992175923+996133199+997914578+1001208198+1005823431+1006588856+999685605
841+988367870+979912949+979251387+985045638+990744050+990682290+986285252
831+984273583+988870671+998065895+1006594672+1011204322+1012098035+1012139557
821+1015880849+1026048294+1037657266+1041065915+1036117110+1031467334
813+1031998398+1034442386+1033793269+1030769368+1030150607+1035030674
804+1044713230+1055539911+1061710187+1058293163+1046808990+1033527039
795+1023175361+1017325166+1015509941+1016742810+1019871040+1023302719
787+1025071769+1022668140+1014718928+1002727535+990408035+981755623+979372464
777+982461963+985914461+985087160+981685489+980653717+983090029+986102881
767+986970774+986329449+987117555+989790321+991956216+992611265+993395648
757+995386848+997711154+1000066748+1003566118+1008165416+1012389039+1014806159
747+1014070625+1010087296+1005265034+1003541461+1006279011+1009495752
738+1009901086+1010730598+1014586685+1017383204+1015073320+1010332474
730+1008475727+1012078844+1022105673+1039262554+1060664226+1073741823
721+1063756167+1039740814+1022013906+1015936793+1014424784+1012026971
713+1011419725+1015794548+1021680101+1023025905+1017653272+1007278565+997758957
703+994781695+997809784+1001362074+1003198816+1005862976+1010109860+1013348815
693+1014016774+1011062309+1003781754+994232371+987612796+987839248+992955189
683+997618340+997988899+993713170+989690529+988139673+985685334+981292832
673+975938924+969665658+961410206+952022317+948995391+953880634+957427400
663+955803444+952434281+951868499+958221088+973380780+991514360+999584533
653+990261719+972776442+962445873+965967633+979289652+991584843+995343581
643+994445797+987694445+975463805+968955130+963829827+954746201+949148686
633+950939719+958144790+965468496+968156789+962520892+949091695+939665424
623+942320512+953536652+964480456+963961139+950429590+931300410+912316033
613+899824281+897133254+900193735+903372268+904521686+903574877+903418617
603+906391983+909821626+912603024
##END=
