##TITLE=<SNM>
##JCAMP-DX=4.24
##DATA TYPE=INFRARED SPECTRUM
##DATE=29/4/2025
##SAMPLING PROCEDURE=Instrument type and / or accessory
##ORIGIN=Admin
##XUNITS=1/CM
##YUNITS=ABSORBANCE
##RESOLUTION=4
##FIRSTX=4497.3318
##LASTX=599.83466
##DELTAX=-1.4281778
##MAXY=2.0907171
##MINY=0.44944456
##XFACTOR=1
##YFACTOR=1.947132e-09
##NPOINTS=2730
##FIRSTY=0.46677056
##XYDATA=(X++(Y..Y))
4497+239722092+240093195+240248380+240116980+239985320+240062461+240172602
4487+239845426+238946580+238219863+238658067+240161842+241492646+241846867
4477+241618062+241359241+241094513+240902946+241073177+241494514+241751222
4467+241687167+241233306+240221274+238993783+238446051+238956008+239930878
4457+240597183+240574500+239702853+238119304+236547143+235900016+236509078
4447+237879846+239073281+239366983+238904612+238653368+239213528+239942372
4437+239877660+239052710+238286535+238112003+238413083+238763799+238820981
4427+238659016+238654822+238798160+238518386+237518997+236317924+235658552
4417+235795661+236493007+237372123+238153298+238679204+238730509+238021745
4407+236722685+235644150+235329570+235455139+235722821+236508588+237836959
4397+238768498+238750605+238517238+238837726+239424135+239563632+238919504
4387+237557813+235910133+234572150+233711293+233029422+232457385+232292741
4377+232566759+232848768+232786627+232519694+232515531+233184745+234525176
4367+235913240+236468655+235979544+235223012+235059883+235559264+236113087
4357+235998937+234912152+233375424+232370647+232229283+232385050+232448094
4347+232699307+233321563+234018587+234452964+234492744+234325329+234525299
4337+235336489+235935938+235285934+233564924+231900362+231012751+230823878
4327+231062709+231693597+232745408+233916283+234578685+234443352+234079718
4317+234278111+234969625+235337254+235062669+234821496+235164544+235638272
4307+235580279+235087081+234553905+234023209+233657953+233979894+234986293
4297+235853915+236032074+235958866+236353173+237283671+238126176+238237740
4287+237566675+236562862+235622721+234965584+234791037+234934957+234719208
4277+233813597+232817789+232430661+232672094+233346358+234436434+235581503
4267+236004187+235546131+235041730+235116591+235372671+235151748+234510697
4257+234150752+234562920+235324106+235473399+234818603+234360808+234946988
4247+236157780+236952868+236911604+236447227+236112827+236023579+235875970
4237+235432593+234865301+234554594+234627266+234810675+234896969+235142473
4227+235799534+236511266+236727123+236477777+236286731+236577984+237220428
4217+237366919+236330276+234878739+234517110+235400834+236345781+236697782
4207+236735940+236608825+236213325+235747555+235509765+235520219+235726173
4197+236225646+237104533+238125977+238738208+238651623+238198557+237745461
4187+237177847+236393137+235759830+235604492+235727107+235799794+235822232
4177+235962632+236380249+237266452+238501826+239300327+238955963+237907059
4167+237283074+237609439+238586405+239650507+240177056+239751816+238785946
4157+238216557+238337717+238582686+238437863+237987537+237611168+237588256
4147+237915967+238211200+237973364+237177725+236338679+235860037+235662930
4137+235569151+235721964+236353770+237297951+238083489+238529866+238900862
4127+239358381+239638553+239452053+238860546+238184782+237945354+238642118
4117+240023661+240994873+240859539+240160388+239746719+239669195+239478562
4107+238975952+238252985+237556512+237382470+238066668+239111714+239595131
4097+239345769+239008982+238983911+239099821+239164871+239117239+238920637
4087+238725244+238729346+238811002+238732284+238509662+238197471+237691600
4077+237082921+236767592+236961592+237425739+237789128+237927600+237880213
4067+237564425+236893252+236149423+235828308+236035058+236400652+236587918
4057+236595494+236643202+236951169+237532604+238125518+238440419+238451424
4047+238395588+238591027+239191549+239945082+240282451+239835829+238824257
4037+237831342+237332787+237523987+238366538+239585350+240707277+241274677
4027+241113140+240456095+239838569+239745403+240251120+241076177+241885116
4017+242444343+242626313+242391630+241773935+240922752+240181693+239873757
4007+239899700+239918878+240028054+240717486+241960788+242889067+242741489
3997+241753242+240737399+240188917+240184923+240751817+241704417+242329626
3987+241929748+240693655+239524877+239075347+239329806+239982611+240811173
3977+241681626+242480480+243119770+243503991+243499628+243010105+242081275
3967+241022453+240421121+240740384+241763145+242763713+243366805+243785234
3957+244168046+244309165+244056896+243615141+243458624+243949863+244705492
3947+244748609+243917843+243361219+243954424+244990195+245158053+244290186
3937+243336791+243283159+244530165+246625691+248281085+248381965+247311955
3927+246572901+247056196+248072896+248293008+247541924+246952668+247405152
3917+248395908+248644137+247675130+246273475+245390914+245204490+245509289
3907+246741586+249835261+254660018+259171587+261248670+260686428+258336781
3897+255028350+251954159+250574835+251437131+253155891+253460429+252347655
3887+251988842+253347779+255012876+255838530+256434061+256678908+255359598
3878+253168135+252473744+254210931+257405334+261045869+264271648+265357836
3868+263982247+262562577+262812061+263281396+261638538+258260466+255318027
3858+254465481+256891673+263331997+270603669+271559360+265880466+259039805
3848+254636217+253668266+255445249+258368984+261264190+264204792+267271637
3838+269140378+268676032+266878371+265067884+263278672+261340872+259889427
3828+259412500+259416939+259757736+261787922+266263875+270527630+271578155
3818+270543242+269231386+267131222+263741426+260299468+258408657+259064631
3808+261852145+264570202+266115501+268223655+271749917+274184909+273739450
3798+272101276+270654729+269150510+267819981+267802318+269554980+272286353
3788+275045031+277562430+279801141+281779042+284223034+287975729+292317451
3778+295571975+297787483+300603435+305128765+311404491+318698846+325682371
3768+331495527+336487896+341312147+346493818+352671343+359716459+365819383
3758+369231648+371083552+374564815+382443329+395008006+407962642+416038080
3748+420208102+424873571+431695070+437202631+438290533+437645518+439294866
3738+445020779+453234489+459680722+461591217+460248688+458369570+457514774
3728+458013527+459286354+460051488+459267681+456630683+452198963+446989956
3718+443248955+442771691+445571909+450270683+454595569+455980556+453775578
3708+449841479+446503723+445478360+447416436+451140326+454405043+456599092
3698+459054839+462614253+466670278+470590387+474825183+479458510+482314931
3688+481378188+478559297+476939948+477394315+479111774+481032921+482862357
3678+485009478+486978625+487170008+486473504+487538509+489824423+488965556
3668+482871907+475038943+469172799+466237002+465458797+465769075+466463834
3658+467129267+467820903+469284868+472298907+476967621+482313370+485308767
3648+482767155+476281219+470044125+466275512+465121519+465993702+468073570
3638+470323914+471693932+471675198+471091375+472122003+476381901+481640590
3628+482464897+478272437+473780872+472491056+475235224+480703082+485647973
3618+487259853+486623501+487012818+489726865+493445030+496523537+498456654
3608+499135862+498693710+498077806+498539795+500551644+503307476+505559871
3598+506902338+507810888+508587502+509367054+511021821+514257640+517823452
3588+519503289+519438209+519663143+520489592+520789585+520482429+520460266
3578+521050640+521883518+522618255+523254301+524269930+526355308+529306196
3568+531406696+531055644+528945286+526944763+525882972+525748649+526497713
3558+527834456+528927225+529104833+528591846+528046839+527874251+527922617
3548+527499321+525926747+523454868+521423366+521145413+522686825+524721021
3538+525782138+525732547+525405800+524922261+523633272+521941190+521615912
3528+523576518+526247004+526961844+524849222+521575137+519188971+518089099
3518+517586152+517514276+518126200+519006710+519517432+519684265+519373252
3508+518041039+516472689+516858945+519908708+523115998+523412012+521034967
3498+518989077+519214868+520789707+521976148+522781537+524099975+525330924
3488+524873956+522679601+520444104+519470413+519429393+519097565+517970694
3478+516709377+515936988+515397001+514654427+513724510+512634557+511338833
3468+510325225+510350602+511331027+512286627+512425389+511637571+510153984
3458+508465331+507413918+507387561+507496599+506442584+504207791+502220033
3448+501702760+502329622+502766295+501985273+499770929+496910069+495065971
3438+495361525+497192154+499205840+500808353+501955488+502490547+502578677
3428+502817661+503174591+502729072+501120314+499473385+499222370+500230866
3418+500953849+500610327+499928486+499524200+499065731+498202089+496968843
3408+495462910+494108779+493842123+495100960+496971384+498059470+497799945
3398+496443090+494521943+492933512+492899411+494929596+497770314+499225187
3388+498509030+496903212+495771841+495228150+494909240+494722601+494790192
3378+495576632+497533993+500045728+501713871+502052955+501929407+502396080
3368+503894023+505980565+507499967+507887937+508004199+508931575+510734164
3358+512852634+514814464+516291040+517192794+517591111+517315546+516320244
3348+515325186+515128660+515465509+515453754+514862524+514334475+514589837
3338+515543018+516133514+515338961+513396539+511492962+510371938+509796136
3328+509207415+508470933+507882121+507751624+508093983+508446628+508178471
3318+507432101+507193852+507954823+509165049+510365479+511796506+513312755
3308+513834038+512653873+510509476+508866587+508565033+509150784+509384350
3298+508694826+507967649+508382496+509864797+511337639+512145538+512470571
3288+512596966+512623904+512749901+513052986+513333204+513792774+515151435
3278+517428748+519437658+520219905+520053868+519480759+518577720+517592397
3268+517072246+517128449+517362015+517347015+516714949+515316492+513695123
3258+512860593+513351724+514763036+515976170+515873806+514552613+513570565
3248+514081379+515214311+515132946+513275103+510893099+509629119+509943928
3238+510891171+511453137+511630745+511945002+512487010+512814553+512533937
3228+511815056+511239101+511017168+510759817+510247656+509719883+509216017
3218+508685612+508684081+509711403+511167654+511850964+510968312+508447883
3208+505314581+503292231+502931597+503113889+502910292+502490822+502066241
3198+501550835+501117406+500791669+500174358+499289899+498595202+497920494
3188+496550567+494492862+492787801+492353883+492965409+493578496+493557191
3178+493234698+493075947+492798209+491785733+490037265+488362295+487596824
3168+487691659+487715107+486805394+485078415+483564891+483164064+483582064
3158+483545881+482438663+481176550+480825192+481096103+480887853+479734840
3148+478075788+476502602+475265315+474305124+473567938+473201181+473265160
3138+473393820+473212967+473038604+473550612+474702400+475504238+475044576
3128+473384116+471379062+469892384+469255389+469230777+469287960+468972355
3118+468096345+466750633+465222721+463904620+463290706+463736961+464912014
3108+465866175+465879674+464850607+462958694+460669045+458996218+458907781
3098+460164873+461281183+461030077+459735700+458689429+458600901+459061114
3088+459288680+458988534+458465047+458118310+457992895+457816083+457394532
3078+456872453+456525961+456400852+456333139+456203102+455934057+455524934
3068+455221391+455234798+455292011+454934744+454112611+453083330+452132720
3058+451566836+451340188+450805834+449599342+448380392+447975494+448340628
3048+448843575+449013714+448748220+448151541+447326530+446341054+445397883
3038+444838916+444928577+445677182+446608445+446703004+445250672+442863433
3028+440924439+440193039+440522020+441439080+442416597+442964390+442920830
3018+442463586+441789000+441013488+440261915+439593237+438950273+438323043
3008+437889155+437875931+438174853+438151496+437128123+435224516+433489088
2998+432925867+433495302+434201755+434172153+433521904+432960244+432753891
2988+432514938+431978961+431432944+431142747+430833050+430099139+429062266
2978+428270285+428107463+428471525+428911260+429063307+428983931+428949218
2968+428953993+428613777+427670269+426423799+425470006+425098321+425066730
2958+424904948+424415776+423908084+423856657+424283137+424671841+424601068
2948+424173639+423663315+423057880+422197483+421163457+420287110+419859315
2938+419947139+420307069+420450851+420019627+419123016+418221017+417749539
2928+417846333+418235742+418433155+418242874+417890750+417565717+417196971
2918+416789776+416422193+415848381+414755764+413479571+412851147+413190935
2908+413865367+413994425+413360216+412457881+411860222+411682308+411587994
2898+411318031+411089424+411205931+411431906+411212421+410451052+409588542
2888+408966730+408557822+408276625+408164862+408163699+408009753+407594906
2878+407206814+407112836+407091439+406708060+405915039+405111425+404702333
2868+404696425+404703343+404368698+403776182+403324050+403319367+403758795
2858+404297221+404421258+403907352+403055036+402309401+401840096+401565725
2848+401346302+401075543+400714052+400264859+399746391+399233924+398834934
2838+398569104+398351548+398111125+397886191+397817009+397969302+398085319
2828+397710787+396722097+395545115+394741808+394506314+394548864+394377286
2818+393757036+392987432+392661695+393029676+393602050+393591275+392851211
2808+392039088+391665627+391451683+390914084+390126817+389500996+389156310
2798+388901316+388637139+388459255+388363778+388120815+387598215+387044759
2788+386813703+386857937+386784010+386403815+385940663+385649333+385466919
2778+385119999+384445016+383541150+382654273+381932117+381298520+380616587
2768+379972919+379658937+379792403+380095029+380164639+379857453+379288660
2758+378622033+378023303+377636190+377421664+377185650+376889177+376704651
2748+376678999+376648295+376557655+376510758+376455963+376183092+375652687
2738+375035712+374474542+373997492+373525034+372874815+371987571+371154112
2728+370749825+370815885+371166754+371727741+372412581+372804959+372410040
2718+371307751+370201022+369643832+369476846+369177404+368523297+367736123
2708+367192187+367132862+367435977+367622248+367335326+366769809+366355850
2698+366169579+365952329+365552420+365080666+364730409+364599606+364594341
2688+364460263+364045722+363513479+363140264+362987237+362922065+362860934
2678+362803078+362670408+362289080+361588230+360749628+360065736+359657960
2668+359444384+359371283+359466516+359663715+359837925+359980177+360062369
2658+359845609+359167135+358300187+357714068+357592939+357796352+358112906
2648+358339706+358250045+357714405+356854405+355966304+355301177+354954961
2638+354862943+354835332+354721120+354570634+354513207+354517247+354448525
2628+354286284+354107665+353955618+353830907+353730317+353663462+353647513
2618+353630708+353468467+353103486+352704220+352499582+352533989+352641956
2608+352626466+352454644+352268924+352172069+352095694+351927851+351606062
2598+351090381+350475090+350053171+350002203+350117823+350106282+349982581
2588+349933725+349967031+349961857+349958949+350148098+350563649+350961537
2578+351060259+350819959+350442182+350152720+350007254+349866074+349562193
2568+349115235+348744438+348662766+348881057+349182947+349270741+348988075
2558+348419313+347767165+347210709+346913074+347014887+347460928+347916060
2548+348043985+347858449+347663147+347677902+347850643+347987170+347930967
2538+347647229+347243188+346928226+346913349+347250351+347705973+347927447
2528+347833072+347680473+347686045+347808368+347961487+348193645+348557248
2518+348935209+349093592+348934535+348637359+348438476+348364916+348338284
2508+348364947+348416252+348353467+348220369+348349457+348894556+349485328
2498+349643038+349385596+349139142+349160632+349290669+349220508+348861741
2488+348447935+348229889+348098045+347770839+347368726+347362267+347872867
2478+348488832+348851455+348986850+349001697+348844017+348471628+348051852
2468+347880275+348112524+348603563+349048410+349272119+349333250+349359943
2458+349369586+349312312+349210865+349102409+348898689+348527524+348170472
2448+348104627+348344927+348673511+348947116+349150958+349243191+349191733
2438+349110092+349165285+349391687+349696180+349968439+350120364+350132608
2428+350118649+350229800+350485957+350783960+351017220+351122186+351087595
2418+350976721+350883692+350890182+351095401+351570829+352212660+352757882
2408+353034212+353098588+353080619+353063231+353180259+353576495+354150766
2398+354591113+354769823+354861382+355022613+355210690+355367023+355568661
2388+355887541+356174769+356090434+355373451+353996576+352047970+349611509
2378+346796780+343778363+340793068+338106878+335875728+334020150+332360271
2368+330835635+329534584+328626188+328265952+328462233+329128278+330293934
2358+332135889+334882935+338858145+344335585+350726380+356172503+358798726
2348+358165710+355475388+352790881+351521085+351458576+351714244+351768793
2338+351432159+350757603+350105027+349897114+350322063+351349814+352870899
2328+354609541+356043231+356795692+357129327+357710670+358861877+360338270
2318+361775787+363009553+364012110+364831733+365603603+366432899+367230114
2308+367784642+368046921+368211795+368456197+368753496+369026122+369281300
2298+369498733+369617536+369753023+370176962+370952963+371817830+372519997
2288+373053249+373477831+373725203+373683632+373376813+372996924+372753716
2278+372678044+372628178+372540690+372575771+372883141+373270254+373286815
2268+372741808+371982398+371477247+371299853+371246436+371219039+371177682
2258+370989054+370678868+370569983+370871690+371397840+371869594+372198821
2248+372399204+372582353+373037638+373891484+374721821+374964877+374665772
2238+374366575+374318576+374253435+373877770+373219011+372484212+371827044
2228+371279190+370792835+370306020+369771053+369186067+368660835+368356006
2218+368278069+368246355+368130521+367992433+367951689+368056656+368310486
2208+368666620+368959848+369008612+368873309+368883687+369303738+370053169
2198+370838568+371499440+372139404+372892447+373642888+374147152+374410686
2188+374673578+375018478+375311215+375499599+375663217+375863049+376188878
2178+376764344+377531131+378253685+378784611+379107685+379207264+379125930
2168+379041993+379131440+379445820+379952869+380551997+381024180+381135544
2158+380913397+380731442+380939233+381419344+381708531+381575187+381267908
2148+381152350+381327632+381681317+382121878+382608417+383064069+383409704
2138+383623892+383707033+383704707+383794123+384165288+384791140+385474266
2128+386076180+386544322+386815571+386910374+387079228+387638316+388578059
2118+389456976+389845742+389841855+389966872+390569337+391506141+392409303
2108+393108378+393709864+394333512+394921069+395356150+395648276+395896627
2098+396142529+396350535+396519479+396749800+397152679+397676564+398070962
2088+398110053+397884232+397773633+398025260+398423668+398566930+398423607
2078+398342242+398545410+398928850+399332738+399733229+400196228+400805917
2068+401547419+402192465+402450153+402303003+402103447+402294371+403022466
2058+403990218+404747210+405144394+405388245+405712176+406201593+406866108
2048+407649027+408418019+409131022+409931391+410929326+411988851+412873769
2038+413540181+414155993+414846436+415545235+416164873+416838969+417857077
2028+419334970+421065530+422736123+424207924+425571299+427025958+428714091
2018+430578913+432397023+434019402+435515264+437031145+438670637+440543479
2008+442679183+444824682+446590017+447887057+449001959+450181145+451391952
1998+452581638+453957656+455795999+457993569+460012122+461412109+462292679
1988+463013978+463754838+464575502+465648435+467161194+469101291+471274218
1978+473485348+475655888+477784642+479846236+481861667+484097317+486845526
1968+489791210+492049513+493283524+494274143+495903961+498219384+500856933
1958+503699058+506648936+509373330+511741619+514054258+516532075+518984180
1948+521257329+523758289+527131799+531310270+535202462+537757788+539093674
1938+540094058+541476658+543546853+546233012+549203920+552286070+555611398
1928+559165578+562587455+565530751+567885511+569796465+571759336+574239235
1918+576810785+578319259+578545294+578825145+580452085+583199284+585711203
1908+587070599+587462549+587442100+587342184+587429917+588010311+589208445
1898+590865936+592629526+594093552+595135507+596109871+597311556+598389020
1888+598826458+598820887+599019372+599672009+600429154+600731168+600339830
1878+599569338+598867539+598408244+598514956+599969982+603064621+606392949
1868+607520739+605645172+602318435+599253244+597020379+595396745+593969698
1858+592551528+591334047+590498292+589728963+588584032+587225554+586283393
1848+586221681+587032824+587898824+587232167+584427785+580851137+577987002
1838+576198004+575150968+574519820+574416537+575167131+576329266+576454957
1828+574895791+572690660+570630812+568359193+565804969+563777936+562737818
1818+562160424+561387973+560530239+560190329+560592931+561223100+561337587
1808+560815048+560287184+560461057+561524317+563113728+564638364+565641197
1798+566058004+566360200+567401665+569636244+571962167+572202774+570116600
1788+567942142+567590110+569089767+571261225+573182648+574578594+575453165
1778+576325409+578320055+582355876+588089044+593309224+595508293+594738965
1768+592815767+591256539+591214968+593230552+596322131+598545139+599335160
1758+599650643+599985410+600449419+601918710+605443503+610606072+615061638
1748+616915043+616860615+616666294+617284156+618794834+620764991+622395421
1738+623729286+626428119+631625525+636815461+637850681+635421107+632594869
1728+630690037+630118826+630989785+632738681+635007912+638811453+645396968
1718+653277349+657269090+654726927+649368750+645229095+643551400+644245424
1708+647112621+651502127+655948020+659856130+664493467+670394447+675052784
1698+676379058+675455386+672954671+669371716+666905898+667152994+669578956
1688+673140422+678245074+685122867+690225928+689916690+686914375+685154703
1678+685973071+688780942+691613119+693043533+694395827+697507058+701148420
1668+702115070+700639289+699968958+701482697+703428548+703637931+702652608
1658+702689036+705526539+711902058+719641749+722424274+720165451+719606301
1648+722434070+724437225+721167121+714999943+710549703+709203776+710686292
1638+714884660+720536095+722964628+719282309+713882194+711295767+711892569
1628+713727422+715423667+717122055+718523939+718380310+717063771+716715840
1618+718097521+719133904+717788590+715585969+714723827+715294058+716215832
1608+716732983+716972242+717514249+718708098+720323161+721841186+723066197
1598+724258883+725695726+727285381+728729877+730102864+732061144+735191905
1588+739247807+743340933+746788462+749386767+751064032+752090865+753672929
1578+757223312+761950280+763990292+762028462+759519053+758717276+758298266
1568+756197031+753025985+750583126+749747125+751349638+756746079+764841659
1558+768415369+764306815+758384407+753896454+750886241+749144079+748471177
1548+748704620+750246766+753587584+758450773+764264571+770310834+773819831
1538+772818834+770430525+769952005+771743636+774019540+775459567+777057120
1528+780361754+785291799+790357207+795104991+800515636+806259518+810343032
1518+812271128+813141352+814122267+816727367+822490290+831657518+843031774
1508+854361521+861349577+860493802+855897423+853477951+855309008+861150908
1498+869195368+876160955+879664931+881220914+884433592+890771643+897509358
1488+900677037+900527041+900273026+902094166+906294371+911239782+914541111
1478+915910547+917571344+921902321+929760111+939131763+945340511+946746069
1468+946413567+946837842+947675618+947807431+947588436+948219829+950690117
1458+954274663+954391109+948056058+939562344+932946708+928553712+925499785
1448+923007335+920711840+919132347+918789743+919135469+919425544+920138119
1438+922526918+926426763+929311469+929808477+929552810+930190080+931525599
1428+932756672+934207167+936113223+937432273+937633268+937511985+937160137
1418+935718641+933885563+933102459+932824690+931366297+928316717+925189079
1408+923967435+925302525+928026949+930570643+932672245+935129431+938573776
1398+943079974+947875144+950807298+949695059+945711033+942987588+944089357
1388+947521581+949265029+947825676+946177552+947088489+950203149+954096688
1378+958438807+963219039+967664197+971172276+974156469+976770937+978037029
1368+977497654+976725081+977643487+979793639+980986753+981182728+982859443
1358+986500070+989542486+990284509+989967680+990407567+992373928+996060533
1348+1000551363+1003876079+1005592466+1007448809+1010313067+1013014777
1340+1014993260+1017482282+1021059114+1024103918+1024740637+1023370772
1331+1022505997+1024533397+1029713415+1035909552+1040777883+1044304084
1322+1047825142+1050822131+1051315956+1049915540+1050395896+1054930930
1314+1060616833+1062127695+1058451008+1054355923+1054241314+1058091262
1305+1063722065+1069600576+1073741823+1073532685+1068992387+1063400521
1297+1059634449+1058067752+1057556050+1056887127+1055596791+1054065971
1288+1052782981+1051692844+1050382060+1048079585+1043876135+1038535529
1280+1034690846+1033846091+1033929477+1031200032+1024377768+1015771649
1271+1008507172+1003811183+1000878845+998255623+995265368+991904041+987993299
1261+984169493+982345231+983364961+985174836+984716582+981342765+976971871
1251+972935315+968438117+962543198+955693751+948343806+940038843+930604132
1241+920801593+911438818+902876412+895267065+888533146+882389417+876917243
1231+872605673+869362017+866098952+861888768+857199759+853336709+850853504
1221+849308541+848412848+848288749+848635394+849024589+849971219+852206471
1211+854970690+856397492+855791691+854646637+855070361+857766806+861777587
1201+865866489+869843352+874356100+879672890+884809379+888215154+889752709
1191+890994740+893123097+895920192+898893427+901857723+904446722+906595282
1181+909359440+913530564+918197900+922624324+928360982+937060037+947241363
1171+955309577+959856304+963388627+968977676+976975973+984798253+989150108
1161+989298818+988135520+988681997+990535952+991315749+990517156+990093860
1151+992034446+996857718+1003544373+1009168196+1010886298+1009633981+1008821368
1141+1009735795+1010024094+1007643376+1004727997+1005304228+1010248170
1133+1016277780+1019979262+1020859588+1020184788+1018897513+1018016514
1124+1018828208+1021351270+1024553356+1027534121+1029471829+1029021840
1115+1025804938+1022192107+1021348637+1024366381+1028870619+1031513372
1107+1032071358+1032597876+1033420469+1033369409+1032838483+1033493936
1098+1035626211+1038488387+1041429541+1042047893+1038479204+1034069188
1090+1033472019+1036258400+1037802812+1035847227+1033334144+1033888090
1081+1037519839+1040999143+1041108610+1037339109+1032223804+1028349856
1073+1024921429+1018223876+1007089614+996760679+994306065+1000075416+1005342432
1063+1001871209+993530308+990003067+993595511+999186519+1002392339+1003065058
1053+1001327610+995908516+988394861+983854562+985170061+989515303+991722209
1043+990463892+988941888+990056514+993512553+996953777+998601716+998759733
1033+998444741+997745696+996367934+994668628+994120376+996058574+999195763
1023+999706547+995045517+987253602+980663129+977758403+979003005+984045639
1013+991180446+996452360+995258267+986904386+975901325+967318655+962886659
1003+960664937+956922681+950009194+942393970+937037446+932882607+926250379
993+916876157+909037713+905794301+905390536+904008487+900620100+897242365
983+895442041+894503308+892398706+887948405+882088812+877053709+874174819
973+872834402+871754796+870481112+869114859+867396023+864742373+860962464
963+856425533+851788624+847681723+844616225+842977408+842909205+844220419
953+846552036+849784427+854203872+860044364+866935320+873921478+879704420
943+883554368+886197733+889026604+892791513+897388626+902771048+909427765
933+917594547+926531271+934790194+941367260+946890433+952564582+957913759
923+960906217+960159603+956088884+950547467+946050637+944225640+944536530
913+945369714+946563563+948984321+951411630+950877092+947062714+943291867
903+941837330+941136510+939597364+939244780+942596740+948544005+953275075
893+954295479+952680232+951838783+954463169+960242376+966541490+970755714
883+971820199+970667308+969447501+969198568+969169120+968120431+965666184
873+963053859+962485526+965414496+971751752+980057204+987333437+989467610
863+985435707+980184303+978443243+978898559+978250819+977611345+980512887
853+986439153+991020899+991706597+989022825+984354999+980480072+981736184
843+989024233+996203672+996672273+992643309+991553233+995637666+1000129782
833+1000750461+998946096+998443271+1000537956+1004147848+1007932716+1010864870
823+1011885090+1011263738+1011025397+1013019736+1016268780+1016587875
814+1012249306+1007477462+1007636335+1013550111+1021768137+1028916414
805+1032242783+1030100712+1025953588+1025674778+1031121667+1038572630
797+1043614223+1045427526+1045041576+1042587146+1037838811+1030900774
788+1022495406+1014015773+1006263164+1000329552+998000017+998150809+996110368
778+990001597+984164044+981393091+978148210+970849753+961704504+956413795
768+957801966+963148082+967944231+971335374+975558844+981161790+986101079
758+988895726+990356507+992352561+995914883+999917338+1001989431+1001480484
748+999688731+997629128+995997963+995361550+995223798+994177374+991687067
738+989104680+989536241+996610805+1010154009+1023299325+1027165926+1020914811
728+1011604566+1005082111+1003080302+1005383635+1011311920+1017627503
720+1018382260+1011597893+1002945489+999544673+1002372136+1006530525+1008532702
710+1008598149+1008060550+1009031792+1010766056+1008416439+1001240428+996722599
700+1001058167+1010529551+1016069622+1013542213+1004840770+995032966+988403187
690+985805556+986137752+986300360+982027973+973607850+966909195+966271068
680+970386846+974341179+973373243+967772317+962015946+957750600+951346611
670+940399630+932806262+939842195+955555387+965901158+968149390+968332508
660+970411641+973591564+977150397+980009757+978202392+970542291+963576581
650+964366297+970175749+971075299+964779736+958687924+955491470+949960277
640+944172621+950490346+974175448+1001732661+1007728905+988632834+967097578
630+958033266+960600470+967155189+971180725+970267890+965409231+956807275
620+944536530+933794524+930067083+931112466+929812763+925027450+921496841
610+921130360+922914276+926153219+931074263+934852213+935593440+940900067
600+949229519
##END=
