##TITLE=<SNM>
##JCAMP-DX=4.24
##DATA TYPE=INFRARED SPECTRUM
##DATE=29/4/2025
##SAMPLING PROCEDURE=Instrument type and / or accessory
##ORIGIN=Admin
##XUNITS=1/CM
##YUNITS=ABSORBANCE
##RESOLUTION=4
##FIRSTX=4497.3318
##LASTX=599.83466
##DELTAX=-1.4281778
##MAXY=2.1504042
##MINY=0.58639938
##XFACTOR=1
##YFACTOR=2.00272e-09
##NPOINTS=2730
##FIRSTY=0.59956408
##XYDATA=(X++(Y..Y))
4497+299374889+298213463+297298613+296157306+294694749+293372609+292875973
4487+293755704+295841979+298077689+299398044+299793281+300260066+301506373
4477+302665895+301949944+299100485+296105134+294794809+295068320+295910491
4467+296822305+297708107+298368105+298798997+299297449+299785513+299799174
4457+299430187+299280187+299329830+299048431+298659325+298973640+299995007
4447+300831166+300903755+300469738+300045602+299798579+299605901+299636049
4437+300355631+301402742+301424349+300148251+299225961+299790394+300751017
4427+300664976+299848430+299368699+299238669+298682956+297507304+296482008
4417+296430937+297228137+297883791+297771053+297461857+297736619+298223284
4407+297812868+296317871+295159005+295884182+298198463+300158905+300237983
4397+298461855+296022723+294485792+294717428+295958051+296695073+296806858
4387+297414566+298424028+298244534+296392157+294598946+294539155+295680730
4377+296302812+295831473+295037279+294619273+294705821+295364034+296619210
4367+297935398+298440129+297894803+297001739+296445490+296234330+296296413
4357+296904953+297989862+298751855+298572450+297643732+296438020+295303111
4347+294457161+293822876+293196211+292831479+293285972+294658142+296385222
4337+297617303+297717958+296865965+296082782+296204241+297191679+298465337
4327+299334800+299326645+298507569+297186977+295488022+293761180+292801479
4317+292995914+293912965+294939184+295609807+295559688+294945374+294489006
4307+294514274+294611833+294564690+294724779+295284897+296005104+296722573
4297+297386709+297662750+297236352+296483764+296181681+296543109+297101025
4287+297437214+297429685+296921620+295857694+294662547+293865704+293549484
4277+293631091+294176804+295097457+296083556+297014209+297921350+298539593
4267+298459355+297747958+296905102+296146056+295294332+294475226+294269482
4257+294927398+295888705+296437454+296389389+296003497+295698884+295714212
4247+295749390+295298796+294409214+293629305+293350199+293612311+294282072
4237+295025642+295395314+295213171+294693946+294124929+293655644+293422579
4227+293646091+294423857+295383022+295848170+295618617+295308111+295584391
4217+296284508+296663525+296361978+295820670+295760372+296412752+297305994
4207+297819833+297931380+298156022+298588611+298485933+297331738+295881176
4197+295397665+296045610+296720132+296562543+295960045+295662724+295677694
4187+295616682+295625760+296232098+297354923+298058433+297542422+296143556
4177+294977279+294730821+295211921+295956205+296700073+297153376+297013406
4167+296526174+296368794+296642365+296647990+296092723+295771890+296464954
4157+297785785+298657361+298513075+297559803+296329330+295551623+295954003
4147+297441381+298851378+299160455+298471885+297351590+295982961+294583649
4137+293867430+294311119+295465730+296461353+296840906+296770430+296750311
4127+297076828+297434893+297216292+296217157+294892428+294015852+294117042
4117+295087606+296323318+297265994+297680547+297533553+296978584+296465877
4107+296521055+297200786+297774982+297364030+296115937+295203588+295388528
4097+296173556+296710876+296981709+297420131+297713672+296992156+295431802
4087+294545672+295318171+296973346+298027868+297875755+296977275+296125163
4077+295847337+296075550+296178556+295572129+294355554+293220794+292828176
4067+293335139+294354333+295298826+295893110+296291443+296549805+296294389
4057+295364778+294389095+294042370+294123977+294012578+293707400+293793114
4047+294618887+295981265+297398762+298413046+298819027+298740575+298291766
4037+297329982+295867813+294460970+293823025+294146923+294930820+295427159
4027+295326593+294985552+294906713+295180106+295633587+296279984+297135489
4017+297774624+297711589+297096233+296447187+295940967+295480522+295174094
4007+295160165+295193975+294937398+294507339+294407369+294984749+296108288
3997+297294506+298052749+298227391+298048076+297833077+297775190+297968791
3987+298352064+298518373+297955606+296730847+295634152+295496206+296523258
3977+298213582+299713877+300289798+299679472+298256975+296934001+296599151
3967+297346232+298410605+299032658+299053074+298501468+297280608+295679629
3957+294611625+294802428+295997068+297346262+298347838+298978402+299187895
3947+298970991+298774384+299062568+299705275+300359173+300942922+301223368
3937+300683339+299403044+298395010+298410933+298900039+298809682+298104386
3927+297695011+298242868+299556169+300926702+301907860+302715716+303780029
3917+304883807+305089759+303928005+302130003+300863309+300665631+301311582
3907+302563752+304478331+306705381+308162312+308194693+307303147+305950531
3897+304049999+302113039+301303427+302063485+303335417+303637351+303207382
3887+303596309+305150265+306316364+306223001+306144281+306713476+306751958
3878+306045918+306134787+307687611+309769095+311687692+313144445+313128136
3868+311655103+310540611+310382457+309596804+307423802+305408121+304806515
3858+305310741+306816750+310443409+315463221+316984855+313361082+308207580
3848+304690117+303594434+304104314+305303747+307161749+310008648+313178255
3838+314745097+313712510+311513169+310008350+309655315+309716655+309498381
3828+309002221+308633413+309078412+311107991+314156229+315529976+314187152
3818+312703494+312754149+312761172+310875640+307968890+306258655+307272641
3808+310471683+313148553+313880605+314256140+315245513+315334858+314018819
3798+313163404+313533224+313959652+313593611+312879506+312462869+312614298
3788+313555367+315396941+317714526+319994968+322593504+326231116+330436227
3778+333807560+336118984+338508681+342136621+347679080+354804810+361479470
3768+365619402+367388357+368248474+369261091+371061326+374097124+378002354
3758+381349818+383283861+385021983+389060160+396603121+404946319+410227053
3748+413308832+417372158+423135629+427614429+429087313+430158978+433567900
3738+440310863+449680130+459274367+466106050+468957920+469169556+468717503
3728+468543754+468723753+469066610+468937682+467250631+463633882+459329992
3718+456236724+455450446+457134937+460942995+465389296+467522952+465714474
3708+461823172+459223088+460051360+463867513+467843368+469133068+467770065
3698+466056467+466256318+469341699+474426986+479359506+482490393+483646016
3688+483109440+481080694+478660669+477465492+477984152+479261084+480725664
3678+483408844+487731722+490918383+490906865+489744546+489280975+488262971
3668+485152799+481487836+479373048+479043317+479265965+479030013+478580044
3658+478637841+479095340+479385756+480028017+482444143+487322556+492289154
3648+492751950+488281185+482578072+478444121+476489661+476214721+477123410
3638+478890222+481012658+482687387+483330927+483807414+486303124+491417518
3628+495545040+495317660+492264541+489738415+490210676+494193406+499132444
3618+501508898+501297886+500863899+501207946+502056277+503319132+504747760
3608+505607878+505718532+505684723+505892520+506167341+506308650+506800554
3598+508777157+512593995+516771308+519193387+519489041+519334041+520242968
3588+521661179+521628560+519591600+517411247+517491961+520435468+524224270
3578+526220218+526016290+525004863+523956770+522806832+522071655+523077189
3568+526543967+530940864+533191335+531769017+528042060+524714150+523444509
3558+523783973+524033318+523176117+522170107+522882010+525593434+528416583
3548+529246343+527810632+525588434+523887961+522851475+522235285+522162786
3538+522990343+524773792+526770931+527647834+526695931+524799269+523741711
3528+524469983+526199563+527230454+526578967+524686590+522580940+521132907
3518+521095050+522544154+524241472+524723614+523997008+523157784+522819094
3508+522742784+522586951+522348678+522292190+522660463+523278260+523477843
3498+522740523+521474989+520811538+521485465+523313379+525589862+527321049
3488+527510216+525884802+522956058+519323624+515753334+513417624+512965244
3478+513947861+515657977+517587080+518884042+518372317+515733751+512383102
3468+510437570+510542332+511405426+511790127+511786556+511645544+510865010
3458+509055668+506843887+505379604+505131569+505335557+504901510+503761631
3448+502592645+501728659+501425624+502184075+503602167+504230142+503622286
3438+502933240+502875323+502918300+502767764+503011990+503878238+504401451
3428+503519846+501599612+500159079+500147055+501020268+501443600+500583899
3418+498865927+497608935+497791256+499090390+500278305+500597292+500515388
3408+500800923+501027351+499798246+496771734+493523318+491932041+492555403
3398+494758554+497391435+499238694+499735389+499220837+498355422+497636703
3388+497463638+498114172+499238426+499909496+499434318+497817149+495827569
3378+494812631+495759385+498204827+500479316+501463183+501552409+501576219
3368+501688838+501712885+502012885+503342465+505674723+507898885+509284894
3358+510500249+512431912+514661253+515979286+515936845+515023633+513741254
3348+512353698+511314950+511048760+511456795+512206793+513038577+513524945
3338+513316731+512735483+512180246+511310783+509881262+508584657+508214956
3328+508830669+509779298+510000428+508989478+507711921+507554421+508392574
3318+508792871+508126325+507394660+507777040+509129775+510353344+510928403
3308+511206795+511428164+511398521+510715189+508853585+506032877+504109607
3298+505012462+508150075+511013760+512367507+513144887+514213099+514949169
3288+514374944+512864113+511870306+512136853+512988696+513490362+513696136
3278+514218099+515127918+515960536+516472737+516787856+516854225+516397142
3268+515404108+514259349+513543517+513792802+515028097+516374464+516522499
3258+514860717+512221436+510221142+509466620+508892216+507636207+506659840
3248+507119720+508513765+510019655+511950960+514171611+515072978+513924587
3238+512345007+511975306+512391436+512250126+511238224+509931441+508648943
3228+507537814+507106625+507655969+508624181+509201442+509175252+508652455
3218+507504064+505723592+503988178+503161870+503217347+503212108+502516991
3208+501626754+501351636+501641040+501671100+500743125+499055569+497697000
3198+497536376+498248993+498788665+498468755+497054561+494617006+492144184
3188+491123650+491698530+492250672+491538887+490292283+489945200+490849990
3178+492112874+492507695+491620435+490254574+489388921+488886839+487850650
3168+486108332+484561431+484088604+484613752+485221310+485057977+483985450
3158+482233459+479989118+477666147+475872936+474797849+474157969+473726214
3148+473439429+473201066+472941186+472695859+472480978+472206009+471815027
3138+471461159+471365326+471487885+471644908+471931217+472494073+472807109
3128+471840771+469319824+466318847+464181114+463236205+462881503+462563230
3118+462297040+462362129+462848170+463544984+464200459+464788553+465311647
3108+465515159+465165100+464434327+463568734+462402813+460781329+459253266
3098+458677136+459094278+459375022+458399637+456533361+455238423+455318929
3088+456255355+457104074+457381514+457169223+456904521+456985175+457332556
3078+457507020+457266544+456705831+455940594+455008810+454143484+453800360
3068+454115151+454609049+454780090+454664704+454442383+453961074+453085302
3058+452049947+451153014+450529057+450357301+450730098+451266556+451426287
3048+451089115+450331438+449100310+447592247+446343381+445653948+445461954
3038+445659126+445909393+445610614+444682729+443746005+443131542+442629846
3028+442350353+442735382+443627582+444235022+444062343+443168804+441690979
3018+439859346+438228039+437317982+437182595+437477118+437666701+437269500
3008+436412329+435913699+436270692+436967744+437277148+437162655+436919858
2998+436583846+436122746+435715604+435564830+435693967+435897836+435770812
2988+435038075+433938167+432993764+432398616+431876832+431154125+430409364
2978+430099960+430285466+430344097+429660318+428506689+427836840+428139934
2968+428854516+429054278+428493743+427750262+427409757+427389013+427183984
2958+426559431+425683213+424765030+423948990+423445658+423421283+423695479
2948+423742592+423227087+422541910+422425154+422921700+423312146+423277176
2938+423265777+423402860+423075391+422011107+420864294+420402777+420682925
2928+421061793+420708818+419311946+417490253+416277636+416160880+416756534
2918+417326890+417476294+417305551+416994391+416491267+415787191+415226924
2908+415172757+415480376+415646149+415434929+415066329+414777133+414505407
2898+414125884+413706718+413320380+412883922+412430798+412272555+412557673
2888+412846988+412535262+411651752+410831188+410483659+410433273+410376368
2878+410224582+409985982+409718691+409599554+409748333+410028779+410192499
2868+410153303+410054910+410013363+409743066+408709258+406927565+405287717
2858+404687808+405110813+405859948+406502090+407206285+408091224+408668544
2848+408395360+407499499+406657089+406125781+405749681+405456645+405216318
2838+404802956+404017005+403004388+402148914+401715611+401672427+401771534
2828+401708647+401298350+400639363+400022906+399593234+399235616+398845885
2818+398506272+398380915+398598296+399103950+399502431+399314634+398522849
2808+397589310+396894490+396425026+396018063+395641337+395348183+395151755
2798+395063928+395120713+395275237+395379284+395290207+394934434+394382768
2788+393871370+393554258+393325985+393083307+392911640+392813099+392597177
2778+392227505+391914648+391718696+391379828+390723490+390004890+389614593
2768+389604415+389771527+389984830+390062271+389617212+388519952+387283824
2758+386568230+386483141+386637248+386652099+386385046+385809362+385020316
2748+384367044+384221300+384531627+384857638+384812370+384292877+383495796
2738+382876690+382794309+383149993+383600557+383887194+383799813+383255647
2728+382557732+382158685+382152197+382278328+382272733+382005739+381490115
2718+380905205+380475117+380236248+379993035+379549047+378955983+378491907
2708+378395746+378619228+378821400+378709912+378474198+378643454+379290090
2698+379678363+379091251+377782384+376673279+376306703+376478607+376666702
2688+376465869+375793281+374992628+374608402+374836199+375293371+375413133
2678+374967866+374214564+373619267+373413107+373440250+373481083+373538196
2668+373682958+373841350+373868612+373717392+373508464+373424238+373389327
2658+372994685+372046443+371011326+370534154+370659511+370866326+370770642
2648+370496089+370359720+370442934+370559630+370481387+370100227+369497252
2638+368950556+368750229+368905973+369109961+369023384+368570378+367986868
2628+367593446+367486631+367508773+367534845+367602196+367702315+367698743
2618+367554011+367411809+367359012+367291899+367120560+366973596+367020530
2608+367111215+366881751+366345978+366005949+366120294+366285204+366077258
2598+365655414+365349522+365129344+364874404+364735297+364845832+365020713
2588+365041873+364977618+365002766+365132766+365284403+365385563+365367825
2578+365216605+364992915+364720565+364388660+364099643+364012947+364127084
2568+364288809+364372351+364334553+364179197+363973006+363846965+363887352
2558+364019197+364088244+364075298+364071459+364030655+363782739+363300061
2548+362731372+362266909+362145510+362543932+363266341+363801727+363862054
2538+363659763+363551311+363609466+363654346+363580745+363487263+363480031
2528+363552263+363688870+363859584+363925983+363785269+363516698+363243960
2518+363066193+363159824+363597948+364078721+364214941+364060625+364002709
2508+364207441+364503779+364717410+364801576+364711874+364439642+364096459
2498+363758007+363405686+363182204+363398454+364098482+364893034+365356873
2488+365389254+365160147+364881130+364662946+364552172+364629374+364874880
2478+364988778+364674047+364066280+363552412+363276460+363168841+363299942
2468+363790209+364427440+364760297+364625535+364287321+363997768+363742322
2458+363537144+363622739+364101459+364613600+364660892+364185060+363609019
2448+363342026+363438573+363716102+364007530+364250089+364449583+364610446
2438+364690029+364645208+364497142+364293155+364074703+363933393+363936995
2428+363986548+363969405+364004971+364289524+364771993+365228421+365558063
2418+365788926+365923122+365982764+366099104+366398627+366854906+367323833
2408+367675946+367870618+367947403+367985141+368081987+368331748+368745229
2398+369171032+369391627+369407758+369565882+370320762+372024241+375082300
2388+380092469+387566829+397681661+410520862+426351218+445327698+467040483
2378+490705407+515831191+542331556+569792037+596990972+622321101+644449986
2368+662566022+676561947+687223474+695043697+698371071+694798102+684510443
2358+669515651+650605986+627255079+599641027+570987214+547308212+533666394
2348+532187944+542410841+560634198+579701958+593305206+600242097+603020841
2338+604998754+608193510+612163681+615378972+616935338+616586053+614443974
2328+610887671+606266252+600868643+594710679+587312360+578416663+568715016
2318+559132713+549852493+540627214+531488601+522535940+513418993+503685977
2308+493509002+483588665+474442611+466122092+458506958+451580603+445389633
2298+439832709+434599922+429427015+424367561+419667094+415419096+411544401
2288+408055509+405111884+402819180+401112279+399806656+398702700+397702821
2278+396849996+396199789+395707528+395299403+394946815+394610387+394237530
2268+393850150+393485032+393064140+392500272+391878428+391345364+390887924
2258+390382300+389774980+389115904+388518286+388118435+387966323+387969805
2248+388019775+388089894+388169983+388227780+388307661+388565309+389082630
2238+389659355+389931110+389760010+389355427+388937273+388484447+387917364
2228+387338734+386942932+386757277+386579063+386210255+385712875+385322816
2218+385127072+384986834+384794989+384629037+384581954+384590942+384547252
2208+384475585+384442907+384338056+383968265+383413891+383063029+383198237
2198+383719277+384360496+385005971+385651297+386221683+386629926+386927098
2188+387242872+387650520+388163882+388750398+389307481+389735516+390034473
2178+390269622+390518431+390861228+391280483+391588875+391632922+391539500
2168+391577863+391808488+392058160+392213963+392330689+392443724+392499855
2158+392502504+392531581+392597593+392627206+392617504+392720629+393118396
2148+393783633+394444346+394892232+395217975+395601129+396051396+396512496
2138+397004311+397543804+398096928+398630319+399103950+399515824+400017281
2128+400846148+402141414+403884327+405895752+407830629+409383602+410608867
2118+411889460+413532076+415474900+417413824+419144416+420671497+421967536
2108+422843665+423238337+423418783+423632830+423753604+423561640+423184408
2098+422906046+422702475+422344559+421885214+421691465+421984887+422590570
2088+423151164+423411104+423270182+422742683+421961524+421113638+420264027
2078+419306469+418184388+417068944+416196476+415613828+415221477+415016597
2068+415130317+415567786+416030940+416149422+415861327+415439096+415184900
2058+415248471+415671834+416358797+416996057+417265759+417221206+417265104
2048+417724508+418627661+419851081+421223162+422491582+423436699+424060002
2038+424557084+425158809+426007885+427062615+428176988+429397283+431001982
2028+433077038+435281617+437250006+439051401+441082022+443633565+446641148
2018+449674713+452133310+453686015+454598543+455453214+456542884+457684132
2008+458605113+459340944+460163443+461223084+462388022+463456026+464396946
1998+465276171+466092806+466861049+467650482+468382087+468875807+469267383
1988+469966817+471052142+472155979+473066364+473998237+475201687+476734303
1978+478623169+480826438+483053547+485002144+486741813+488588982+490711597
1968+493046414+495436618+497699709+499683365+501396993+503073597+505022343
1958+507331922+509741203+511960008+514055421+516278571+518635173+520979038
1948+523418021+526248849+529513009+532807467+535538295+537456625+538926086
1938+540507988+542458103+544774944+547469581+550451659+553308558+555637125
1928+557569442+559606641+561992707+564622583+567474780+570631798+573784291
1918+576231370+577692081+578725472+580020648+581743145+583667189+585459745
1908+586795337+587659502+588543191+589893367+591523007+592996516+594330858
1898+595795677+597346567+598770135+600125371+601630487+603190424+604241315
1888+604271256+603511971+602741259+602521140+602926913+603752864+604631671
1878+605118873+605057028+604845778+605131730+606281013+608134998+609947018
1868+610620707+609649281+607742320+606063097+605198039+604929469+604716790
1858+604249767+603540364+602675663+601690130+600740012+600151978+600080133
1848+600353763+600695429+600567334+599030373+595916450+592501993+590019498
1838+588611346+587728252+586968849+586509802+586742957+587477717+587737002
1828+586888135+585375281+583645225+581490050+578897674+576539524+574970539
1818+573973874+573042329+572268283+572218104+572954710+573727327+573788696
1808+573100662+572098402+571343522+571391499+572416735+573892148+574988099
1798+575422205+575755359+576831964+578817913+580457374+580164339+578492199
1788+577439880+577820355+578891484+579964875+581335646+583142666+584664449
1778+585649744+587126111+590109081+594253716+597872042+599572812+599785252
1768+599571265+599401622+599670193+600828346+602571497+603944947+604793874
1758+605802383+607147262+608704759+611069814+614935818+619571166+622773600
1748+623196992+621811043+620555926+620826580+622913481+625970737+628536684
1738+630063824+631679059+634423042+637247798+638377558+638517319+638919223
1728+639305592+639200116+638987735+639323330+640728684+643786297+648787656
1718+654624073+658382578+658319304+656103594+654255443+654094432+655746571
1708+658736803+662165249+664892803+666963156+669996543+674720820+678864740
1698+680298011+680138845+679385930+678016587+676887006+676899625+677874385
1688+679639262+683189791+689070018+694229710+694754114+692168583+689866088
1678+689431624+691194656+694486257+697901786+700969221+704255881+707174447
1668+708089861+707647779+708373373+711068427+713775207+714612944+714788182
1658+716812582+722160667+731263923+741847712+746398655+743395030+740294679
1648+740278132+741305630+740367655+738055993+736685639+736845519+738076767
1638+740228727+742852055+743890208+742069259+739598014+738971944+740676345
1628+743657232+746773655+749908470+752913047+754722091+755249590+756420183
1618+760009700+765454154+770152775+773053663+775268063+777462166+779253353
1608+780042578+779763828+779127936+779181805+780234601+781355789+781658705
1598+781669360+782387156+783608166+784406021+784802152+785618936+787105421
1588+788648394+789414702+789158214+788776608+789582261+791666900+793816836
1578+795371416+797132068+799649860+801690154+802048963+800690335+798296411
1568+796053975+794673561+793923622+793680646+795010167+799873908+808163058
1558+813372334+811274302+807387286+805795146+806244371+807257762+808339962
1548+810067757+813091025+817482742+822763565+828148912+832094261+832151880
1538+828730994+825707726+825421953+827351711+829072660+829320100+829712123
1528+831895154+835325148+838254011+840315316+842905549+847178755+852423031
1518+856806594+859410874+861119026+863431938+866715265+870683828+875942032
1508+883282137+890357183+892469381+890669920+889356768+890023969+891712537
1498+893075451+894092294+896033124+899455796+903471859+906828460+908716016
1488+909491847+910305655+911654641+913317971+915092848+917100880+919861053
1478+924104200+929957045+936393461+942246188+947116178+950443196+951831407
1468+952427775+953754380+955457650+955692352+954482533+954209260+956533779
1458+960179843+961169187+957921455+953332773+949362900+946242073+944551541
1448+944766659+945177432+943206365+939505658+937450126+939427444+945360646
1438+952872655+957286099+955227234+949728971+945823741+945005230+945634455
1428+945583681+944393029+943009103+942293569+942627794+944389934+947392785
1418+949518971+948551830+945470765+942930353+942484699+943784875+945265944
1408+945423444+943764102+941207083+939427622+939166789+939426908+938806076
1398+937838459+939229825+944476660+950916290+954317295+954495747+954433307
1388+954889080+953523428+950132958+948700282+952010455+958309847+964167097
1378+968641434+972633450+975439456+975291599+973331425+973160413+975928801
1368+979181116+980676291+981252004+983093727+987234433+993107457+998980184
1358+1002791367+1004208864+1005016243+1006608978+1008464927+1009562901
1350+1009866710+1009734210+1009545758+1010198138+1012861466+1017940623
1341+1023963587+1027439652+1025543346+1019946452+1015557651+1015093128
1332+1017243124+1020024190+1023653469+1028797387+1034146901+1037471180
1324+1037960107+1036824991+1036366420+1038257845+1042001290+1045685568
1315+1048889491+1053191625+1059600898+1066828622+1071996707+1073741823
1307+1073419443+1071276352+1065270411+1056577452+1051309129+1053538529
1298+1059860779+1063221010+1061932560+1060606015+1061603275+1061615537
1290+1057957449+1053303649+1051025915+1050098298+1047160566+1040942602
1281+1033496426+1028043103+1025428465+1023219541+1019248954+1014928129
1273+1012803252+1013200156+1014825986+1016195388+1015974198+1013523251
1264+1009191592+1003976603+999426373+996632272+994519895+990560379+984043785
1254+977486059+974245590+975191659+977693857+977516297+972381784+963648467
1244+953581701+942935949+931816149+921208015+912769817+906969174+902146921
1234+896173005+888783852+881373867+875304176+871282458+869202819+868088357
1224+866899312+865386577+863727830+861944143+859884742+857060224+853109279
1214+849126787+847283160+848492919+851242438+853291005+854067313+854716717
1204+856459511+859650457+864131163+869670437+875344772+879309228+880926487
1194+882478746+886804630+893624617+899685676+902724004+903599061+904168048
1184+905303522+907396256+910853690+915289396+919685697+923652891+927166991
1174+929939903+932533112+936656675+942734163+948732782+952967953+956446398
1164+961463591+969011433+977749928+985040568+988709847+988405621+986000745
1154+984159737+983868309+984401224+985947412+990240558+997533818+1005016720
1144+1010114210+1013683965+1017690147+1021461687+1021712639+1016629792
1135+1009031712+1003467318+1002051845+1004547316+1009453259+1013090990
1127+1012320634+1010283376+1013790631+1024467277+1036087492+1041618791
1118+1040540221+1036082611+1029749171+1023421803+1021470378+1025570251
1110+1030872026+1031897143+1030645479+1032127143+1035535707+1036218563
1101+1032865356+1028566078+1026530368+1026910486+1027264414+1026113583
1093+1025135371+1026416678+1029048458+1030078218+1027346557+1022395733
1084+1018956216+1019177763+1023235851+1028869887+1031251668+1027404176
1075+1020122047+1014973129+1015882651+1023146089+1031625596+1033162022
1067+1026247869+1018186813+1014016464+1011325636+1006719216+1002378392
1058+1003077795+1009708496+1017720861+1021616687+1019833476+1013266942
1050+1002753391+991308830+984197237+983974737+988206098+993334957+999090660
1040+1006549336+1013339084+1014121345+1006535288+994273169+983468905+977929511
1030+977915047+982100455+988973894+996168463+999952444+997833460+992200138
1020+988289312+988458300+990645915+992323173+993967694+997324235+1001669583
1010+1003533389+1000031848+991371211+979996531+969214349+961969840+959076869
1000+958221930+955393365+948481950+939036016+930573235+925819732+923897653
990+920752956+913980529+905999950+900745853+898744607+897364074+894519853
980+890688849+887704569+886766713+887291177+887148737+884793444+880601726
970+875717390+870933411+866962824+864719614+864295924+864151282+862365571
960+858577364+854274337+851696663+852537495+856594927+861413727+864041579
950+863757592+862716939+863645092+867503477+873042217+878133338+881876485
940+885363680+890034088+895867648+901918648+908140600+915308919+923109678
930+929770558+934310608+938090363+942798449+947677665+950244327+949491233
920+946696715+943529519+941312261+940937500+941334226+939707086+935747689
910+933259301+935224714+939729645+942386188+941742320+940286787+940688274
900+943252138+946474156+948287009+947216476+944042970+941848927+943095532
890+947334511+952418787+956957766+960643414+962995909+963164778+961602995
880+960789068+962399065+964822870+965820070+966309296+967363341+966811140
870+963333706+959674249+959586809+963395908+967965780+970861668+972660831
860+974695946+976494395+976717311+975358206+974222554+975706063+980805458
850+988581097+995700131+996526796+989210322+980346649+977494631+980782958
840+984680807+986108542+987291159+991249068+998971255+1009042545+1017148124
830+1017847290+1009932186+999347802+994226324+997512746+1004960291+1010334924
820+1012005396+1012931704+1016303483+1023661802+1034426662+1044326881
811+1045738426+1035932016+1021913234+1010628732+1004443745+1004115174
803+1009342783+1016497888+1020280856+1020279547+1021039069+1023701088
794+1023845254+1018611217+1012266467+1010929327+1014900986+1018592645
785+1016878958+1009901710+1001588512+996752807+998159174+1003151485+1004902553
776+999882920+991625496+985068068+980052781+974414696+969369349+968202566
766+972116189+978817604+985013366+988660085+988247110+984339022+981468492
756+983449441+988079967+989037049+985158723+983016525+987769075+996428463
746+1001451131+999604587+994325431+990942759+992613649+998613756+1004512316
736+1005235410+1000479705+994677395+991507044+990585319+989808297+989536333
726+992215554+998669351+1006926478+1014830153+1021704782+1027122986+1030396075
716+1031129049+1030089290+1028921792+1027914294+1025711322+1021954186
707+1018268956+1016931101+1020321333+1027183462+1030214765+1024210730
698+1013541584+1005021958+1001025061+999906968+998698756+995074358+990052701
688+986977707+986963957+988930085+993758766+1005232434+1023221208+1037971417
678+1036872014+1018800383+997760543+983956999+974541184+964115669+953693130
668+949460281+955901518+969407087+980921648+982110634+970056669+952141883
658+939942800+939619884+951067599+967816316+975820944+966009594+950908969
648+950241946+969075421+994302395+1006320050+998238578+980390935+967552448
638+966172689+972245832+979445996+984533903+980180280+966627926+953241405
628+945990764+946605227+954892175+968354530+973802198+957098599+924259199
618+891661466+870754840+867562287+883608148+911197023+934595489+948547842
608+961629840+976169395+987451576+992996267+988607585+975285885+951482837
##END=
