##TITLE=<SNM>
##JCAMP-DX=4.24
##DATA TYPE=INFRARED SPECTRUM
##DATE=29/4/2025
##SAMPLING PROCEDURE=Instrument type and / or accessory
##ORIGIN=Admin
##XUNITS=1/CM
##YUNITS=ABSORBANCE
##RESOLUTION=4
##FIRSTX=4497.3318
##LASTX=599.83466
##DELTAX=-1.4281778
##MAXY=2.1071162
##MINY=0.3811588
##XFACTOR=1
##YFACTOR=1.9624049e-09
##NPOINTS=2730
##FIRSTY=0.39289662
##XYDATA=(X++(Y..Y))
4497+200211802+199934190+200688632+201574453+202037265+202280768+202497056
4487+202296653+201443787+200715482+201105110+202315743+203042226+202730277
4477+202022884+201465944+200899756+200218287+199698661+199435431+199204047
4467+198939587+198895030+199349915+200305382+201307457+201706470+201426262
4457+201147815+201395190+201908787+202178699+202099212+201791834+201257660
4447+200583404+200081926+199882115+199701744+199242895+198611313+198226241
4437+198394418+198979847+199472122+199435978+198930521+198440160+198424776
4427+199008595+199973736+200875397+201168089+200336894+198288460+195806889
4417+194230455+194337081+195673808+197166685+198159192+198585344+198511355
4407+198078247+197750125+198115971+199260921+200443854+200643801+199596576
4397+198073478+196987877+196627377+196913356+197789716+198968609+199808172
4387+199865699+199322169+198699912+198371714+198333322+198297314+197984287
4377+197390201+196828402+196719210+197188720+197842095+198170612+198143094
4367+198065065+198001873+197765569+197340541+197001682+197126319+197940929
4357+199185914+200134380+200256694+199755611+199252584+199160188+199472198
4347+199924319+200312444+200670833+201015509+201126189+200858828+200402181
4337+199924395+199303049+198530475+198114999+198686198+200066238+201049208
4327+200694889+199685782+199454627+200148732+200573517+200068440+199301956
4317+199125791+199676063+200599744+201406504+201664327+201362037+201008113
4307+201064212+201449938+201807446+201991918+202005556+201806763+201570823
4297+201654912+202002397+202142630+201955091+201848845+202109584+202611654
4287+203063988+203137658+202677625+202037220+201754733+201833385+201837759
4277+201624857+201474737+201627059+202069522+202614373+202960446+202881703
4267+202486137+202155478+202135128+202229513+202071238+201750390+201792153
4257+202309972+202773453+202938212+203229431+203827769+204282882+204353895
4247+204340455+204432653+204500978+204455965+204311965+204127964+204104880
4237+204369932+204641120+204499930+203926665+203286320+202954903+203131007
4227+203837443+204890135+205781985+205834182+204894418+203756605+203434466
4217+204215165+205724747+207409127+208681129+209136606+208814893+207989605
4207+206930596+206109090+206068876+206806597+207747014+208378687+208592575
4197+208608795+208775149+209143152+209264250+208762575+207924318+207336094
4187+207219841+207410691+207631413+207562512+207034852+206418579+206448679
4177+207354546+208502033+209171125+209303629+209223929+209109377+209089391
4167+209508861+210595495+211852644+212319208+211791564+211207471+211381601
4157+212045849+212560949+212841917+213119862+213338413+213210679+212681774
4147+212060686+211635612+211300929+210815185+210279188+209979555+209978249
4137+210186549+210617030+211276114+212002643+212633981+213215067+213887501
4127+214578842+215001957+214968789+214517154+213874881+213386054+213169022
4117+212907994+212486079+212468660+213233276+214173982+214542485+214440021
4107+214370694+214547087+215029004+215878271+216910082+217684767+217898093
4097+217679300+217446656+217365620+217139309+216633989+216371229+216957236
4087+218212062+219270768+219499357+219034934+218475307+218307328+218616603
4077+219098354+219343588+219252027+219074161+219019140+219053751+219121908
4067+219329160+219785640+220314013+220444634+219871126+218865953+218053438
4057+217853733+218210543+218666932+218758690+218525575+218406329+218550830
4047+218726281+218922432+219419931+220185474+220743750+220831316+220869662
4037+221423442+222169501+221981384+220459653+218737337+218156646+218831783
4027+219995398+221105450+222087934+222902909+223484405+224056091+224943537
4017+225856496+225878229+224600395+222835222+221791885+221896066+222626664
4007+223186960+223216391+223010020+223143890+223902675+224987624+225645053
3997+225216714+223857313+222573162+222239602+222779442+223483175+223870358
3987+224110079+224702753+225754670+226673309+226851358+226499255+226371020
3977+226843111+227644328+228264580+228361456+227959769+227372411+226874456
3967+226601492+226715847+227285574+228027684+228511454+228546960+228162344
3957+227480722+226840848+226653779+227045321+227923473+229148017+230319954
3947+230831652+230541770+229980184+229565938+229105995+228441580+227961865
3937+227999072+228407532+229045143+229986729+230930684+231136129+230468327
3927+229814118+230085837+231133016+231865027+231669514+231246597+231581766
3917+232529594+232994229+232481559+231606702+230999374+230606420+230337981
3907+230837347+232962777+236453379+239674555+241291355+241257245+239815928
3897+237338061+235136774+234807604+236563072+238478486+238302109+236723626
3887+236465650+238406532+240467389+240988685+241012999+241259584+240592466
3878+238760563+237393098+237599666+239040362+241240601+243680698+244847730
3868+244074047+243012152+243164443+243851350+243523061+242063094+240470745
3858+239782623+241327985+246439790+252846210+253931827+248842194+242617725
3848+238744465+237985574+239606489+242419812+245616432+249141993+252732356
3838+254747546+253730330+250799052+248204127+246826837+246120992+245591693
3828+245360005+245527969+246232568+248251753+251799031+254643138+254864073
3818+254160674+254276791+253848528+251260938+247846330+246056419+247133986
3808+250150127+252552607+253360688+254252037+256145704+257371721+256776101
3798+255520288+254373484+253006885+251510090+250548731+250450155+251125975
3788+252501960+254418148+256279407+257513381+258365777+259483938+260817659
3778+261722660+262005952+262080640+262685220+264659786+268034255+271505221
3768+274008403+275811087+277217946+278357035+280224656+283775382+288048020
3758+291102841+293074917+296062310+301813579+310216221+318096990+321897414
3748+322991398+325363429+330439379+334843259+335255060+333816704+334454421
3738+339411338+347930887+356202499+360913848+362378568+362742774+363607592
3728+365808742+369460186+373863793+378221749+382284204+386112875+389989172
3718+394388618+399493665+405373717+412576919+420905542+427769657+430833772
3708+431289584+432039986+434993270+440090572+445532793+449561442+452228366
3698+454635843+457642796+461696169+466624140+471539476+475256161+476463681
3688+474665766+471584155+469619157+469831648+471851014+474667618+477984440
3678+482685978+488620671+492678904+493448320+494491368+498307192+502184187
3668+502225312+498873926+494763269+491798019+490992489+492410101+495363111
3658+499049696+502522302+505095282+507511081+511369214+517580608+525234974
3648+531491624+534000334+532863524+530012628+527860014+528117336+530931845
3638+534733545+537535904+538927546+540326235+543201733+547417785+550821109
3628+551526437+550951228+551710742+554820479+559464551+563383917+564499163
3618+563749307+564053162+566042793+567799582+568192005+568440337+569808956
3608+571950879+574262163+576667300+578851199+580200865+580853343+582004733
3598+584511439+587770672+590539256+592246052+593258575+594408567+596157338
3588+597962482+599003253+599357223+599257659+598218164+596158675+594062737
3578+592599293+591244098+589471272+587976482+588241337+591374278+597216090
3568+603741725+607796920+607737632+604794098+601718015+601214973+604870942
3558+611649405+617245679+617525599+613720436+611387952+614266426+621166867
3548+627492889+629206671+626756824+624008954+623391223+624128504+624124555
3538+622213105+618646008+614634550+612109863+612418638+615073626+618313603
3528+620773169+622274702+623314561+624513090+625889242+625808327+622607167
3518+618130452+616535977+619572392+624861046+628768506+629780543+628455540
3508+625900237+623730006+624193442+628726955+635829743+641260483+641332589
3498+635909929+628380396+623042295+621997151+624131845+626694437+627805856
3488+627380205+626211077+625759123+627478978+631553674+636698115+640261992
3478+639246857+633667471+627958876+626726450+630043393+633613649+633696447
3468+631707727+631773090+634722273+637620308+638270782+637324290+636203456
3458+635462591+635160742+635083047+634613719+633146326+630778123+628807991
3448+628757875+630068360+630493829+629471647+628489254+628330037+628266800
3438+627818126+627734357+628887934+631055856+633053505+633980740+634059286
3428+633760899+632594079+630045823+627409727+626819939+628329855+629811827
3418+630130322+630286926+631050146+631888265+632437353+633027020+634048169
3408+636055720+639286585+642357626+643147331+641295230+638198615+635168153
3398+632978969+632029866+632048393+632045963+631013637+629218577+628343280
3388+629422139+631162709+631830495+631951928+632635934+633300258+633212479
3378+633057636+633593238+634717657+636233708+637627841+638328856+639390219
3368+642368257+646440340+648758245+647777310+644987526+643079842+643745259
3358+647151864+652009278+655827501+656472994+654478746+652366711+651453204
3348+650857402+649279572+646568211+643561319+641270567+640325047+640325533
3338+640323529+640086313+640001208+640526726+642281389+645375696+648167424
3328+648355313+645991666+643369177+642139607+642221007+642862187+643750666
3318+644889177+646017119+646678162+646869210+647292431+648318865+649102070
3308+648586636+647169663+646129075+645723470+645349211+644995058+645194671
3298+646052777+647385313+649307029+651970643+654976260+657144850+657406911
3288+656231526+655640220+657071043+659808464+662063072+662879080+662650612
3278+661909990+660566216+658684228+656901196+655782974+655668102+656840085
3268+658655677+659768918+659879416+659351164+658023124+655980643+654361627
3258+654143121+655268633+657108888+658681009+659099309+658664060+658578833
3248+659398850+660747059+662183046+663510297+664553011+664867435+663851753
3238+661655402+659768797+659499021+660045376+659579268+657746545+655854716
3228+655199746+656066660+657910500+659958265+661422317+661227503+658457279
3218+653900560+650139439+648889275+649353014+649873187+649382416+647470176
3208+644912443+643752731+645725171+649858912+653080786+653837202+653008680
3198+651199101+647935373+643811291+640952741+640781497+643135971+647318613
3188+651983643+654497456+653093725+649260072+645774133+643683844+642382897
3178+641041735+639231731+637036230+634928811+633288655+632154882+631636532
3168+632045113+633342720+634842794+635471642+634300814+631272842+627559042
3158+624602205+622732366+621646826+621730231+623069327+624106270+623311524
3148+621385190+620079383+619803533+619539589+618632826+617833280+618120186
3138+618903937+618653966+617092962+615442296+614646638+614787145+615525580
3128+616010398+615013304+612060780+608258351+605469842+604738272+605679357
3118+607112307+607874615+607290598+605599961+603993276+603483977+603680128
3108+603462898+602726650+602538154+603772888+605960128+607411180+606815196
3098+604443044+601363316+598453800+596740991+597362124+600007332+602426988
3088+602643063+600792116+598469534+597308364+597937151+599176076+598610769
3078+595342059+591565751+590169310+591665193+594022219+594927889+593734524
3068+591404105+589230412+587883843+587293873+587018144+586771392+586625236
3058+586511640+585875988+584414548+582707024+581497074+581006303+581321638
3048+582547564+584001654+584272158+582897221+581121600+580298302+580376908
3038+580515289+580400053+580300125+580281354+579930664+578740093+576607525
3028+574094806+572064535+570953846+570607105+570669977+570822816+570782905
3018+570396800+569637347+568444710+566790643+564891160+563344310+562831731
3008+563279554+563630609+563116693+562470289+562973392+564589857+565788022
2998+565213117+563152473+561083324+559901015+559121333+557962471+556627020
2988+555918351+555939612+555938640+555306572+554064549+552377314+550292128
2978+548378491+547919733+549558918+552050862+553129599+551789409+549363253
2968+547870347+547712223+547705966+547076632+546306366+545979429+546050016
2958+546270283+546350225+545887337+544767535+543287568+541702994+540074015
2948+538451536+537020895+536216125+536387734+537010203+536807614+535214171
2938+533114711+531749554+531552492+532132804+532669317+532283880+530644088
2928+528431639+526828781+526373911+526685541+527230498+527792403+528178387
2918+527996269+526970138+525441816+524333496+524228708+524559291+524243409
2908+523056786+521622743+520409574+519504511+518861631+518228652+517358215
2898+516601070+516707133+517797412+518942241+518993086+517730591+516065832
2888+514986792+514453133+513698540+512472857+511314846+510608425+510144017
2878+509711198+509461075+509529718+509716787+509597177+508836631+507592268
2868+506472588+505774975+505163197+504369179+503643653+503236135+502958948
2858+502446582+501507774+500319633+499481635+499541166+500247010+500588376
2848+499723740+497789418+495871499+495094551+495549998+496235613+496110810
2838+494977188+493328619+491820313+490928918+490704581+490792178+490791114
2828+490472256+489740230+488735543+487858940+487351190+487003720+486505477
2818+485800757+484940768+483923901+482820836+481762266+480796974+480020117
2808+479666177+479803646+480211711+480712080+481177369+481137914+480059389
2798+478168137+476416268+475516339+475333249+475167289+474450146+473232239
2788+472026056+471173691+470586818+470180120+470142336+470511250+470854194
2778+470711501+470116731+469317307+468307821+467067407+465927043+465202367
2768+464667889+463888602+462972453+462491857+462629296+462823624+462448909
2758+461564440+460597082+459576145+458334365+457243387+456930877+457263251
2748+457358472+456758114+455928012+455345180+454726051+453575178+452098946
2738+451062489+450840339+451009062+450925961+450422524+449767555+449151737
2728+448486532+447666332+446760632+445908814+445176757+444582717+444225497
2718+444212436+444334962+444076607+443204621+442022919+440840123+439682689
2708+438685474+438186411+438232123+438394468+438186836+437459883+436377167
2698+435110237+433742954+432566658+432067838+432252629+432370234+431724651
2688+430467319+429317691+428777988+428778960+428953242+429084333+429089405
2678+428771246+428077581+427367636+426885157+426368174+425645533+425056322
2668+424891699+424964048+424910014+424518715+423823228+423117748+422660114
2658+422319053+421804044+421114388+420495412+420143780+420154046+420482442
2648+420771717+420506498+419546186+418310086+417371218+417013056+417066452
2638+416996168+416386850+415499161+414975071+414962040+415008755+414770841
2628+414295287+413724755+413197809+412875215+412734161+412505177+412004778
2618+411405422+411058286+411076298+411188830+411097437+410840145+410607699
2608+410379808+409962874+409244638+408352636+407687583+407620184+407975309
2598+408158095+407975369+407813389+407863960+407798870+407363500+406758920
2588+406285857+406017235+405928181+406039074+406321758+406612703+406700755
2578+406510953+406201419+405970673+405759032+405369191+404882065+404599381
2568+404557770+404495717+404318246+404203010+404253369+404392721+404526850
2558+404531922+404241888+403690704+403156408+402787525+402473131+402212802
2548+402259151+402761161+403563592+404384976+404935947+404967748+404502581
2538+403887462+403425940+403145322+403001990+403056541+403306027+403500567
2528+403298555+402626394+401815459+401333162+401381364+401773817+402177721
2518+402420342+402509275+402413539+402056045+401599657+401483297+401996787
2508+402922200+403680802+403835615+403479853+403080870+402923718+402876943
2498+402729026+402491203+402333292+402463077+402997313+403711540+404099832
2488+403941982+403565475+403319725+403146172+402899936+402704302+402710802
2478+402830503+402934592+403047550+403201816+403352285+403495677+403667772
2468+403828659+403921723+403996532+404163039+404476460+404871799+405135773
2458+405020749+404525604+404018675+403918382+404225881+404513242+404431235
2448+404096552+403904441+404099376+404591393+405052793+405126965+404644698
2438+403738906+402768055+402096259+401906366+402188625+402805870+403491212
2428+403925216+404006464+403959082+404017642+404111617+403992796+403598430
2418+403193828+403119140+403429008+403916408+404427134+404915658+405305256
2408+405585571+405901301+406287406+406535221+406550317+406622119+407095972
2398+407850839+408285359+407970570+407263602+407003638+407552999+408380549
2388+408673286+408136135+407006736+405439566+403186903+399939302+395767898
2378+391115443+386456154+381995567+377617109+373205695+369041825+365568551
2368+362764278+360164813+357452844+354667981+352159301+350737346+351428216
2358+354645504+359813546+366094464+373230389+380899274+387457773+390596850
2348+389242263+384509653+379216625+375855824+374593420+374107781+373702541
2338+373590039+373907531+374360639+374769524+375403019+376579284+378235326
2328+379987134+381436547+382463983+383326250+384431837+386082563+388375987
2318+390999144+393184075+394412097+395134464+396319781+398398345+400994682
2308+403465851+405375813+406614586+407329938+407771352+408195697+408864030
2298+409898270+411065576+411978049+412629374+413435207+414603120+415787161
2288+416544761+416836618+416851136+416617171+416081629+415413934+414961494
2278+414892273+414982877+414807106+414178137+413400156+412992790+413122757
2268+413416649+413457501+413335400+413469437+413984386+414563361+414920945
2258+415158495+415547212+416149514+416775324+417213611+417443050+417642056
2248+417975372+418360353+418506783+418238556+417722910+417300873+417101199
2238+416924822+416560221+416073368+415650268+415292046+414844101+414265308
2228+413735933+413479248+413533221+413756617+414035109+414327513+414511969
2218+414468262+414348683+414471998+414956907+415682008+416462875+417103173
2208+417530616+417964225+418637297+419401974+419949695+420301873+420739825
2198+421376145+422094807+422790719+423408420+423863351+424198490+424701380
2188+425561672+426528332+427210212+427559595+427767166+427902631+427961646
2178+428077672+428436714+429046063+429694016+430149554+430385402+430561021
2168+430838237+431315310+431996491+432653830+432922208+432739695+432540051
2158+432850618+433786965+435012405+436141592+437088083+437980723+438924178
2148+439967955+441089366+442086126+442751422+443210757+443803552+444690876
2138+445856541+447331346+449136459+451166790+453313360+455551566+457834937
2128+460076849+462279518+464510191+466719299+468734444+470482851+472073833
2118+473595776+475003516+476276642+477522584+478810319+480032813+481074828
2108+482007439+482994874+484151185+485629421+487684081+490409262+493496461
2098+496445462+498904725+500604170+501161914+500336642+498347892+495596560
2088+492231475+488322527+484208833+480258304+476473461+472728437+469218017
2078+466259600+463788401+461487960+459375621+457837853+457064701+456782655
2068+456555615+456093911+455317601+454368679+453536634+453034412+452912008
2058+453151866+453659980+454192788+454457825+454341617+454084416+454206122
2048+455042692+456319190+457452993+458269913+459120151+460437622+462537842
2038+465643296+469758327+474605293+479821233+485127807+490367802+495524879
2028+500625553+505501798+509679914+512612696+514180138+514932606+515583383
2018+516289015+516666615+516379892+515411410+513944867+512268506+510596336
2008+508814397+506620506+504013538+501442624+499397835+497972266+496872693
1998+495820289+494879265+494324406+494228487+494325560+494349251+494402496
1988+494822953+495753225+497031484+498480775+500105015+501925437+503770704
1978+505358497+506574551+507597736+508704173+510021552+511580734+513483376
1968+515765501+518142756+520200059+521855949+523358696+524887990+526486049
1958+528305954+530547623+533090837+535474349+537401775+539131472+541168243
1948+543671121+546440069+549393080+552553600+555537470+557739228+559234868
1938+560805652+562967196+565454523+567656706+569323652+570778774+572485327
1928+574609572+577119983+579947187+582739584+584928828+586456239+587860395
1918+589326938+590336606+590631955+590853316+591818639+593596082+595454440
1908+596722646+597526565+598437399+599629914+600710230+601253669+601275659
1898+601201427+601521743+602404329+603631106+604980893+606222978+606615765
1888+605455506+603465875+602317340+602627451+603464539+603823672+603669011
1878+603334359+602864788+602293528+601981837+602343340+603302528+604013626
1868+603353372+601139526+598341601+595883007+593955155+592289728+590592774
1858+588774570+586992692+585425674+583986771+582530251+581274195+580636478
1848+580749224+581369203+581918048+581545125+579962070+577947776+576295349
1838+575043485+573808629+572410365+571199505+570772578+571104740+571100002
1828+569834713+567752807+565598614+563435491+561288769+559606515+558680070
1818+558300830+558102978+557954453+557998555+558362427+558782064+558779877
1808+558372510+558148295+558617380+559883763+561723350+563539975+564555657
1798+564669739+564915519+566662346+570272938+574077372+575499205+574447683
1788+573309353+573823816+575939435+578754490+581623366+584196347+586231659
1778+588035041+590471828+594147236+598682875+602512519+604065929+603554808
1768+602184974+600792299+600191941+601285196+604034402+607032365+609040706
1758+610051710+610401124+610737660+612423012+616343228+621517253+625653545
1748+627631695+628248394+628689475+629820393+632123233+635145616+637495109
1738+638790286+640810351+645136415+650015455+651826856+650907943+649790875
1728+649323188+649522862+650656756+652675971+655223012+658729545+664248793
1718+671420953+677167332+679109399+678759073+678395019+678786531+679984635
1708+682152010+685260106+688650492+691959902+696007626+701403558+706631161
1698+709939964+712003402+713474440+714026444+714253818+715296836+717528177
1688+721088349+726878830+735005015+741583014+742748557+741419545+741500277
1678+743709325+747198362+750967320+754452045+757979171+762076463+765945531
1668+767867005+768067286+768549310+770422733+772964793+774780810+775683990
1658+776666990+778895841+783465742+790423346+796157515+797985135+799088231
1648+802058068+805499784+805686701+802369273+798608637+796588936+797271606
1638+800752504+805248051+806838273+804148660+800471733+798241364+797308722
1628+796571927+795441920+794288769+793289610+791737840+789601749+788191458
1618+788043236+787443485+784613062+780622987+777080310+774226316+772140159
1608+771260428+771320506+771107771+769937490+768486316+767664051+767460246
1598+767352117+767109253+766813356+766590173+766436363+766050501+765091800
1588+763823473+762982923+762825347+762950424+763254096+764431485+767198975
1578+771202111+774299637+773914686+771089912+769272740+769718377+770522236
1568+769181803+766229825+763729012+762718736+763884159+768067651+773805403
1558+775240054+771242021+767235848+765243787+764421036+764302277+765142280
1548+766893663+769382084+773185303+779377197+787990144+795897762+797444369
1538+793065212+789421210+789622038+792406841+794876613+795978312+797136992
1528+799380300+802350380+805617450+809763219+815203010+820690487+824817788
1518+827899703+830302228+831705837+832926600+835885867+841474609+849184923
1508+858205843+865976357+867900200+865090976+863163307+865274492+871009875
1498+877109981+880512941+881763651+883258138+886051992+889690831+892755250
1488+894233881+895172415+897177962+900300212+903333529+905507830+907852342
1478+912558194+920684379+930398721+937436389+938991439+937569484+937118381
1468+938252093+939730967+940810676+941586470+942386745+943974295+947957020
1458+955344041+962947137+965568957+964714558+964484510+965345957+965323724
1448+963472838+961279098+960439399+960897489+961590849+962155853+963588256
1438+967166591+972432161+976879475+979376887+981313425+983707325+985829140
1428+986621275+986522562+986651041+987234815+988204026+990003095+992764207
1418+995410630+996914349+997445274+996612682+993980717+991055529+989770800
1408+990025875+990565244+991026492+992230427+994822482+998099939+1000607313
1398+1001749409+1002114313+1002133084+1001650999+1000737311+999660032+998556936
1388+997826702+997737708+997823604+998273067+1000400714+1004158373+1007215928
1378+1008543179+1010486279+1015148150+1020662963+1023333502+1022874258
1370+1022266306+1023477835+1025884127+1028044273+1028908332+1027804203
1361+1024873305+1021506853+1019864753+1021568207+1026482359+1032386557
1352+1036951416+1040226383+1043663786+1047099610+1048943145+1049720579
1344+1051325746+1053043901+1052640544+1050609909+1049972678+1052386137
1335+1056943463+1061539667+1063971351+1063664338+1062250888+1061819830
1327+1063087125+1064564845+1064542733+1063721318+1063839653+1064866998
1318+1065906978+1067672637+1070964370+1073741823+1072593714+1066993977
1310+1060387670+1056553228+1056198954+1057340503+1057440370+1054808101
1301+1049647076+1044572918+1042534386+1043790503+1045943239+1046331531
1293+1044236747+1040823643+1036603460+1030446434+1022554488+1016658916
1284+1016041852+1017962111+1015233924+1004887878+991824762+982528964+979041991
1274+978700474+978074542+976315262+973644055+968806079+960952829+952116821
1264+945259388+940901675+936707856+930092376+920948626+911884819+905905355
1254+903726013+903128388+900850029+895482223+888197863+880653995+873067239
1244+864489707+854321103+843218095+832685011+824022070+817736565+813721280
1234+811440370+809969149+808602838+807367011+806404300+805388557+804038648
1224+802623679+801604109+801247163+801711995+803056073+804951425+806851759
1214+808831428+811816998+816325666+821193893+824479552+826002346+827759621
1204+831173030+835389629+838972884+841948249+845028220+848137166+851240342
1194+855235824+860352018+864795748+866551870+866182349+866425395+869083907
1184+873473815+878105799+882843300+888331870+894082683+899212120+904972046
1174+914097632+926966906+939483365+946366250+947140951+946023944+946525163
1164+949134470+952693184+956032481+957685576+956422960+953479244+951616391
1154+952224889+954543219+957083396+959296817+961793986+965128788+969009155
1144+972432526+973627045+971365574+967107120+963933904+964143297+968570504
1134+976199783+983630116+986999483+985282847+980343243+974826000+971702960
1124+973153587+978079766+982854747+985596299+988663695+995180400+1004242386
1114+1011235223+1012087679+1008068263+1004939574+1006463765+1010510699
1105+1011989269+1009698214+1006916023+1005476391+1003510208+998842505+992629411
1095+989279665+992589439+1000897985+1006680205+1004985498+999911583+997257021
1085+996459479+993601477+988312762+982734408+977250151+971871531+968784393
1075+970307005+974841551+976296916+969991973+959102732+951487122+950736842
1065+952740141+950788172+943319447+934370390+928762635+929304858+934628441
1055+939087479+938547929+935399801+934400034+936547120+939875787+943264046
1045+945979234+946245851+944182473+943516327+947231949+953045088+956059635
1035+955186525+953602498+953380895+952712076+948780500+942132521+936817017
1025+935990075+938409730+940227996+940212748+940901249+944287200+948808321
1015+951349713+951137465+949500528+946101335+939088694+929527676+921091866
1005+914738265+907671682+898007274+887662869+879940101+876041207+874225432
995+871747946+867446059+862124602+857024748+853190913+851468202+851576210
985+851747697+850223445+846742062+842155152+837251145+832497061+828595797
975+826669100+827119717+828517738+828574354+826134226+821554788+815826026
965+810076792+805194290+801324311+798464729+797387996+798842207+802293765
955+806514555+810992607+815802942+820500107+824409450+827755369+831271014
945+835036691+838704445+842378213+846465908+851290944+857391961+865255357
935+874359014+883393663+891236283+897125356+901182191+904889491+909214219
925+912497812+912202827+908433747+903667392+899754040+897152874+896007376
915+896139379+896640416+896556586+895890804+895422266+895067202+893480807
905+890370584+887784665+887782600+889964129+892848618+896259839+900320319
895+904153061+907451962+911064619+914518484+915602020+914009307+912467499
885+912819768+913899720+914136571+913891337+914218883+915220714+916379333
875+917010854+916501798+915151828+914362427+915717317+919394912+924015476
865+928682388+932937379+935242771+934668777+933063307+933255995+935566975
855+937734593+938409001+938539728+939407917+941962795+946947412+953326284
845+958098106+959061728+956731248+952694156+948367362+945534995+945203136
835+947223627+951534261+957706899+963698572+967582037+969141279+968787552
825+966549163+963000898+960856667+963021066+968976291+974860990+978464717
815+981975927+987197760+991234731+990242740+985059360+979816752+977909676
805+980114350+984197731+986487268+985307814+982448657+980645578+981600635
795+985269604+990114626+993108883+989790543+978472067+963696810+952422193
785+948255771+949431095+950348003+946186866+937313924+927614282+920177145
776+915696238+913392183+912132300+911175117+910736345+911451514+914379618
766+920921594+931169169+941773873+948172488+950570396+952946740+955828555
756+955262519+949918525+943896175+941556765+943529266+946976692+948482538
746+947794401+948830372+954874592+963254575+967812023+966994314+964474730
736+962890764+962869746+965156003+969409596+971957184+968789981+961685371
726+956888582+957813995+962196614+965845962+966771496+965142699+962174016
716+959179394+956983043+956011159+956738174+960665741+967290696+970527393
706+964696941+954327751+949093891+951089293+953815354+951169721+945033532
696+940203029+936752869+933730000+932910833+936475622+943845755+951131998
686+956298308+957957417+951982753+938631577+925585530+919627085+920575035
676+923899389+924543424+917975812+902780554+884623051+876463760+886632547
666+906021503+922856614+933809517+938287205+935181295+925087895+910654944
656+897160528+890141691+889753460+891142308+891381467+892953405+899706476
646+910538675+917930070+913930094+900278586+888189723+886487605+893897346
636+902584768+908351011+913631221+918463182+918263144+912008681+901552259
626+887174345+873740007+868834238+870073468+867293160+857730502+849435198
616+848234847+851823327+857983511+866580542+875368378+880812422+881442485
606+879054478+877004768+876661247+876458839+874831683
##END=
