##TITLE=<SNM>
##JCAMP-DX=4.24
##DATA TYPE=INFRARED SPECTRUM
##DATE=29/4/2025
##SAMPLING PROCEDURE=Instrument type and / or accessory
##ORIGIN=Admin
##XUNITS=1/CM
##YUNITS=ABSORBANCE
##RESOLUTION=4
##FIRSTX=4497.3318
##LASTX=599.83466
##DELTAX=-1.4281778
##MAXY=2.1428185
##MINY=0.39871249
##XFACTOR=1
##YFACTOR=1.9956552e-09
##NPOINTS=2730
##FIRSTY=0.41159719
##XYDATA=(X++(Y..Y))
4497+206246647+206412932+205818679+204874652+204356321+204556043+205039145
4487+205439306+205957039+206690055+207099281+206704780+205951364+205855715
4477+206682364+207370893+206822889+205486168+204751569+205018328+205346822
4467+204907625+203968705+203328606+203334669+203643466+203761456+203722016
4457+204054603+205016312+206150399+206868691+207179355+207403030+207465154
4447+207056735+206283936+205576650+205233118+205456301+206301079+207184477
4437+207176786+206229966+205296391+204995061+204979620+204721418+204187467
4427+203585508+202988000+202431275+202150150+202501941+203595574+205013191
4417+205952455+205837630+204930981+204124522+203945767+203987461+203579132
4407+202795132+202296141+202312434+202377231+202113354+201724124+201500837
4397+201362716+201162636+201029652+201185947+201750527+202786635+204191738
4387+205487512+206039891+205577711+204324199+202683728+201076275+199989616
4377+199790268+200315258+200868294+200882750+200538710+200512068+201148344
4367+202072421+202720539+202977905+203038132+202999394+202853060+202676634
4357+202640525+202881359+203377588+203795475+203636536+202823357+201974426
4347+201787697+202227909+202606745+202416192+201763848+201072885+200751140
4337+201024903+201700918+202277310+202515994+202505898+202210631+201674694
4327+201437295+201903462+202625950+202940660+202907806+202968706+203106244
4317+202948351+202415311+201843713+201667690+202133335+203023437+203638612
4307+203502224+202975486+202670661+202636179+202600040+202477659+202241962
4297+201880434+201673962+201987613+202772075+203633938+204291793+204737098
4287+205051047+205133914+204733962+203902146+203135663+202804376+202737056
4277+202592842+202393807+202516651+203239213+204386890+205427986+205915628
4267+205829222+205534597+205460870+205666342+205811720+205737441+205698090
4257+205737799+205392056+204483974+203673124+203702229+204504119+205410260
4247+205946810+206103224+206024763+205824847+205656620+205721641+206107391
4237+206631381+206932174+206821187+206506118+206318193+206301856+206320598
4227+206429150+206755300+207063007+206897752+206264179+205676452+205420027
4217+205304411+205302171+205741144+206587401+207208206+207157850+206718802
4207+206513301+206924035+207887043+208990353+209772321+209996967+209713034
4197+209203963+208815719+208632543+208428267+208057092+207688516+207576140
4187+207795620+208211700+208512597+208361021+207754522+207152549+207042264
4177+207445695+208082569+208852426+209708808+210329479+210527349+210673250
4167+211151111+211764897+212037554+211709896+210826021+209745142+209033078
4157+208966324+209315636+209778040+210236517+210562234+210679836+210819988
4147+211189355+211468987+211179395+210445080+209837670+209550885+209316502
4137+209106685+209271194+209885368+210498124+210698070+210609887+210642845
4127+210891475+210967248+210542372+209888639+209531502+209495676+209294296
4117+208646014+207907084+207745353+208451518+209524528+210097291+209898495
4107+209475396+209368561+209582649+210025042+210844852+212006059+212998248
4097+213276625+212820926+212184486+211876286+211682821+211018396+210012931
4087+209552633+210089003+211175676+212254659+213146210+213802826+214247533
4077+214615781+214807753+214438818+213453902+212389196+211816432+211759759
4067+211776440+211568266+211346143+211421722+211696635+211884395+211909185
4057+211745886+211322623+210900151+211008420+211725203+212480649+212736970
4047+212469957+211905511+211155770+210290860+209626644+209690783+210708060
4037+212181962+213255046+213550388+213386775+213146359+212853930+212489535
4027+212294681+212513443+213032028+213454932+213483232+213208647+213054562
4017+213305477+213770345+214124495+214366300+214616573+214720824+214442521
4007+213907615+213552150+213667243+214125048+214527150+214589483+214391956
3997+214245189+214267559+214211080+213861306+213489056+213602267+214318961
3987+215300487+216168965+216660624+216609940+216098927+215396480+214717345
3977+214324546+214558974+215312643+215854135+215623635+214846132+214097809
3967+213748661+213983731+214854017+216082575+217122028+217608624+217625694
3957+217433110+217104302+216600382+216204731+216566722+217922081+219449042
3947+220054778+219769532+219519767+219703077+219863210+219655290+219291671
3937+219114678+219430001+220477609+222008109+223097022+222993697+222117557
3927+221620238+222090662+222997938+223468287+223419618+223463358+223909470
3917+224178768+223306018+221206846+219004961+217870485+218001333+218993164
3907+220898034+224210292+228723511+233034663+235604915+235636321+232996179
3897+228673737+224820957+223354955+224636647+227015017+228062371+227542442
3887+227407278+228729380+230531567+231898738+233147800+233616058+231857417
3878+229017718+227943977+229411950+231921527+234361857+236351222+236742423
3868+235410614+234324195+234489943+234478324+233084243+231351780+230684965
3858+231623945+234879381+241256896+247846602+247775070+241077931+233434854
3848+228439444+227033834+228631027+232064711+236344293+240817221+244485033
3838+245852846+244637400+242348871+240127557+237788626+235100563+232791858
3828+231747073+232119114+234099593+238515071+244635773+248222600+246878889
3818+244105585+242759694+241269365+237872060+234177173+232797338+234832191
3808+238978222+242251937+243701840+245511643+248650582+250569849+249654076
3798+247875722+246701015+245589627+244173593+243222591+243536271+245269928
3788+248175081+251705460+254957252+257451612+259947405+263394947+267394375
3778+270982651+274430222+278590156+283613701+289158697+294588466+298942567
3768+302007270+304554226+307059159+309822383+313801024+319496998+325495498
3758+329986361+333885376+340247598+351196617+365737825+378739259+385710832
3748+389249827+394204109+401184135+405749487+405647341+404970043+408045409
3738+415986920+426285760+434055594+436064492+433585723+430495542+429658872
3728+431258470+433082401+432583708+429778700+426915002+425523758+425486543
3718+426197920+427517513+429924003+433803425+437837708+439207776+437189231
3708+433848017+431250974+430512835+431777652+433743422+434646994+434645531
3698+435366227+437593902+440855341+444626375+449120762+454337249+458518687
3688+459706506+459049517+458956122+460038659+461598623+463413863+466516348
3678+471722143+476371750+475383563+470268297+467502295+468682886+469042367
3668+464859615+458682300+453953395+451418446+450509109+451124851+453440038
3658+456560354+458580632+459146227+460550135+465204342+473126678+480048522
3648+480213419+474001638+466444368+460968276+458321564+457951270+459179768
3638+461806917+465843619+470559263+474396422+476695749+478467800+480002019
3628+479183538+475395928+471649536+470972088+474385282+480280680+484941099
3618+486295428+486545416+488253731+490821624+492468442+493474459+495265983
3608+497511908+498827229+499414239+500403710+501756515+502533780+502407262
3598+501736803+500944217+500597369+501181452+502880478+506169515+511429787
3588+517067162+519722536+518394281+515565319+513480529+512189011+510973236
3578+510059718+510173811+511159966+512218460+513325159+515285404+518456345
3568+521804280+522942221+520512105+516420298+513916052+514190651+515497760
3558+515663941+514667332+513811039+513442000+512937543+512506260+513466849
3548+516324006+519621405+521433270+521308066+519767695+517103062+514010433
3538+512198927+512667543+514050634+514380726+513765940+513596533+514195669
3528+514675277+514397512+513346305+511536651+509485790+508530457+509269850
3518+510308631+509542418+506533715+503239721+502280207+504336504+507297181
3508+508660678+508416126+508227843+508954273+510246747+511371426+511433072
3498+509885652+507482895+505874128+506088754+507883892+510250808+512224971
3488+513337943+513459562+512619338+511288276+510202244+509324208+507729299
3478+504862466+501419374+499071513+499221297+501571637+504208732+505438783
3468+505134795+504125224+503040148+502012537+501125959+500770420+501133127
3458+501714164+501973889+501848626+501230673+500193087+499699979+500321725
3448+500812831+499775304+497660198+495531264+493639923+492248828+491820562
3438+491870321+491415055+490600158+490295722+490408441+490108305+489500746
3428+489488202+490121835+490475134+490073241+489550177+489657340+490126285
3418+489940750+488661806+486988705+485790343+485069289+484305883+483513327
3408+483319668+484040483+485113433+485510607+484733582+483534652+483313964
3398+484371502+485337497+485049129+484250330+484337752+485055789+484828649
3388+483181144+481599347+482051417+485165193+489329548+491623289+490717745
3378+488431500+487480977+488736415+491193739+493609369+495369384+496339620
3368+496618221+496201872+495063006+493787616+493363353+494210178+496011917
3358+498279405+500542802+502197116+502760292+502059966+500276088+498182157
3348+496714393+496233920+496635365+497937246+499997397+501829869+502226565
3338+501303848+500575357+500942186+501301100+500085535+497828470+496568612
3328+496888848+497400383+497142032+496596239+496209249+495783582+495446321
3318+495722444+496479637+496777294+496002688+494703315+493813153+493266045
3308+492303395+491177939+491255445+493071341+495388409+496517359+496012305
3298+494870153+494470590+495451339+497273328+498762895+499043468+498133384
3288+497059688+497071904+498369216+500084758+501529644+502570755+502991046
3278+502769730+502757843+503777032+505333412+506135048+505554370+503940465
3268+502000471+500535096+500161487+500689121+501250684+501474509+501729575
3258+501840203+500859275+498785923+497131877+497023280+497886562+498596953
3248+498955031+499305523+499373829+498382656+496309872+494418651+494152803
3238+495663426+497594819+498313275+497332764+495522184+494150503+493981096
3228+494998672+496550303+497755743+498149662+497887070+497223988+496247898
3218+495131909+494073207+492940941+491437455+489593066+487795180+486327296
3208+485279077+484989604+485944189+487734698+488754992+487822329+485628105
3198+483798290+482990980+482486045+481453685+480169335+479622437+480127282
3188+480990922+481568375+481756717+481377494+480156194+478381693+476672662
3178+475135964+473572386+472396813+472452426+473716197+474889530+474718152
3168+473205079+471136268+469151323+467586401+466521456+465787409+465185287
3158+464590362+463901325+463196459+462678532+462328906+462087191+462120224
3148+462263169+461768896+460326251+458684301+457723981+457446425+457275136
3138+456952929+456739229+456819422+456966668+456940026+456701477+456070831
3128+454751955+452866617+451001022+449700096+449192443+449384609+449920397
3118+450406276+450579207+450278355+449553538+448780037+448309419+448018572
3108+447462535+446469330+445363199+444439376+443458895+442183267+441189316
3098+441231608+441905203+441976646+441052733+439932235+439370941+439378796
3088+439598678+439737740+439696523+439588046+439558178+439509644+439111216
3078+438123955+436637912+434994440+433609885+432910575+433174422+434154036
3068+435053547+435267336+434982463+434619128+434063329+433038735+431866955
3058+431211011+431157250+431037991+430317146+429342370+428892002+429163226
3048+429596480+429611503+429123682+428460958+428048881+428011308+428020805
3038+427653409+426848159+425920633+425263853+425017658+424909628+424605968
3028+424191441+423901670+423552701+422774511+421678146+420835293+420608452
3018+420734521+420617711+419941577+418923971+418041395+417628899+417673401
3008+417806729+417592163+416852531+415631440+414163378+413056170+412926338
2998+413625798+414397566+414835031+415025524+414911581+414304172+413354335
2988+412438666+411734547+411193174+410745643+410374872+410103469+409970619
2978+409898221+409587572+408787699+407777440+407330657+407968829+409294933
2968+410190830+409768060+408122257+406096574+404495990+403734347+403888730
2958+404626450+405283798+405380866+404880769+403892434+402597929+401416412
2948+400685323+400294033+400031858+399973677+400134243+400152253+399750808
2938+399161797+398676246+398155302+397457843+396975069+397125690+397584838
2928+397585704+396830960+395693288+394702444+394175138+394206290+394706894
2918+395340975+395578120+395075993+394099873+393334914+393101502+392942967
2908+392247778+391102579+390116155+389585952+389363860+389325301+389403942
2898+389385693+389092725+388523516+387743176+387036906+386927532+387514781
2888+388156030+388221678+387740129+387051093+386345868+385775972+385604744
2878+385980055+386634625+387009966+386823326+386340283+385920739+385590497
2868+385229731+384831034+384375170+383781052+383197029+383010239+383285884
2858+383533244+383370139+383046856+382878823+382666318+382186681+381707909
2848+381541221+381579480+381553765+381296548+380700339+379818152+378962695
2838+378436106+378228499+378082598+377770426+377311636+376976257+376976914
2828+377135390+377056958+376673792+376345641+376314460+376353436+376121308
2818+375640894+375257160+375133809+374928323+374191200+373044478+372131259
2808+371860303+372010834+372072570+371725722+371018974+370255389+369705564
2798+369425051+369335539+369325444+369229630+368865041+368159786+367262904
2788+366542418+366355897+366714005+367227780+367411732+367032538+366271731
2778+365577169+365220286+365023371+364653167+364049133+363402389+362872335
2768+362519753+362372089+362356558+362271377+361969659+361493546+360968868
2758+360486961+360104034+359834243+359661013+359579834+359538886+359403528
2748+359101391+358660671+358057294+357279014+356520835+356008583+355694230
2738+355365512+354941338+354524302+354265473+354224047+354293309+354247791
2728+353891237+353245119+352638606+352418305+352477920+352323178+351672491
2718+350761362+350059812+349851100+350035500+350297136+350466872+350570033
2708+350543929+350211238+349550188+348764919+348100105+347638358+347238735
2698+346755513+346279758+345943812+345645887+345307491+345141997+345274787
2688+345386102+345116341+344600684+344247444+344139624+343984105+343601685
2678+343189010+343029041+343108697+343129664+342883349+342502423+342218684
2668+342019261+341810011+341699294+341738778+341655628+341239428+340708808
2658+340395381+340354164+340413511+340337170+339964188+339382166+338830340
2648+338379434+337935936+337524038+337280500+337219840+337236357+337264820
2638+337253739+337103537+336815438+336572827+336534208+336686979+336976392
2628+337373029+337739798+337817901+337428940+336650213+335823907+335342656
2618+335307951+335454449+335477059+335350123+335278621+335418877+335692999
2608+335857866+335728989+335314521+334791278+334428391+334424628+334732648
2598+335134870+335457257+335578279+335379722+334905729+334433230+334215110
2588+334253549+334389504+334506852+334611418+334755348+334894678+334879595
2578+334624081+334200594+333758350+333462904+333457259+333693837+333865902
2568+333715461+333353739+333093387+333044853+333047302+332942259+332778258
2558+332717657+332790981+332839157+332729037+332509782+332292677+332099824
2548+331919397+331791565+331754530+331780245+331809306+331823792+331855929
2538+331924086+332010492+332116580+332269351+332446762+332559272+332514441
2528+332285091+331983163+331853659+332085876+332625189+333226236+333637448
2518+333727348+333564871+333373302+333288539+333234987+333133947+333093088
2508+333243231+333495011+333611225+333495877+333296753+333187439+333119610
2498+332883898+332435830+332064044+332122822+332617065+333156466+333342151
2488+333135679+332836798+332768701+333005488+333367329+333627831+333672034
2478+333472700+333067462+332647470+332462741+332498940+332472746+332281716
2468+332194623+332444253+332914214+333361863+333661103+333723346+333483453
2458+333079797+332793132+332705382+332619962+332391657+332138293+332010641
2448+331944395+331826062+331761011+331944903+332349455+332755828+333035863
2438+333202880+333267543+333245620+333259329+333457050+333831256+334219799
2428+334471012+334528327+334402168+334170189+334011236+334136051+334610253
2418+335268048+335836481+336145606+336216302+336166006+336067056+335953799
2408+335947736+336219169+336722432+337127491+337189017+337077971+337198395
2398+337746578+338533131+339199558+339562594+339720681+339869688+340132221
2388+340533218+340945416+341058164+340604183+339655122+338587907+337757360
2378+337208879+336661204+335809690+334695076+333677799+333008026+332554433
2368+332011149+331303744+330755472+330847642+331797359+333343644+334948469
2358+336306620+337667639+339576213+342370231+345799703+348949200+350781164
2348+350874888+349710485+348368551+347678589+347691999+348204730+349131449
2338+350256487+351250856+351917193+352236325+352378522+352629138+353088436
2328+353566520+353850946+353903183+353869195+354066915+354755414+355763821
2318+356585736+356899432+356768404+356392973+355940933+355598834+355546537
2308+355816507+356231481+356497270+356441508+356230854+356232587+356580749
2298+357032430+357335493+357565650+357981401+358665748+359394807+359830510
2288+359880925+359846429+360057023+360428093+360621991+360553057+360399510
2278+360210510+359866858+359362072+358823208+358343302+358001591+357900819
2268+358000785+358038298+357762176+357197387+356610914+356248207+356127036
2258+356079428+355999115+356014974+356351876+357016571+357723468+358217710
2248+358577909+359061907+359732336+360399211+360868903+361082483+361041446
2238+360742565+360213855+359558778+358922457+358396197+357992601+357725350
2228+357615080+357580583+357472643+357288840+357218324+357419330+357888305
2218+358557121+359340449+360069059+360606609+361109991+361950215+363282979
2208+364899184+366541760+368127978+369637885+371054247+372463860+374036936
2198+375861195+377840315+379750473+381448423+383043959+384721063+386379021
2188+387685652+388567272+389414126+390629662+392119617+393415466+394258557
2178+394852616+395501571+396215994+396778722+397038477+396997649+396701426
2168+396202942+395579076+394842879+393927718+392857965+391791168+390843541
2158+390010127+389223454+388401359+387554594+386841007+386366985+386044060
2148+385713400+385294513+385014090+385662328+388145935+392523452+397921233
2138+403492333+409002205+414563180+420310138+426261896+432255647+438131094
2128+443928886+449757441+455596450+461282121+466563479+471220194+475144148
2118+478281160+480681438+482652166+484653448+487063045+490110097+493884386
2108+498424440+503924815+510707538+518785183+527488248+535690978+542494190
2098+547540433+550671651+551804574+551224015+549398771+546527517+542614734
2088+537635930+531454135+523939606+515116654+505140291+494439558+483690589
2078+473414090+463891977+455343027+447791761+441087469+435276625+430529501
2068+426730662+423548102+420729892+418179053+416004064+414374628+413198308
2058+412272694+411602504+411155212+410755679+410546071+410944589+412075063
2048+413792128+416079628+419087972+423097406+428488824+435480110+444113614
2038+454537628+466761976+480134361+493517527+505922811+516857673+526353772
2028+534598794+541431216+546554815+550127650+552597608+554169639+554815427
2018+554566036+553547684+551787191+549162461+545667162+541576251+537229079
2008+532823487+528369211+523570388+517959176+511498601+504809720+498538414
1998+492850174+487776961+483618311+480577620+478224114+475777183+472961871
1988+470246583+468257427+467247498+467034724+467189077+467284682+467141499
1978+466936013+467060409+467755449+468874633+470157430+471676476+473701233
1968+476106798+478320615+480031379+481556966+483269521+485088016+486809054
1958+488547027+490535555+492809406+495293013+497923896+500623802+503367851
1948+506242928+509354374+512731399+516136858+518931831+520664667+521794603
1938+523138209+524865669+526642110+528454213+530711577+533568554+536585799
1928+539252403+541674454+544376062+547419292+550289590+552830752+555455482
1918+558088873+559900917+560636307+561183952+562411375+564227839+565901238
1908+566923234+567410130+567809335+568436546+569340805+570440934+571642970
1898+572875231+574031211+574904946+575484729+576286245+577762641+579372005
1888+580095389+579914692+579625399+579555151+579458083+579161023+578725141
1878+578346067+578229764+578344394+578626460+579488965+581403752+583681783
1868+584384021+582439905+579055652+576138163+574465122+573534281+572554397
1858+571299915+570023092+568867052+567688731+566467222+565533095+565182574
1848+565399947+566065269+566773301+566396556+564206454+561250616+559067084
1838+557933086+556914136+555411457+554271725+554643990+556025467+556432557
1828+555096119+553178167+551210814+548505383+545148309+542337028+540698991
1818+539717913+538741136+537939023+538034359+539220027+540623905+541135829
1808+540629042+539864561+539638705+540456290+542312716+544313162+545208581
1798+544932787+544910626+546537492+549659511+552113939+551672203+549168495
1788+547337874+547595986+549505098+552127678+555036624+557814633+559717711
1778+560763183+562305764+565861694+571487720+576804561+578796404+577526092
1768+575156428+573177606+572680437+574548452+577987899+580513291+581078378
1758+580977666+581136858+581782408+583892108+588370337+594063684+598099759
1748+599138719+598573393+598270002+599092545+600971969+603203766+604810024
1738+605854182+608092012+612795858+617677712+618737580+616604404+614140300
1728+612362783+611568794+612131312+613853874+616487146+620787546+627595954
1718+635407304+639729746+638143797+633531106+629558170+627936082+628991709
1708+632403679+637087573+641215759+644138683+647336565+651844243+655963647
1698+657803408+657754366+655996561+652908471+650532296+650337502+652046205
1688+655268219+660937732+669189443+675461019+675205117+671696795+669424857
1678+669685956+672154480+675569975+678457715+681065899+684438564+687255579
1668+686812827+684119940+682795987+684168026+686184780+686383874+685510079
1658+686346959+691116274+700826401+712674721+717039575+712425808+708563023
1648+709228703+711063983+709105053+704128878+700327738+699896515+703194751
1638+709609570+716620299+719174423+715507925+710603550+708776155+710382234
1628+713545828+716847767+720618442+724781931+727648765+729113034+731973297
1618+738281012+746101680+750839694+751388594+750026470+748164011+746005627
1608+743518227+741000780+739419550+739883447+742583144+746750575+751667374
1598+757060197+762404874+766530730+768621613+769384003+770164135+771151425
1588+771648535+771759103+772385897+773886724+776025514+778916540+783096575
1578+788623562+793895064+795935770+794720056+793927738+796075489+800202719
1568+803415116+805108288+806926902+809967742+815221503+824751113+838656209
1558+848560772+848003151+843183838+839399424+837724352+837768735+838735835
1548+840239768+842667375+846289251+850770945+855828120+859873095+858022344
1538+850005747+843038086+840835380+841486127+841071092+838822032+837578720
1528+839094898+842332265+845850203+850306092+856456705+861894209+863636602
1518+862871166+862470049+863418213+865283002+867829062+871816573+878915410
1508+889501603+897711918+895655740+888256618+884000063+884763947+888802411
1498+893627877+897107944+898017042+896861778+895840977+897526801+902486370
1488+907336207+908486453+907124747+906818967+908869709+912203307+916246551
1478+921297633+926432821+929714629+930768822+930738059+929508128+926783283
1468+924237462+923370238+923164333+922057992+921785185+924819813+929837324
1458+931987643+928009033+921290226+916531424+914984183+916390451+919389357
1448+921395896+920857928+918877433+917194595+916328387+916468285+918535155
1438+922764411+926218494+924849142+919638987+914927555+913388677+915267862
1428+919006878+922490768+924732481+926496976+929413389+933995257+937643596
1418+936289059+930647741+925307723+922267242+920694076+919705770+919418089
1408+920196548+921591884+921986311+920532435+919141758+920022422+922705095
1398+925064246+926187611+926481982+925917373+924721311+924073551+924278679
1388+924183999+922914106+921403602+921911882+925593313+931537186+937676510
1378+941965142+943884229+944872535+946481123+948643927+950388232+951174993
1368+951407898+952641891+956662435+963246960+969467343+972516785+972822505
1358+972767132+974072747+977388484+982593442+988506074+992720157+992867403
1348+989105091+984687970+983209722+986036952+991617341+996633717+998821789
1338+999129779+1000500923+1004684781+1010693824+1015539240+1016871557
1330+1015940058+1016990428+1023206033+1033280241+1042002780+1045715751
1321+1046580825+1048774631+1052863690+1056566626+1058683017+1059592174
1312+1059491462+1058422575+1057234457+1056924913+1057591550+1058541805
1304+1059313573+1060017603+1060683283+1061595428+1064178941+1069237132
1295+1073741823+1072493015+1064768520+1055837747+1050500597+1049092537
1287+1049256329+1048477870+1045213385+1039498713+1033154918+1028242002
1278+1024635477+1019868313+1012547622+1005293594+1002564926+1005532054
1270+1009680489+1009161995+1003729628+997434099+991796783+985176776+977692234
1260+971780737+967837967+963659725+958529912+954170017+951006124+946746165
1250+939953765+932285897+925529816+918960345+910842139+901191567+891827362
1240+883997256+877228272+870641179+864157845+857692849+850519105+842528134
1230+835243701+830497026+828570173+828196415+827882630+826910870+825309271
1220+823202319+820424669+817000095+813872401+812661406+814291259+817877892
1210+821626048+824943995+828582000+832766874+836753608+840259122+843932430
1200+848246867+852688897+856120819+858003408+859166019+860714992+862539162
1190+863932347+865266038+867852000+872341340+877800049+882199967+884348375
1180+885507999+888055433+892826301+898628961+904366630+911030482+920545218
1170+932534213+943468776+949955635+951925138+951681362+951735302+953819197
1160+957679235+961078601+962784556+964393383+967445990+970435518+971005982
1150+969697679+968904167+969612259+971671005+975175922+979065707+981123259
1140+981173257+980906363+981151752+982430487+986055948+992166240+997485829
1130+998327905+995748095+994180485+996157216+1000039654+1002026420+1000463708
1120+996916799+993615935+992407866+993830501+996005729+997811740+1000951739
1110+1006366185+1011760442+1013895708+1011868680+1007573896+1003940371
1101+1002606262+1002860850+1004224229+1007960377+1014102150+1021203735
1093+1027698538+1030776294+1027728525+1020044410+1012627666+1008732385
1084+1007216803+1004847139+1000616031+996568726+994564398+993852364+992289711
1074+989257473+986397987+985182989+984557689+981652327+974820681+966382658
1064+961046762+961367536+965875154+970107576+970174300+966149156+960900054
1054+956922818+955330059+956129425+957856049+958458769+957891710+958531346
1044+961203625+963933428+965686931+967784266+970732936+972103661+969491356
1034+964339562+960284790+958406202+956930105+954835996+952922225+951368354
1024+949180163+946569231+945719390+948579593+954862399+962427165+968740196
1014+971618080+970067793+965615011+961393879+958864126+956053144+949379616
1004+937775430+924237701+913222496+907402751+906101497+906241873+904639676
994+899871138+893148627+886770963+881287703+875395500+868840784+863469585
984+860967728+861384436+863553870+865526778+865147525+861539327+855768266
974+849674400+844576546+840987703+838769346+837079877+834669713+831096401
964+827453020+825317933+825169134+826176734+827261930+827879703+827968229
954+827816683+828113981+829562959+832200651+835569911+839771391+845258952
944+851065794+855049661+857161810+860142079+865772645+872821843+879071078
934+884022046+889162610+895997600+903940784+910195634+913052432+914446514
924+917170403+921225115+924326108+924775251+922187377+916879257+910413485
914+905177525+902568505+902366961+903099903+902999907+901945236+901675655
904+903404608+906536543+909940867+913080029+915313320+916312736+917136832
894+918670991+920332743+921160901+921146445+921404677+923381348+927232844
884+931322441+934014611+935189408+936149101+937999255+940023535+940302255
874+938439438+936275977+935154105+935116412+937166796+941960184+946474791
864+947144713+945008252+943972039+946429453+951702568+956744331+958422152
854+956559035+953934664+952699953+952294058+951597614+951606097+954342351
844+959733262+964697132+966314143+965426609+964969163+966020787+966603257
834+964867315+962262477+961880356+964937623+970006327+975453806+981318710
824+987196576+989964251+988100716+986054275+989436617+998702380+1008850778
814+1013577562+1010844594+1005209130+1002331962+1002819634+1003228217
805+1001391683+998634880+998306460+1003635845+1013291196+1019214221+1015201024
795+1005978150+999523369+997519101+995876882+991162583+984626264+978744515
785+974053273+970115521+966105431+960726645+953404879+946027201+942165491
776+943534305+948228056+952649179+954114942+952110793+948645838+947623783
766+950846335+955326356+958025455+960601800+964603468+966308468+961881909
756+954354417+950326645+953180278+961383843+970351651+975401359+975418264
746+974367715+977137540+983727321+988607742+987640522+983900073+982843311
736+985328382+987116831+984689822+979379671+975334995+975399388+978634903
726+981774185+982183485+979625239+976071221+975340848+978838716+985249593
716+993025639+999671391+1002443187+1001444488+998626995+993228199+982765179
706+968935468+957823374+954887607+960811707+970168744+974884717+971658580
696+964471276+959513678+960202058+965553305+971345094+974383007+975518857
686+974399733+970030579+964740917+959530643+952900362+945849551+941831217
676+941679014+943299190+943709685+939190956+928960244+921204089+926215029
666+940908978+955321756+962836883+959105394+945701768+932296291+927329912
656+931467416+940017920+946722928+946952368+940832697+931594412+921314299
646+911524127+905250521+904834590+909766980+915347488+915744124+912278155
636+912470499+918687119+925277020+927494600+925524559+918854077+906847998
626+895232283+892927670+900995340+907120208+898840540+882013954+871743159
616+873354734+879124242+881620842+884328782+892793626+902975177+903627596
606+889761985+870586701+858697881+857932444+864230900
##END=
