##TITLE=<SNM>
##JCAMP-DX=4.24
##DATA TYPE=INFRARED SPECTRUM
##DATE=29/4/2025
##SAMPLING PROCEDURE=Instrument type and / or accessory
##ORIGIN=Admin
##XUNITS=1/CM
##YUNITS=ABSORBANCE
##RESOLUTION=4
##FIRSTX=4497.3318
##LASTX=599.83466
##DELTAX=-1.4281778
##MAXY=2.1723933
##MINY=0.43524051
##XFACTOR=1
##YFACTOR=2.0231989e-09
##NPOINTS=2730
##FIRSTY=0.44137898
##XYDATA=(X++(Y..Y))
4497+218158962+219929116+221156975+221104623+220280375+219428596+218913403
4487+218951069+219519069+220187456+220669682+221154824+221678663+221782438
4477+221201402+220379112+219966222+220155948+220695327+221303733+221877021
4467+222360381+222651526+222732940+222790211+223000766+223137287+222581159
4457+221071760+219335456+218340012+218064099+217999433+218602800+220746633
4447+223698526+225239212+224266953+222033693+220490724+220455017+221404311
4437+222268774+222293933+221480290+220299259+219173835+218510500+218826009
4427+220147301+221499587+221792661+221109116+220297212+219633803+218752814
4417+217561545+216502937+215998881+216119581+216696405+217413432+217939863
4407+218231553+218551465+218948712+219094778+218867371+218493678+218045317
4397+217581652+217586115+218314381+219118464+219294403+219000695+218701155
4387+218550861+218708431+219339094+220078319+220119741+219088989+217529109
4377+216385449+216216492+216888724+217784223+218225071+217958777+217385577
4367+217105893+217237228+217446413+217506807+217422476+217162516+216746400
4357+216508638+216866054+217802621+218720893+218847323+217906484+216443604
4347+215386086+215292328+216047064+217060155+217627728+217395373+216672837
4337+216140749+216185632+216576294+216716645+216236746+215513754+215412056
4327+216249223+217346512+217864812+217607960+216812362+215847336+215209470
4317+215124918+215274858+215400139+215684758+216139291+216375137+216270596
4307+216114500+216073137+216128317+216376478+216951991+217848300+218856736
4297+219436329+219084658+218190779+217864591+218598028+219728681+220401561
4287+220510094+220530112+220791973+221150361+221290962+221113388+220625344
4277+219751867+218634338+217760802+217395490+217258160+217005948+216642772
4267+216320827+216108386+216060867+216258444+216736162+217461276+218289708
4257+218978526+219428227+219799873+220180548+220415010+220596826+221254165
4247+222518320+223506178+223154978+221499911+219607583+218388740+217947052
4237+217943605+218146132+218497862+218913993+219244054+219433265+219657563
4227+220108693+220589534+220540851+219742307+218908704+219116122+220502478
4217+221987101+222537469+222202959+221547490+220816072+220176070+219906829
4207+219816621+219379278+218872247+219253217+220509667+221386944+221201726
4197+220768537+220980388+221574785+221915629+222044608+222270792+222438864
4187+222269437+221899043+221600843+221395046+221202447+221054320+221015888
4177+221190103+221831284+223079367+224467889+225093323+224568409+223488472
4167+222718873+222580393+222805973+222924935+222691047+222356493+222307367
4157+222407047+222210000+221777327+221638685+222020583+222618530+222923359
4147+222471492+221140831+219475777+218400951+218404221+219217451+220301749
4137+221349264+222264988+222980836+223466995+223789338+224012414+224065089
4127+223809798+223311369+222918836+222909041+223204884+223621796+224127855
4117+224666085+225086311+225378398+225535733+225230904+224169262+222692329
4107+221577481+221379623+222207230+223771220+225366909+226177915+225990148
4097+225353092+224799689+224257511+223481195+222690929+222376894+222671529
4087+223226346+223711091+224247450+225093279+225922108+225980985+225207718
4077+224433140+224153471+223931574+223328206+222656357+222439527+222672796
4067+222931946+222932197+222798269+222875191+223291719+223682219+223502407
4057+222734811+221991785+221738291+221819735+221989045+222365655+223034528
4047+223754722+224370286+224965670+225443109+225509852+225130767+224538182
4037+223919613+223453767+223393137+223793610+224376635+224787787+224841685
4027+224672331+224825953+225785382+227130685+227701941+226948353+225632142
4017+224867552+224947243+225437791+225891823+226041822+225796179+225469491
4007+225571719+226094733+226523753+226646692+226700472+226757228+226693858
3997+226686022+227029238+227488911+227450274+226787160+226061207+225788313
3987+225941273+226193514+226254630+225978629+225485340+225128956+225170642
3977+225639080+226474156+227420828+227923293+227646791+226974470+226567340
3967+226635909+226978020+227421093+227875523+228215454+228435966+228791556
3957+229445345+230081989+230282807+230232193+230532574+231369387+232289677
3947+232777574+232807963+232710581+232616660+232233658+231234487+229755285
3937+228408553+228000981+229129719+231559040+233845683+234359903+233185014
3927+232012733+232057867+232829366+233105942+232801216+233024645+234456916
3917+236321728+237052557+235929121+233711652+231703618+230712003+230979388
3907+232754153+236318399+241080262+245091956+246628311+245838148+243734662
3897+240979021+238319142+236915580+237424040+238838679+239236942+238634414
3887+238948729+240723966+242136027+242274477+242575918+243273338+242545323
3878+240463681+239536439+240968400+243616525+246235837+248342122+249033503
3868+248061569+246848190+246415267+246020288+244509976+242085575+240003713
3858+239753372+242952969+250527391+258879676+260247885+254488574+247408251
3848+242507392+240813305+242188967+245659809+249729333+253242980+255620450
3838+256285759+255144102+253264192+251657176+250254527+248594099+246848308
3828+245575153+245077093+245906084+249166547+254427768+257881433+257117461
3818+254999568+253934214+252438677+249225292+246009034+244889105+246395852
3808+249235574+251230999+252242499+254464446+258362466+260977094+260591867
3798+259119456+257906121+256529811+255020751+254319412+254956880+256727138
3788+259271944+262188867+264903955+267404718+270746522+275620424+280726180
3778+284181437+286402559+289442392+294619502+301771857+309154682+314253192
3768+316565259+317958245+319554714+321289325+323851012+328201252+333424880
3758+337473650+340692868+346048303+355822268+368854251+379930109+385282186
3748+388064150+393009729+400836201+407029820+408342319+408284900+411463080
3738+419368271+429526608+437284732+440306240+439936038+438508378+437681772
3728+438436995+440696622+442740775+442512927+439738063+435860135+432597404
3718+430982963+431446555+434287588+439288848+444223821+445373698+442431557
3708+438969966+437149095+436698053+437136604+438451489+440254124+441930697
3698+443505160+445481082+448208367+451833670+456320813+460935285+463849557
3688+463796852+461904981+460060806+459369690+460166599+462261542+465572559
3678+470266015+474882991+476189245+474800767+474663156+475585420+473011595
3668+466095927+459473686+456093142+455411512+456057082+457434718+459239622
3658+460789396+461493151+461809410+463065404+466337828+471487658+475654712
3648+474345306+467356369+459562009+455482748+455902826+458170055+459233258
3638+458553101+457698273+458210445+460802153+465681711+472029379+476446789
3628+475262562+470558559+467183583+466997598+469617028+474325656+479838293
3618+484149262+486622037+488418043+490295184+491871709+492812238+493028096
3608+492306900+491272775+491296756+492782689+494596431+495454912+495572990
3598+496179172+497706645+499192696+499686927+499939463+501808561+506194596
3588+511440113+514101466+512913261+509966553+507813691+507560978+508512850
3578+508936611+507947442+506645873+506856045+509104242+512467345+515758447
3568+517947782+518248457+516841006+514633642+512013711+508968841+506241320
3558+505026836+505695121+507696615+510129765+511892982+512283806+511877544
3548+511715570+511708441+510876532+509008082+506894167+505209374+504234641
3538+504143726+504741245+505222632+505035792+504861268+505840892+507766024
3528+508969430+508351877+506571279+504966089+504278243+504511335+505056002
3518+504782726+503156442+501167793+500007458+499387372+498313238+496977259
3508+496602638+497727090+499788212+501975956+503514035+503599353+502149597
3498+500258757+499267938+499630716+500698132+501312857+500753165+499479583
3488+498947584+499988721+501408604+501296123+499627240+498169176+497940326
3478+498227095+497925301+496815756+495667618+495393870+495835072+495712280
3468+494327396+492781128+492588573+493398033+493224097+491180710+488503538
3458+486541315+485390496+484712961+484586369+485198854+486412012+487738564
3448+488399630+487743778+485845308+483431130+481393547+480295845+479864925
3438+479264312+478304339+477731477+477963538+478427837+478446781+477995503
3428+477549529+477720489+478831418+480564055+481903098+481735673+480148866
3418+478706770+478648085+479304202+479076854+477549647+475753522+474774105
3408+474899961+475699727+476223979+475297620+472510294+469317649+468122580
3398+469623627+471995735+473227217+473144757+472512798+471745968+471273715
3388+471726701+473089872+474514498+475114758+474589122+473362913+472400465
3378+472565621+473925257+475676778+476982795+477906090+479092675+480575043
3368+481604986+481787700+481619039+481719175+482129679+482555709+482872204
3358+483223757+483911750+485207693+486948725+488228935+488133689+486910603
3348+485647628+485016817+485161911+486221314+488000557+489581088+489981517
3338+489076782+487621311+486532329+486233540+486535010+486773995+486060636
3328+484214812+482545191+482662444+484556437+486621772+487382886+486683609
3318+485562310+485160585+485316520+484666177+482675083+480625892+479920282
3308+480506931+481455326+482201769+482856207+483629017+484336719+484559118
3298+484132823+483508111+483553716+484618834+485952250+486569420+486457440
3288+486357952+486855866+488128357+489770874+490696172+490237824+489179953
3278+488638379+488479203+488043893+487640342+487752882+487654690+486506669
3268+485173960+485163001+486224525+486691976+485981387+485204746+485434009
3258+486701669+488370111+489490261+489299151+488020531+486747951+486294494
3248+486515154+486744180+486473762+485591152+484273114+482763435+481339340
3238+480584147+481099030+482479229+483347963+483055714+482356113+481897058
3228+481379377+480558487+479776219+479214406+478758150+478544767+478616680
3218+478338130+477090709+475280768+473998790+473793951+474183243+474353908
3208+474073591+473714731+473523444+473231784+472485282+471364630+470258444
3198+469417197+468872087+468676646+468869023+469187227+469256430+469018330
3188+468550230+467719854+466508847+465408729+464906308+464612174+463441792
3178+460991525+458348939+456980465+457168777+457945388+458141478+457277605
3168+455852920+454833937+454537328+454235887+453219113+451765704+450606901
3158+449976562+449636558+449325630+448821854+447922334+446731890+445801348
3148+445571879+445795927+445886077+445694730+445408078+444877110+443745676
3138+442129173+440639852+439796984+439647177+439804997+439734999+439262039
3128+438809229+438780211+438912194+438645782+437825010+436713167+435646899
3118+434800938+434081275+433401000+433015626+433058698+433001780+432393183
3108+431752209+431787120+432187872+432056036+431196111+430213983+429533855
3098+429031935+428538765+428119393+427900236+428010153+428446494+428741984
3088+428349039+427521461+426969163+426698479+426237627+425757243+425776304
3078+426083696+426047901+425612945+425135595+424644605+423916280+423005476
3068+422220675+421747332+421610340+421736431+421778501+421262263+420235974
3058+419299775+418741408+418252952+417658967+417211048+416980725+416599859
3048+415826076+414972868+414565988+414659113+414666301+414051488+413054836
3038+412427325+412549145+413099587+413592197+413904804+414049838+413755733
3028+412777612+411455037+410430987+409906588+409576512+409169779+408714789
3018+408354958+408229367+408484584+409052437+409353171+408697260+407258228
3008+406096361+405880297+406178851+406312160+406213555+406048282+405699674
2998+405070808+404273104+403222068+401704611+400102986+399330353+399756471
2988+400802145+401746563+402328115+402440949+401941327+400977347+399976099
2978+399181665+398593631+398268946+398233034+398122115+397394232+396084914
2968+395001324+394877001+395485067+395851115+395363366+394381827+393579585
2958+393041134+392396890+391641992+391265161+391482610+391797131+391517697
2948+390497065+389228639+388341256+388111552+388407483+388852692+388969268
2938+388511951+387874482+387827758+388583540+389374557+389304676+388479868
2928+387856688+387950638+388166643+387670173+386508807+385397082+384734690
2918+384375389+384122882+383957519+383850548+383688633+383439573+383242982
2908+383159491+382894699+382138740+381228349+380962938+381567381+382327023
2898+382520756+382212892+381830730+381473255+380938751+380138543+379298533
2888+378783355+378692646+378709969+378465534+377946998+377462283+377259653
2878+377222386+377013775+376566298+376162482+375890325+375428147+374555966
2868+373480507+372584640+372206042+372555032+373501188+374517490+375027777
2858+374829360+374231133+373791552+373794940+374037135+374206799+374216816
2848+374045326+373605656+372914598+372132832+371429048+370994769+371058669
2838+371597769+372093443+371894496+370938382+369831223+369095769+368696843
2828+368419265+368306667+368449963+368588929+368286604+367519185+366821499
2818+366663885+366863687+366833107+366268200+365402883+364750655+364730769
2808+365300773+365843024+365698638+364877100+363948531+363258122+362596555
2798+361710086+360791534+360234316+360131293+360253142+360320813+360125931
2788+359651203+359205081+359158386+359471935+359688942+359414664+358699478
2778+357966587+357588195+357514779+357364766+356870830+356115548+355326093
2768+354620070+354078466+353901791+354182315+354558674+354476125+353868972
2758+353234597+352964944+352925496+352735829+352211754+351473325+350776699
2748+350311634+350062575+349824415+349451945+349079975+348928342+348918944
2738+348728275+348230626+347665719+347338854+347309040+347381042+347313989
2728+347023862+346611560+346251346+346070723+346065008+346089813+345939947
2718+345450371+344641648+343811773+343272084+342956473+342603476+342275638
2708+342248476+342464834+342557606+342346845+341993052+341747027+341678885
2698+341539919+340991304+340118622+339441618+339241227+339223668+339015117
2688+338645121+338363949+338291388+338411027+338662562+338878419+338794133
2678+338267436+337432817+336584382+335955339+335623436+335557562+335695438
2668+335965886+336273602+336517418+336634730+336605034+336421671+336086733
2658+335625322+335111057+334674510+334419175+334289549+334106363+333810372
2648+333582819+333614813+333823629+333905559+333654025+333162681+332725663
2638+332578360+332727872+332976431+333062044+332826506+332344678+331872749
2628+331597174+331499483+331483339+331461066+331324193+331078874+330951634
2618+331074809+331235457+331228858+331187849+331268217+331287779+330954668
2608+330313400+329785348+329750378+330102963+330362068+330292895+330153458
2598+330202657+330308539+330207489+329874113+329493158+329255263+329279745
2588+329610823+330161766+330688728+330944445+330879338+330604087+330220422
2578+329834341+329615095+329616480+329637102+329456185+329110906+328782774
2568+328546294+328405384+328435434+328647963+328813472+328695335+328379606
2558+328105387+327912184+327755277+327744730+327930568+328087210+328022868
2548+327889146+327925324+328079668+328094752+327866962+327575774+327478966
2538+327657851+327972402+328237105+328419348+328624541+328887536+329085835
2528+329100772+328949315+328718698+328515685+328475795+328640774+328854275
2518+328947518+328967492+329070752+329263601+329391371+329354604+329234111
2508+329198169+329335190+329558295+329639488+329405807+328957211+328596259
2498+328511707+328641717+328812412+328884826+328843522+328822605+328933318
2488+329084392+329134475+329122632+329159899+329204061+329103600+328814975
2478+328509527+328457382+328765687+329237469+329539912+329494837+329200879
2468+328935940+328929518+329157631+329376759+329392550+329240091+329066745
2458+328917409+328719640+328441650+328150108+327919903+327804977+327872884
2448+328148164+328537073+328893428+329138865+329277005+329336928+329355518
2438+329402625+329542740+329732437+329851398+329879121+329909347+329976606
2428+330058153+330210199+330462323+330683542+330815821+331050121+331481453
2418+331843406+331918737+331950171+332262984+332692873+332786145+332478282
2408+332206420+332334779+332746462+333077864+333180917+333252948+333579637
2398+334205439+334842495+335157222+335203033+335444640+336254777+337562503
2388+339153346+341136073+343928849+347931955+353345487+360176839+368336039
2378+377804144+388670832+400808361+413541378+425927996+437389111+447774795
2368+456877000+464238790+469417727+472244294+472810438+471217386+467452352
2358+461585068+453760982+443855770+431948210+419695048+410062052+405188238
2348+405558293+410582562+418769779+427809380+435652114+441355921+444918591
2338+447005373+448260041+448687956+448211961+447360727+446753956+446195737
2328+444855633+442268139+438689177+434642205+430480631+426255952+421835655
2318+417242866+412786420+408723687+404979716+401253098+397269113+393020836
2308+388889341+385346204+382447752+379838781+377267784+374836490+372723517
2298+370907831+369234204+367632225+366189923+365016154+364092829+363306497
2288+362556283+361783855+360996403+360321461+359940742+359899379+360034839
2278+360147201+360166056+360054371+359647874+358828958+357851897+357167969
2268+356850472+356536629+356035563+355582253+355334725+355067399+354584334
2258+354079880+353856834+353928099+354108457+354346322+354744482+355293892
2248+355783881+356059397+356245794+356569448+357014067+357306287+357226390
2238+356839631+356450987+356334323+356418050+356313229+355801675+355153719
2228+354780777+354763572+354874727+354846769+354530598+354025879+353681013
2218+353751866+354113966+354498191+354894525+355517204+356453137+357525002
2208+358490779+359271456+359970467+360762663+361805921+363155717+364668843
2198+366052990+367107208+367918229+368784665+369940728+371375724+372923554
2188+374446549+375853646+377031010+377889491+378467302+378935961+379500868
2178+380241213+381009692+381534150+381656146+381464181+381198152+381023392
2168+380891143+380647681+380251583+379825082+379513212+379306192+379004810
2158+378432273+377690279+377081299+376783158+376747540+376883471+377150590
2148+377468617+377787116+378398629+379952057+382870453+386914244+391576000
2138+396677367+402281538+408282603+414407107+420439281+426294516+432013730
2128+437665392+443194557+448471715+453442866+458113991+462447497+466282088
2118+469336740+471454721+472827555+473767613+474420048+475010998+476158635
2108+478499456+482011954+486009256+489842198+493348008+496579659+499436335
2098+501623313+502759313+502648306+501531867+499787152+497483981+494523899
2088+490879770+486470167+481161751+474968074+468025036+460546582+452902206
2078+445502794+438625277+432430568+426985897+422274676+418294727+415064667
2068+412537508+410581236+408945171+407299326+405540292+403936693+402784431
2058+402102978+401737372+401551593+401510643+401662895+402045971+402722121
2048+403885461+405684149+408044001+410941627+414618428+419305520+425034633
2038+431797961+439566985+448120044+456984236+465512725+473150237+479751296
2028+485443878+490234053+494033969+496923877+499146914+500927336+502295309
2018+503031942+502882105+501800371+499954311+497657563+495252754+492835748
2008+490203443+487183644+483837804+480357801+476946264+473704361+470548866
1998+467401238+464477303+462167327+460590360+459462462+458423445+457309481
1988+456145640+455149666+454671874+454850494+455461713+456288318+457344274
1978+458600268+459853816+460994825+462169920+463674885+465729260+468204333
1968+470612560+472553955+474076743+475531154+477288184+479565606+482250055
1958+484925165+487249371+489212713+490975782+492683142+494526079+496746524
1948+499452185+502624737+506257995+510075145+513272503+515291202+516672256
1938+518367006+520653384+523229124+525816530+528278258+530527103+532614386
1928+534774496+537307223+540300537+543382174+546088660+548572778+551245148
1918+553681068+554948816+555261747+556009634+557972947+560465725+562339301
1908+563351391+564109765+565018566+565865499+566340168+566576383+567046574
1898+568061609+569514370+571055808+572445464+573662186+574606398+574953857
1888+574699082+574488438+574879439+575745816+576722199+577681201+578522478
1878+579026489+579072271+578725697+578354965+578739366+580398764+582489465
1868+583085040+581372849+578539918+576007839+574211096+572903694+571765160
1858+570669874+569671867+568812619+567982655+567137077+566501671+566303048
1848+566540382+567112802+567564374+566763752+564088259+560573787+557734021
1838+556263466+555830631+555628413+555527835+556288566+557964698+558882513
1828+557679460+555147675+552343734+549169708+545668022+542660684+540639805
1818+539351435+538530957+538325086+538901041+539949072+540620420+540146635
1808+538694581+537336271+537240465+538980290+542055682+544836880+545792876
1798+545227881+544977230+546507590+549683148+552480372+552585429+550434039
1788+548556221+548434961+549649739+551207498+552873435+554743299+556435634
1778+557746984+559506312+562925096+568102147+573038506+575200442+574552898
1768+572634306+570646836+569927644+571540199+574649823+577063707+578343416
1758+579830469+581659501+583017693+584545637+587749123+592315810+595632189
1748+596137969+595367692+595392911+596650289+598460230+600159105+601419429
1738+602860170+606348304+612912302+619386915+620616306+617411877+613722409
1728+611294502+610409624+610798798+611791620+613487962+617429848+624917730
1718+634184147+639618567+638013082+632791722+628249959+626217826+627034591
1708+630334590+634745784+638351997+641234068+645714376+652311428+657106965
1698+657239597+654944204+651845362+648153124+645562654+645844828+649009662
1688+654257242+661649141+670339250+675054654+672191379+666640885+663344362
1678+663435926+666143354+669634258+672369498+674977408+678557696+681666908
1668+681802132+680085699+679793332+681836424+684052273+684307697+683616787
1658+684484460+688662091+697074387+707823203+712950289+710362411+708060950
1648+709453964+711564109+709880613+704803786+699923344+697764648+699645884
1638+705456928+712389124+715062437+711878159+707856611+707090930+709792584
1628+713882069+717676534+721576705+726005103+729731692+732487966+736491249
1618+743245444+750236738+752895556+751472963+749552957+748708852+748570682
1608+748708675+749289697+750220004+750687602+750451741+750964296+753987071
1598+759448712+765450955+770040562+772530689+773466476+773979620+775154273
1588+777313617+779650255+781093647+781733295+782658181+784489805+787166006
1578+790816998+795089551+797857904+798126231+798381183+801306384+807050729
1568+813053443+817087188+819452756+822128072+827921322+839011586+852518149
1558+857527747+852001528+845599270+842393957+842027408+843150034+843860800
1548+843496962+843765053+846303319+850655002+855407409+858506310+856080465
1538+848670949+842721618+841256778+842135646+841391531+838365397+836046023
1528+836714249+840441073+846149122+852871382+859195157+862607284+862270726
1518+860220740+858195501+857220944+858491344+862276088+867877018+875584735
1508+886368785+896264423+896732610+889976058+884662428+884411070+888646738
1498+894401747+898200514+899705774+901765305+905629533+909181067+909642479
1488+907202081+904208001+902297776+902319400+904553279+908252410+912307484
1478+916642729+921881117+927784726+932384114+932955767+929687291+926341333
1468+925823416+927600302+927998963+924339545+919572290+918586892+923271893
1458+931108116+934433452+928752506+919565868+912363165+908629859+907945313
1448+908478078+907988325+906417663+905732940+906984721+909652731+913148231
1438+916523177+917145208+913663732+909223254+907154414+907794180+909782829
1428+911789331+912938943+912621947+911320495+911274124+914413563+919181584
1418+921149139+918841432+915084145+912114989+910179604+909055624+908902016
1408+910100709+912666786+915505137+916961905+916669243+915770872+915657861
1398+917295870+920315110+922203239+920491755+916124222+912350850+910856432
1388+911144674+912594843+915567122+920212528+925118306+927983172+927829859
1378+926181598+925730792+928012397+932309461+937012727+941534162+945642147
1368+948526281+950400387+953099390+957309309+961006732+962172900+961458952
1358+960863494+961593292+963520427+965587618+966775116+967037256+967483290
1348+969657423+973891500+978622635+982616196+986882620+992816397+999319175
1338+1003612408+1005051500+1006313945+1010019970+1015416208+1018844243
1330+1017610080+1013137255+1010057326+1012591291+1020745159+1029746431
1321+1034781954+1036204665+1038031339+1042868062+1050441674+1058749680
1312+1064714390+1066044123+1064226640+1063700120+1066920281+1071539702
1304+1073741823+1073477856+1073109481+1072092619+1067680247+1059933289
1295+1052189630+1047758992+1047793991+1050861782+1053592897+1052095003
1287+1044856063+1035032840+1028051268+1026751938+1028671355+1028895491
1278+1025962630+1022268625+1019452192+1016712474+1013493021+1010191902
1270+1006340695+1001290442+995924607+991402170+987105460+981601102+974775082
1260+968053706+962767356+958919154+955764219+953008121+950985416+949836393
1250+948621556+945295927+938544619+929720699+921359959+913985972+905881303
1240+895945600+885316335+875916755+868474538+862006877+855263111+848569251
1230+843182499+839021190+834786406+830355061+826976815+824898782+822898055
1220+820550634+819055038+819213889+820158573+820619926+820342171+819923772
1210+820212780+821921436+825021456+828713281+832384896+836039365+839803310
1200+843786029+848020459+851706038+853558521+853837100+854566898+857331775
1190+862135089+868087485+873879791+877991488+879942133+881131340+883418601
1180+887096462+891023795+894382362+897506010+901503164+907387977+915047909
1170+923169134+930854166+938842171+948020678+957099903+963336534+965625917
1160+965360890+964561388+963761003+962419426+961201525+962368106+967458072
1150+975196722+982266675+985373472+982591979+975290937+968408411+966980339
1140+971694505+977978391+980819453+980381728+980662664+984138012+989879057
1130+994470197+994561289+989996428+983701112+979905703+982126148+989868216
1120+997232540+999481326+999959177+1003279857+1006402091+1003687828+997833182
1110+996261401+1000028586+1002995739+1000509147+996032904+995613503+999686607
1100+1004438248+1006427545+1004514963+999711708+993441315+987450208+985385669
1090+989585866+997797358+1005488341+1010751889+1014698666+1016235449+1012425840
1080+1005085203+999725495+998147586+996605029+990586112+980720407+972161809
1070+968448007+969028027+971530351+974101671+975441009+974658712+972419118
1060+971187429+973130297+977845524+982349754+983530476+980587716+975000220
1050+969273846+966092161+966689150+968760642+967848601+962835763+957934404
1040+957775081+963134081+971297376+978684679+982595927+981525270+975664910
1030+967553053+960460886+955518930+951574215+947983322+946081641+947394523
1020+951339827+955424950+958429519+961459364+964924519+967238708+967383831
1010+966462362+965487865+963346433+958305666+950612268+941980137+933555938
1000+925853348+919472537+914160673+908059384+900099426+891940903+885743632
990+881746065+878874128+875874804+871467263+865778127+861348197+859960367
980+859781659+858119905+855425380+853665993+852603762+850605744+847902735
970+846143701+845160071+842881353+838336820+832605262+827378658+824225372
960+824129036+826047274+827193115+826400035+825467136+826272118+829045184
950+833730067+840439070+847990115+853899674+856676100+856972650+856443361
940+856780508+859615089+865907106+874908378+884274373+891740807+896596384
930+899721741+902878974+907442008+913189652+918646638+922517937+924245389
920+923684695+921463660+919030981+917376121+916322610+915289427+914238626
910+913821346+914436189+915147839+914319996+911891324+910012032+910845237
900+914417393+918486903+920300026+919032160+916789855+916697348+919776275
890+924242325+928045629+931085078+933789089+935339660+935218812+935016300
880+936666741+939783437+941874373+940775021+937197798+934647159+935742680
870+939774481+944550043+949006076+952738851+954674412+954315582+952911962
860+951468687+949142361+946068030+944020342+944148554+945933159+947584779
850+948649662+951307243+957450072+965362834+969828353+968302707+965947450
840+968372352+973324972+973650158+967823147+961988653+960285359+960408858
830+959240981+957975236+961339813+971623387+983926073+990245901+988923945
820+985719221+986605337+993120783+1002100137+1009185292+1013525309+1016443440
810+1017085563+1013977117+1008144744+1001364801+993837619+986418557+982971726
800+987192781+997403411+1006535489+1008177269+1002350081+994204698+987830486
790+983715253+981528216+981215934+980988910+979007803+976537120+974447009
780+969787344+961056049+952329585+947524444+945364982+942420631+938168760
770+935099261+935131255+937458230+940300824+943005896+945226517+947288052
760+950998378+956460255+960580967+961109903+959737510+959137928+959785826
750+961817251+966057515+971422643+975751111+978175129+977842755+974172671
740+969118117+966850535+969269191+974163715+978835989+983240348+988170873
730+991835123+990634545+984569198+978524296+977030408+980000390+983011970
720+981792065+977962188+977079195+981927054+989412755+993572827+993261959
710+993628566+998311976+1002961801+998545657+982753011+963028200+949502958
700+948360948+960019154+979425731+995724393+997986731+986217105+971071119
690+961864035+959416390+959640290+959402249+958811151+959400127+960255663
680+957944421+952371006+949610254+953722894+958898119+955074546+939971926
670+920920937+910350181+914466121+922822383+927242061+932128278+942622613
660+955029707+960247591+956981589+950680027+942331307+933200172+930285989
650+938306990+951051702+955610258+947606875+936563040+932556164+934278548
640+934394269+930964290+928745553+930682823+932778061+929985491+921626636
630+908764671+893426778+882767404+886171046+905806768+931050963+944804818
620+938426305+917115866+896521967+885178401+885161019+895570920+904613909
610+903491755+897890176+892425943+888718680+889653170+900587883+922161935
600+942803914
##END=
