##TITLE=<SNM>
##JCAMP-DX=4.24
##DATA TYPE=INFRARED SPECTRUM
##DATE=29/4/2025
##SAMPLING PROCEDURE=Instrument type and / or accessory
##ORIGIN=Admin
##XUNITS=1/CM
##YUNITS=ABSORBANCE
##RESOLUTION=4
##FIRSTX=4497.3318
##LASTX=599.83466
##DELTAX=-1.4281778
##MAXY=2.1093841
##MINY=0.38163707
##XFACTOR=1
##YFACTOR=1.964517e-09
##NPOINTS=2730
##FIRSTY=0.39402199
##XYDATA=(X++(Y..Y))
4497+200569396+200544563+201046199+201634048+201407738+199955621+198087899
4487+197109702+197459984+198615916+200048023+201496894+202518750+202638050
4477+201992856+201232050+200819039+200828884+201154287+201497865+201423075
4467+200757630+199882864+199507369+200103137+201484120+202857973+203346230
4457+202612745+201078982+199593187+198807077+198775174+199111894+199483536
4447+199836671+200137361+200139895+199698864+199149592+198969066+199179978
4437+199410522+199361006+198947357+198260764+197597746+197233977+197179561
4427+197470983+198376225+199807437+200870390+200523112+198616872+196119824
4417+194429852+194361753+195520066+196732841+197141848+196684023+195836610
4407+195339070+195717629+196665364+197391066+197638721+197633927+197320524
4397+196599525+196014406+196254977+197228395+198264344+198885356+198995143
4387+198772443+198533192+198264557+197542541+196347106+195368424+195029914
4377+194924723+194617888+194275479+194265088+194799280+195881848+197049021
4367+197557135+197236040+196619580+196061343+195485721+195045630+195112804
4357+195604413+196097039+196494000+196955284+197464126+197916049+198283747
4347+198451318+198207880+197598960+196977007+196593532+196410533+196350368
4337+196417208+196473854+196258800+195830724+195612651+195828737+196357649
4327+197137054+198014368+198327028+197571517+196457091+196333559+197496924
4317+198848735+199367377+199151352+198762416+198437483+198414348+199162062
4307+200586660+201679802+201620228+200673495+199603837+198764798+198090280
4297+197617574+197664283+198468082+199795741+201091088+201943250+202218393
4287+202008891+201691817+201648991+201762708+201565479+200971576+200511415
4277+200698738+201356857+201813543+201776649+201621639+201688570+201853927
4267+201978505+202195759+202564519+202923585+203199032+203513497+203867315
4257+203965497+203624620+203159650+202987862+203046191+203073771+203156449
4247+203384611+203363903+202796291+202183638+202264223+203017990+203738943
4237+203902221+203569840+203050348+202589474+202395188+202663111+203447052
4227+204543167+205520772+205908555+205521560+204693853+204075042+204054653
4217+204361563+204347682+203732223+202916212+202498725+202719833+203425297
4207+204293054+205023110+205464399+205639965+205743578+206053098+206607739
4197+207067202+207137683+206878772+206367563+205632425+205138541+205559911
4187+206800448+207896699+208103941+207568657+206824189+206209959+205968402
4177+206399785+207560192+209016875+210184169+210810278+211020129+210972903
4167+210637716+210005766+209369448+209084868+209124963+209213451+209227029
4157+209121125+208888352+208926718+209753757+211013196+211574482+210950664
4147+209866427+209258887+209388896+209929368+210407066+210622773+210915681
4137+211878100+213614827+215380848+216125407+215413070+213813422+212467770
4127+212199559+212757720+212998822+212227912+211173971+211084162+212119248
4117+213273450+213699660+213466962+213126070+213113494+213527810+214105662
4107+214448314+214417700+214257836+214372008+215049756+216212317+217282476
4097+217560684+217006422+216416904+216471123+216829081+216669110+215956334
4087+215483263+215736273+216464175+217269566+217934208+218275191+218223172
4077+217953140+217676206+217422286+217133322+216847999+216679821+216623630
4067+216555834+216563631+217007454+217937909+218745743+218799294+218204011
4057+217605604+217422999+217548336+217754773+218126324+218885355+219863233
4047+220510262+220615286+220652969+221063447+221494663+221291517+220508047
4037+219757754+219315464+219068309+219062802+219399280+219768601+219665928
4027+219030808+218439166+218602050+219637696+220975793+222062245+222801008
4017+223260259+223473417+223548207+223502347+223154810+222557661+222188993
4007+222325465+222548453+222299417+221734278+221509196+221748690+221884676
3997+221710006+221815272+222592887+223562421+224054698+223964283+223604701
3987+223289826+223221863+223508354+224066394+224538251+224565906+224292082
3977+224238243+224525144+224682794+224434152+224214365+224574554+225349225
3967+225809174+225607849+225188739+225121291+225367885+225396511+224887077
3957+224154154+223838035+224206325+224922773+225595849+226146698+226408901
3947+226018478+225137569+224621278+225018649+225878881+226435055+226528034
3937+226414241+226311220+226572634+227616215+229102966+229867276+229399105
3927+228576662+228408454+228859725+229244322+229289378+229342398+229727709
3917+230213553+230105146+229052919+227702079+227094326+227535342+228518074
3907+229758019+231574436+233966459+236051709+237128694+237498774+237449349
3897+236601465+234919716+233276225+232541042+232581061+232554604+232450096
3887+233223812+234886963+235758376+234976073+234035545+234133636+234342364
3878+233781882+233342216+233924968+235239642+236884998+238578050+239152959
3868+238044101+236783555+236796176+237379429+236991418+235566638+234104812
3858+233449698+234622605+239008811+245487669+248581759+246361114+242090400
3848+238441699+236416615+236208509+237450441+239405909+241745428+244408924
3838+246423373+246549590+245252302+243982077+243281102+242719073+242001684
3828+241347935+240991797+241184415+242584361+245414457+247898109+248150467
3818+247222515+246770910+246421765+245179894+243571295+242968306+244269175
3808+247072313+249473803+250260034+250660561+252042378+253430006+253476382
3798+252888775+252449974+251745571+250509738+249432373+249201314+249761660
3788+250672697+251614272+252425201+253176859+254361842+256422728+258817331
3778+260214121+260070671+259265765+259314826+261305139+264851866+268164939
3768+270167267+271605443+273333067+275317616+277602780+280577859+284026069
3758+287147056+289806684+292792685+297111429+303274547+310100244+315121827
3748+318055279+321109668+325625291+329698124+331158569+331166306+332030801
3738+335361866+341626080+349423313+356046699+359779959+361046498+361590839
3728+363327657+367316446+372770383+377818848+381892409+385922127+390213321
3718+393927194+396985467+401047012+407849620+416791817+424781895+429639609
3708+431921496+433319956+435824421+441049954+448392352+454446487+456571088
3698+455837391+455118865+456421600+460103676+465456700+471211585+475412395
3688+476366576+474492376+471606195+469316511+468781636+470652681+475038052
3678+481697482+489053867+493400766+493277249+491688281+491209780+491440641
3668+491060837+490381451+490186755+490497837+491250527+492935523+495945099
3658+499628904+502440751+503677738+504749065+507488488+512102354+516707209
3648+519032635+519337983+519395084+520013850+520617264+520840329+522101284
3638+525665032+529943786+532348461+533432046+536413861+542950684+550321329
3628+553308301+551305639+548281044+547020695+547613187+548787914+549473127
3618+550007243+552163914+556883214+562316125+565358014+565216505+563573015
3608+562333298+563004978+566275757+571118725+575253422+576930226+576264553
3598+574778045+573904661+574068257+575120348+577288913+580931303+585701515
3588+590018316+591525820+589232555+584838506+581209345+580177400+582019742
3578+586017300+590762693+594485425+596196757+596620918+597113346+597985032
3568+598628010+598926805+599526881+600719146+602378717+604284835+605859452
3558+606232581+605423336+605079395+606366565+607894033+607764054+606926107
3548+608261397+612764368+618091755+621436200+622320508+621662662+620492425
3538+619233532+616877220+612801748+609006502+608129719+610164603+612401495
3528+612889007+612855633+614725039+619110228+624251384+627808760+628499069
3518+626856611+624802916+623861143+624594415+626997937+629840367+630541114
3508+628037649+624370198+621870314+620958214+621148753+622203453+623624729
3498+624440163+624093856+623018463+622414624+623486194+626293914+629479799
3488+631917789+633963474+636043990+637468361+637529103+636545096+635169574
3478+633876397+633719657+635977787+639591779+640981561+638396541+634318156
3468+632530790+634196490+637401247+639781832+640335852+639078598+636560024
3458+633883800+632043035+631337191+631921976+633943267+636630535+638519420
3448+638408009+635776568+631583314+627953363+625956162+624923732+625005287
3438+627470765+631098350+631839631+628052152+623224294+621476614+622758323
3428+623830196+622991824+622144411+623413012+625625753+626634457+626989988
3418+628268359+629834724+629730352+627868834+626218123+626106712+627398433
3408+629986245+633636524+636608144+637527646+637891369+639537772+641194794
3398+640267161+636732844+632999553+631059817+631323234+633367584+636841281
3388+641100739+644018534+642940897+637822011+631901526+628716308+629517907
3378+633242581+637708719+640736409+641406329+640627000+639606464+638358190
3368+636873199+636670767+639144861+643250067+646579889+647629188+646148263
3358+643224824+641203775+641385698+642244883+641641408+639974920+639218043
3348+639898462+640963781+641859072+643045754+644626014+645768945+645959302
3338+645604256+644636937+642321523+639026351+636812154+637621945+641202865
3328+645376580+648051105+648561919+647655767+646097291+644257740+643220637
3318+643941287+644865098+643243332+639807258+638843640+642569831+648205660
3308+651525894+651450042+649670929+647689323+646199842+646376000+649133233
3298+653068410+655195773+654353639+652202732+650721443+650347040+650688129
3288+651728751+653813515+656843753+659679205+660585054+658647078+654923132
3278+652033735+652141080+655021314+658310358+659785397+659394852+658994356
3268+660088499+662096866+663114611+662454096+661346118+660768190+660014590
3258+657495287+652279130+645643517+641125982+641526721+646016585+650979520
3248+653511626+653490448+652387264+651347612+651107072+652615546+656148589
3238+660036071+661431435+658819776+653594516+648922427+647285551+648924854
3228+652166141+655027989+656279600+655488013+653192989+650634487+648529030
3218+646699188+645177000+644883060+646539839+649233357+650760157+649715712
3208+646704043+643527684+642017086+643008678+645235375+645877928+643655903
3198+640494351+638856565+639002503+639764113+640620325+641693776+642363575
3188+641487763+638942914+636046660+634589704+635795015+639600456+643945474
3178+645670034+643602018+639533949+635423100+631656253+628568489+627476652
3168+628865827+630658835+629973016+626746414+623696454+622574276+622475366
3158+621816307+620480228+619338450+618973695+619674806+621464356+623449421
3148+623950709+621961517+618115845+614059973+611508631+611608634+613922955
3138+616016882+615724277+613854385+612801991+613089255+613166624+612041473
3128+610440460+609081625+607251843+604426768+601894541+600956592+600928132
3118+600540925+600100197+600545476+601489737+601816080+601272862+600320774
3108+599259884+598175146+597256190+597008186+597875078+599196411+599264617
3098+597341386+594889683+593872726+594360968+594729909+593901914+592389738
3088+591119073+590424031+590451216+591332732+592493260+592937022+592738109
3078+592842481+593219432+592924036+591836143+590344235+587900299+584312643
3068+581560203+581715062+583849038+585072129+584217009+582524792+581139622
3058+580030126+579054554+578509394+578518557+578825301+579223188+579550563
3048+579436179+578693016+577830371+577426841+577321984+576881742+575705072
3038+574027176+572804813+573015923+574368022+575201418+574209038+571703389
3028+568879709+566621215+565245268+564630750+564274915+563648078+562696475
3018+561865688+561548447+561675938+562019940+562573899+563263905+563649777
3008+563381627+562681001+561990995+561324473+560234334+558388472+556043750
2998+553984836+553055928+553455696+554250802+554073006+552746029+551552490
2988+551496785+552136850+552331455+551464927+549866887+548426194+547854334
2978+548081706+548334565+548006340+547298797+546784099+546555634+546108110
2968+545114698+543955019+543000140+541901506+540218816+538296860+536780982
2958+535667724+534534078+533297880+532166357+531257534+530785131+531056255
2948+531867320+532539243+532786883+533011404+533433563+533407349+532236262
2938+530220250+528242224+526766396+525783057+525231525+524923871+524548801
2928+524087502+523757275+523692103+524101762+525053304+525677836+524697895
2918+522299105+520150808+519202239+518739545+517912884+517146481+517309288
2908+517988129+517638909+515674172+513330360+512020070+511899072+512424814
2898+513297410+514199012+514264365+512788416+510383134+508523801+507943294
2888+508124548+508193543+507718834+506808039+505870059+505130082+504331760
2878+503283825+502463173+502398426+502740425+502726742+502314686+502189258
2868+502835573+503940427+504496236+503503795+500988680+498246495+496645270
2858+496383400+496775400+497324687+497926341+498338033+498077559+496801524
2848+494642304+492335902+490874576+490596201+490720901+490192459+488846974
2838+487423211+486646612+486609779+486851078+486769553+486026026+484765282
2828+483480873+482587646+482141669+481974644+481976677+482045823+481857802
2818+481106296+480008603+479175328+478867068+478677044+478053363+476926998
2808+475733156+474906010+474473262+474176622+473864083+473553334+473200868
2798+472734017+472236370+471823161+471408314+470753806+469698924+468350709
2788+467137994+466549478+466634765+466849334+466578058+465754341+464709471
2778+463577857+462326762+461179493+460373191+459697657+458884226+458104866
2768+457524754+456896066+456083909+455409680+455148144+455161918+455140680
2758+454845496+454231857+453523920+452941957+452431445+451910892+451466371
2748+451037840+450324078+449249170+448162946+447405554+446924534+446382317
2738+445515667+444395977+443421376+443054771+443388366+443899241+443849027
2728+443005771+441797608+440785020+440217833+440003476+439822373+439328458
2718+438449521+437480685+436756758+436293973+435872147+435361363+434827520
2708+434361427+433900068+433276083+432437893+431551310+430824683+430321787
2698+430028970+429963708+430072448+430115562+429778023+428885554+427565646
2688+426259483+425439710+425168799+425029627+424589415+423851713+423192594
2678+422895468+422792826+422402372+421453106+420235446+419343735+419048188
2668+419054438+418999005+418923275+418977919+418985413+418678062+418052682
2658+417177112+416019861+414729535+413739612+413418487+413771652+414432167
2648+414855904+414710906+414130763+413460782+412875148+412371463+411898544
2638+411312424+410477390+409607252+409217071+409483401+409900099+409851402
2628+409337827+408857080+408719243+408737811+408499880+407778532+406761697
2618+405943866+405678537+405811854+405854968+405480231+404748385+403951337
2608+403418161+403343250+403557182+403572292+403117789+402515377+402259605
2598+402389372+402547052+402480667+402198408+401777159+401345746+401176992
2588+401446993+401874522+401945034+401587955+401267103+401274294+401336128
2578+401072741+400463047+399742275+399189014+399063586+399431739+399980115
2568+400234582+400042769+399714210+399618728+399781202+399980692+400070925
2558+400004145+399731019+399325941+399004816+398823319+398616912+398333014
2548+398102638+397974631+397898749+397892044+397964801+398007520+397871594
2538+397441516+396732122+396076644+395949547+396389122+396928184+397243696
2528+397444823+397641734+397717919+397637699+397593887+397723532+397890982
2518+397868955+397679023+397626291+397931972+398448521+398825807+398871530
2508+398668794+398412962+398224304+398133889+398195480+398444213+398689213
2498+398571279+397976816+397242755+396832762+396900756+397218543+397484418
2488+397667493+397946141+398286533+398353100+398015864+397674198+397798352
2478+398308196+398685936+398673375+398568276+398721890+399044289+399233706
2468+399254762+399319084+399536839+399781779+399823891+399569485+399247389
2458+399232796+399575918+399901472+399891733+399640786+399423062+399339777
2448+399321481+399328581+399406738+399548217+399595427+399395118+399020836
2438+398713395+398638817+398832451+399235466+399610991+399649311+399366476
2428+399145779+399236406+399519636+399841277+400201662+400576430+400863421
2418+400985178+400885873+400599428+400367595+400381673+400433465+400224843
2408+399981845+400293261+401312068+402516803+403317946+403567225+403448138
2398+403227076+403163543+403377990+403745658+404043360+404137780+403969663
2388+403540798+402958016+402235090+401004050+398683570+395022126+390306800
2378+385033997+379565375+374070903+368576339+363051041+357591916+352491083
2368+348093909+344719275+342606840+341704874+341651020+342186319+343422912
2358+345639505+349137050+354413949+361982688+371241155+379685554+384232094
2348+383306554+377827283+370972580+366168418+364392976+364335177+364659700
2338+365082648+365876814+366976843+367840853+368248297+368735324+369875494
2328+371541982+373226432+374769374+376453702+378457457+380494859+382209680
2318+383712390+385392471+387381207+389467731+391397667+393081085+394623268
2308+396220398+397899538+399397818+400463957+401266769+402341221+404031497
2298+406045294+407712450+408716876+409356062+410057992+410975734+412054191
2288+413096422+413762732+413855301+413543824+413083436+412540278+411969784
2278+411549900+411363669+411271434+411062812+410615409+409996977+409473965
2268+409261278+409295744+409421597+409620025+409865450+410043519+410214822
2258+410640440+411381752+412181046+412843351+413435630+414010160+414416238
2248+414547067+414580442+414766854+415044228+415037917+414468090+413466759
2238+412431659+411612796+410974672+410500358+410375233+410631277+410866903
2228+410675939+410146192+409647240+409392046+409416834+409719451+410256268
2218+410910138+411494589+411851759+412047122+412328349+412784551+413243179
2208+413574317+413873020+414287806+414837942+415408831+415848163+416121381
2198+416409525+416998103+418007444+419236663+420349163+421192328+421814371
2188+422259225+422552437+422771557+422958971+423132034+423423759+423941096
2178+424512380+424867304+424987301+425056569+425211822+425493049+425896549
2168+426402145+426998247+427656517+428271035+428673595+428766862+428673898
2158+428705968+429088745+429755965+430513995+431327973+432302969+433457156
2148+434653456+435737253+436664553+437493883+438298728+439140862+440107727
2138+441269742+442622690+444175978+446018775+448160640+450427812+452698746
2128+455121838+457906500+460979700+464021892+466796662+469313932+471680621
2118+473889539+475819535+477427861+478833056+480182181+481594355+483300650
2108+485698590+489207845+494145628+500629447+508380775+516663519+524609421
2098+531587094+537181660+541014468+542790425+542374880+539664614+534621398
2088+527660959+519731622+511717089+503946100+496406186+489148378+482341219
2078+476197943+471005482+466997062+464048683+461660604+459418827+457399447
2068+455947437+455162707+454799227+454549068+454209739+453703172+453161198
2058+452878666+453012741+453390239+453689306+453794073+453918105+454315931
2048+454976871+455808295+456974527+458725150+461080461+464072531+468095180
2038+473650273+480904895+489687075+499650780+510218324+520590261+530107019
2028+538578845+546129531+552674607+557638877+560414922+561154444+560751703
2018+559889180+558500733+556323612+553407576+549754930+545067791+539326074
2008+533214807+527579646+522688618+518230490+513874246+509695069+506084507
1998+503345902+501462327+500193847+499290121+498622385+498172312+497895090
1988+497648846+497401782+497462282+498236058+499690375+501318543+502719854
1978+503979323+505380574+506964688+508489455+509694099+510624766+511733473
1968+513426236+515471861+517219966+518457802+519588536+521035783+522993298
1958+525598282+528767238+531898207+534252335+535715420+536860596+538320768
1948+540361963+542916824+545757373+548635119+551387316+553972457+556440302
1938+558859055+561169796+563148004+564691309+566066467+567699460+569833982
1928+572449404+575306822+577997184+580163686+581840247+583462378+585392465
1918+587427592+588922231+589590877+589907087+590497334+591485285+592536769
1908+593331329+593839595+594232141+594691134+595281380+595909916+596503379
1898+597192596+598067073+598857507+599389984+600140550+601424686+602353534
1888+601884529+600552879+599592720+599151265+598636991+597978964+597579682
1878+597652984+598166833+598901683+599437134+599537925+599391926+599132757
1868+598488140+597249636+595590794+593664104+591514351+589399125+587666494
1858+586354869+585235483+584104203+582841123+581447700+580189111+579471010
1848+579474226+579929092+580101548+579196730+577288731+575306033+573883543
1838+572882971+571713462+569992421+568130357+566977110+566690088+566389109
1828+565378524+563936071+562357146+560455093+558300485+556440969+555268062
1818+554770476+554775270+555096213+555565400+556090110+556569856+556800081
1808+556705115+556605840+557044869+558338046+560284518+562201680+563378289
1798+563781637+564192024+565455165+567633317+569695508+570407298+569893450
1788+569327658+569534884+570683883+572751475+575713204+579120758+582050447
1778+584094069+585970636+588621859+592028139+594952792+596191174+595994506
1768+595254134+594581604+594740953+596450040+599241376+601511825+602613189
1758+603454109+604651107+606142045+608311095+611706573+615744241+618944811
1748+620720404+621563145+621902899+622151025+623031388+624973551+627508570
1738+630078238+633173829+637412959+641464098+643012804+642609516+642183110
1728+642287056+642723415+643571374+645026935+647185730+650484422+655680858
1718+662473271+668080641+669895920+669052511+667995505+667898233+669085036
1708+671703613+675264387+678568904+681529723+685780200+691981639+697570804
1698+700271968+701665512+703229753+704495138+705559305+707558933+711153021
1688+716342722+723321790+731359261+736229293+735082175+732160131+731978937
1678+735465802+741285555+747102639+751128596+753736007+756505983+759902493
1668+762712580+764349395+765954292+768394830+770808426+771789034+771610449
1658+771806996+773711294+778286415+785503354+791814201+794035741+794783637
1648+796350608+797895127+797636261+796082882+794972477+795002453+796060127
1638+798003018+800402778+801555782+799823819+796441387+793902970+793315030
1628+793680998+793231593+791707402+789890060+787894376+785858643+784585369
1618+783926856+782065096+778264752+774460404+772035885+770645861+769551778
1608+768301260+766693268+764853231+763137955+761825481+761199130+761753635
1598+763588877+765759384+767069552+767339644+767114699+766604795+765706591
1588+764383923+762574894+760411305+758603430+757943036+758435828+759502968
1578+760814835+762133924+762718345+762400982+762299584+763165990+763999993
1568+763077942+760463977+757482951+755159406+754617584+757538960+764221722
1558+769402563+768249135+764148662+760822057+759370987+759678276+761073459
1548+762976301+765450335+768663648+772027936+774876434+777421465+779417695
1538+779960003+780040285+781359676+783905739+786006220+786987435+788287894
1528+791059752+794863372+798803950+803102122+808454388+814140339+818518489
1518+821550973+824384361+827508230+830679916+833766588+837150416+841661761
1508+848063933+855519349+861108757+863901004+865485633+866988343+868900893
1498+871470561+874292845+876534834+878455576+881537333+886697785+892839210
1488+897698077+900390928+901516625+902002075+903085416+905765403+909981048
1478+914986824+919954674+924234278+928098155+932390805+936378714+938178459
1468+937559389+935940960+934536797+933512437+933121589+934576057+939020047
1458+945395337+949034633+947308312+944012958+942589195+943620654+946104882
1448+948104936+947984119+946105550+944534028+945046359+948120895+953325584
1438+959551841+964522483+966417618+966576906+967506239+970187135+973940754
1428+977401404+979415293+979327183+977730236+977054550+979860450+985769769
1418+990774271+992234747+991892808+991346556+990098343+988116980+986711724
1408+986797163+988084151+989673453+990971121+991971754+993250247+995554191
1398+999002341+1002428403+1003518662+1000792558+995868945+991737707+989229995
1388+987209189+985400099+985347671+988009149+992112595+995558196+997733557
1378+999560972+1001715520+1003952776+1006358786+1010051299+1015724265
1370+1022196888+1026964490+1028553489+1027960755+1027173112+1026645793
1361+1025376948+1023792683+1023996936+1026520668+1029236153+1030236664
1352+1030298923+1031479052+1034906934+1040469096+1046181383+1048880120
1344+1048029005+1046124586+1045309030+1046467313+1050009883+1055083561
1335+1059345810+1061421836+1062760221+1065710299+1070070366+1073241203
1327+1073741823+1072313994+1070245007+1068297140+1066937759+1066799042
1318+1068153083+1070139907+1071067844+1069615015+1065980816+1061970394
1310+1059861358+1060871336+1064022633+1066579861+1066164680+1062651116
1301+1058384862+1056511512+1057971623+1060678248+1062036173+1061101197
1293+1057980725+1052992850+1046991235+1040983551+1034944678+1027919977
1284+1019471573+1010850896+1004187005+1000515063+998710889+996462104+992745864
1274+987626615+980853619+972644361+964496147+958095795+954216991+952402804
1264+950702456+946616304+939117440+929683755+920740011+913478289+907538569
1254+902086118+896937438+892519238+888939592+885443383+880769169+873986405
1244+865157833+855184753+845223749+836383102+829445782+824355962+820088009
1234+815339764+809844230+804944525+802271760+801873752+802275037+802287294
1224+801952698+801682181+801483026+801310084+801320157+801710944+802808789
1214+805015947+808314032+812134704+815783405+818705994+820731473+822442259
1204+824926123+828986121+834461085+840019363+844093379+846618567+849127129
1194+852823222+857319700+861262888+863755308+865014140+866135165+868330005
1184+872140846+877262462+882847137+887932405+892145685+896396890+902497962
1174+911514888+922481987+932914302+940673974+945345093+947704804+948447178
1164+948088734+947793884+949080629+952095211+954980057+955857508+955586869
1154+957098439+961754509+968125187+974028074+977866950+978273697+974960199
1144+970249333+967566799+968113476+970492058+973209060+976144211+979524094
1134+982611251+984535271+985523950+986127728+986336350+986518333+988143133
1124+991575384+994249060+993847593+991893354+990905949+991007287+990587433
1114+987891245+982838927+978625284+979800497+987333464+996238676+1000296732
1104+998598750+994701863+991793533+991410392+995241016+1004160609+1014583519
1094+1019580678+1016314875+1008829665+1000692981+992371825+985658419+983249860
1084+983639737+981858136+976269335+970163591+966174286+963853411+962382317
1074+961903724+961749593+959896571+955729167+951758127+950709374+951939078
1064+952601293+951287544+949448964+948662839+948679890+949025106+948566538
1054+945638001+940564384+936328349+936031496+939501673+943710402+946955937
1044+950369862+954424460+957202507+957416469+956760930+957595964+959448865
1034+959515918+956672760+952625504+948682196+944626020+940713356+938787941
1024+940479187+944837980+948841788+950087027+948847977+947492783+948077750
1014+950969999+954518698+955153727+949672271+938951416+926971062+916512957
1004+908111581+901280089+895327869+889752903+884346267+878873670+873102401
994+867711906+863960714+861732621+859298818+855158053+849509906+843889733
984+839987869+838463921+838363676+838344379+837751827+836066406+832685552
974+827879903+822931774+818783788+815372229+812271236+809108228+805515414
964+801773507+799104868+798246957+798596602+799719993+802392394+807021825
954+812308677+816555270+819349640+821450545+824025310+827862305+832662615
944+837410192+841409266+844727376+848412061+854530427+864403383+876118743
934+885538531+890935458+894585980+899064315+904662703+910221103+914012284
924+914236258+910980529+906939645+904497408+903037903+900358038+896390639
914+893577033+893429639+894384518+893601609+890281497+886287398+884036004
904+884782807+888178346+892663174+896627418+899362563+901025410+902189822
894+903982952+907842096+913786610+919258904+921471462+921017263+920847295
884+922231798+923649372+923573278+922909911+923213924+924025049+924054844
874+923830930+924798978+926908985+928643497+929075062+928889317+929319000
864+930931907+933586529+937025091+940900376+944129830+944795624+941807863
854+936536607+932631831+933373052+938180583+943105349+945309109+945767556
844+947050963+950138303+954420637+958539618+960359447+958763592+955262650
834+952683394+952885099+955261497+957029141+956455824+955731048+958447686
824+964938028+971796644+975675145+976966441+979107457+984446251+991259296
814+996063246+999787617+1006468316+1014724239+1017391300+1011785204+1003972983
804+1000174520+1000665007+1001361445+997722938+988481674+977187139+968665189
794+964404882+962066896+958208055+951782642+944966624+940138280+937702961
784+936184413+933516806+928726509+923172964+919428508+918046068+916393536
774+912556056+909046982+910097314+916499668+924889635+931969678+937039897
764+940092709+941066642+941608525+944333901+950212758+958198710+965810320
754+969707996+968754998+964998223+959735341+952730847+946033946+943831279
744+947345692+953319151+957694814+958917115+958414978+959596502+964536864
734+971285101+975417553+973588924+966262335+958641137+956712931+960724930
724+965665474+969061923+973435522+978649192+978918495+973075561+967488277
714+965979560+965778827+963747341+961966711+962633112+963032334+959727028
704+954137680+950267796+949748850+950661557+950119552+948014338+946237653
694+945874355+946460414+946570307+945342362+942496292+937196090+928834158
684+919694473+914424127+915505285+921138444+927243399+931236891+933468322
674+934154019+929531992+913906577+888414821+869187491+872537883+891484381
664+909710774+920803969+924423422+922092535+918244920+916200327+913363784
654+906436416+898676440+894603760+894277355+895851547+899607230+906258438
644+910792660+906732601+896853273+889434023+886791781+883187498+876810326
634+875116714+883491329+896730090+904186477+898770436+883124693+868829472
624+863064938+863195342+863742747+863006744+863430663+866737669+871521412
614+876741817+883977021+892240954+895283996+891085826+885970885+883417905
604+880454659+875315566+870741962+869423662
##END=
