##TITLE=<SNM>
##JCAMP-DX=4.24
##DATA TYPE=INFRARED SPECTRUM
##DATE=29/4/2025
##SAMPLING PROCEDURE=Instrument type and / or accessory
##ORIGIN=Admin
##XUNITS=1/CM
##YUNITS=ABSORBANCE
##RESOLUTION=4
##FIRSTX=4497.3318
##LASTX=599.83466
##DELTAX=-1.4281778
##MAXY=2.0420411
##MINY=0.42454919
##XFACTOR=1
##YFACTOR=1.9017989e-09
##NPOINTS=2730
##FIRSTY=0.44060346
##XYDATA=(X++(Y..Y))
4497+231677206+232051952+233044779+234306152+234874274+234091653+232640540
4487+231857104+232217058+233074083+233517702+233081369+232019859+231164385
4477+231085907+231465668+231794876+232236693+233041488+233702238+233570292
4467+232863721+232405951+232607365+232954250+232475983+230865986+229085509
4457+228534969+229545942+230907811+231222617+230428494+229494417+229075479
4447+229092294+229275734+229389220+229166964+228708443+228652044+229454410
4437+230821795+232116092+232834025+232575366+231294498+229745742+229006607
4427+229389502+230205533+230621587+230460165+230096058+229736089+229195924
4417+228537398+228375082+229077454+230032310+230274405+229622289+228656009
4407+227864895+227396563+227265902+227335416+227371475+227164309+226424453
4397+224994637+223524281+223315109+224962544+227584595+229781737+230935893
4387+231190446+230671295+229336912+227499064+225929075+225141470+224908637
4377+224822966+225009508+225794981+226935754+227791290+228080052+228058458
4367+228152372+228529955+228928912+229003865+228735976+228208786+227372775
4357+226453491+226004293+226100479+226042389+225227000+223971942+223235581
4347+223700590+225144965+226676640+227660331+228179090+228474183+228476957
4337+228156979+227773864+227490493+227204786+226873792+226583165+226318693
4327+226043203+226005218+226526688+227334304+227624852+227056511+226190523
4317+225698215+225702478+226044818+226511723+226676609+226243552+225685522
4307+225876907+227015235+228357844+229108247+229301716+229537119+229978388
4297+230115553+229576186+228664769+227970890+227932670+228731212+230131254
4287+231466781+231997607+231314275+229643272+227891017+227023196+227271324
4277+228171537+229147784+229749958+229769326+229473121+229252808+228968606
4267+228265827+227436163+227196700+227708439+228475609+229135278+229676306
4257+229934071+229701488+229295338+229196002+229275609+229212801+229372578
4247+230270958+231447177+231904429+231449355+230744570+230376531+230587864
4237+231394696+232338489+232700778+232363515+231894416+231741440+231900574
4227+232162117+232142999+231412811+230094178+229001624+228796135+229260894
4217+229669693+229701410+229676447+229930545+230298068+230435499+230369448
4207+230471824+231088273+232185779+233136687+233070902+231872493+230619566
4197+230518161+231499674+232371554+232314372+231635397+230978156+230541072
4187+230345033+230569279+231185572+231707951+231682377+231214484+230801752
4177+230750180+230998073+231490350+232301507+233292123+234096918+234602216
4167+235012300+235290970+235009809+234033750+232992470+232704946+233269730
4157+233946261+233922113+233104264+232142293+231741267+232049837+232728718
4147+233350230+233514646+232935790+231774066+230650359+230133041+230340645
4137+230973424+231594857+232022022+232437230+232981924+233483226+233732075
4127+233732874+233609625+233448234+233133615+232434440+231476058+230770630
4117+230550192+230612169+230894350+231532033+232320750+232782672+232794598
4107+232681738+232748918+233092104+233731339+234501643+234927240+234678611
4097+234084523+233719257+233680817+233777755+233998084+234324816+234573727
4087+234734821+235019242+235390181+235478939+235097078+234582597+234498273
4077+235073040+236101015+237237055+238101978+238271377+237531349+236052389
4067+234254423+232765215+232263458+232931245+234231058+235406008+236009483
4057+236003058+235567745+234872660+234125971+233694105+233751037+233985657
4047+234149994+234452813+234952141+235261384+235228586+235166624+235260209
4037+235374526+235402545+235368023+235342903+235457204+235766150+236101516
4027+236261200+236290018+236409898+236714487+237075146+237354428+237555340
4017+237694307+237628067+237159454+236357245+235600825+235142476+234828688
4007+234562507+234749583+235740544+237128301+238207221+238847036+239312265
3997+239513365+239070703+238051659+237182834+237135901+237730412+238093970
3987+237720446+237029748+236684651+236814826+237182114+237690358+238378031
3977+239103485+239491521+239220216+238396083+237630465+237641293+238634433
3967+240044755+241041954+241406436+241667508+242178997+242474544+241971925
3957+240957505+240302364+240351084+240649499+240776635+240854518+241090674
3947+241297243+241260104+241272688+241806193+242784305+243601401+243783509
3937+243355263+242876636+243146750+244378177+245656505+245821015+244936771
3927+244112262+243997224+244195520+244192981+244364183+245445015+247192145
3917+248122039+246909699+243907291+240828928+239179644+239221046+240276837
3907+241932670+244540383+248309631+252350185+255195056+255902239+254261888
3897+250902896+247416909+245607613+246337048+248512660+249633358+248962766
3887+248328671+249063277+250440268+251579082+252761350+253448552+252221075
3878+249846149+248846412+250116404+252435292+254750544+256612634+256820912
3868+254986073+253035146+252622195+252914185+252241917+250845902+250169292
3858+251092181+254310702+260716810+267942960+268920179+262719042+254961125
3848+249681764+248141345+249745136+252895239+256163797+259154483+261785842
3838+263110963+262324597+260333726+258558483+257356674+256396066+255712640
3828+255618867+256121721+257440323+260441023+264762237+267065940+265392007
3818+262624815+261059667+259344144+256155366+253034582+252206736+254470761
3808+258553547+261795103+263328659+265000116+267687059+269309687+268417560
3798+266395301+264367933+262299462+260528543+259848126+260397365+261556143
3788+262674161+263506615+264211603+265287797+267270566+270090835+272781601
3778+274445067+275483714+277095090+280250427+285237813+291161988+296225502
3768+299619941+302152216+304737362+308121208+313524241+321603687+330783021
3758+338432340+344298471+350482025+358891932+369860409+381084160+389181251
3748+394473148+399772568+405955746+410835883+413180611+415099006+419182512
3738+426673245+436278317+443842890+446118887+444363969+441832509+440345025
3728+440100909+440391535+440266359+439639409+439236675+439275758+439399211
3718+439744935+441031366+443889745+448650723+454714115+459397335+460077815
3708+457759821+455836255+457003965+461457141+466550367+468998866+468389311
3698+467168634+467575757+469791485+472940930+477192362+483338213+489322093
3688+490443199+486027538+480014793+475907311+475092722+477364488+482030439
3678+488545740+494696637+496276735+493545945+491491091+492184421+492752951
3668+490395999+486441587+483353539+482087386+482460096+484068808+486586885
3658+489332310+491172446+491935917+493293492+497019866+502808051+507049235
3648+506022184+500989134+495333396+491023073+488988153+489580094+492295181
3638+496007232+499748555+503016031+505843320+509152354+514055966+519308593
3628+520935702+518266561+515027010+514543603+518032348+524019017+528822807
3618+530162455+529686570+529888972+531203735+532890079+534914970+537784382
3608+540940064+542567863+541678274+539736437+539465210+541972443+545725300
3598+549010859+552183528+555824184+558383004+558035117+555621406+553783057
3588+554070519+555836595+557790655+559609259+561837117+565174013+569125323
3578+571687653+571498854+569465312+567654982+567371219+568893899+571653240
3568+574084502+574673403+573215348+570543512+568017976+566936579+567263593
3558+567578133+567377612+567824350+569617379+571897138+573790898+575645983
3548+578190135+581192810+582949734+581794623+578396423+575247135+573745265
3538+572901685+571172592+568747160+567385824+568729233+573074062+578834886
3528+583034919+583555998+581001691+577555288+574881509+573505568+573185511
3518+573489709+574396221+576027781+577578105+577516551+575543873+573244934
3508+572395149+573600970+576170634+578681503+580285294+581356787+582346353
3498+583095157+584069304+586367554+589388218+590697653+589300400+586522943
3488+583643377+581182154+579404481+578041139+576754019+576046335+576400679
3478+577164965+577538615+577718450+577978896+578151084+578598699+579869459
3468+581615978+583117284+584062911+583996906+582336826+579631141+577762265
3458+578321330+580887358+583144426+583087510+581016923+578908413+578199663
3448+578568486+578628035+578043020+577932448+578486059+578066463+575811778
3438+573669357+573837721+575697194+576928840+576261649+574038242+571302344
3428+569196969+568318600+568076145+567322953+565992081+565341626+566231026
3418+568258363+570675458+572617985+572696589+570392384+567427821+566179752
3408+567331792+569832819+572255054+573492279+572992199+571243235+569980436
3398+570707301+572781774+573849631+572753316+571057570+570827901+571981007
3388+572867335+572975463+573573014+575368049+577162520+577635271+577116512
3378+576692653+576912731+577925804+579632582+581243269+581479331+579777629
3368+577469413+577184459+580153849+584259545+586036027+584771410+582805251
3358+582096564+582702766+584059714+585786300+587314371+587904150+587448261
3348+586835728+586923170+587324651+587322645+587438420+588580806+590489234
3338+592329150+593924354+595157504+595276601+594057554+592701985+592576808
3328+593734238+595062227+595334394+593989293+591417435+588803767+587505114
3318+588328823+591091173+594266850+595578667+594204983+592042942+591558094
3308+592874298+594179784+594448567+594232124+593937517+593002233+591231393
3298+589541852+588812292+589034376+589851315+591203061+593096696+595118516
3288+596521786+596948403+596913551+597300302+598305225+599141408+599015793
3278+598147893+597646559+598327854+599584071+599992447+599252607+598639949
3268+599254801+600487387+600724954+599528535+598260533+598237215+599099098
3258+599508727+599020055+598350169+597842755+596918503+595424970+594328969
3248+594340816+594857444+595182452+595824069+597660725+600261856+601943750
3238+601612912+600031436+598961573+599042872+598742435+596327534+592719598
3228+590680352+591282354+592712014+592913663+592121859+591831577+592490933
3218+593253590+593369740+592979605+592554618+592134458+591419064+590484846
3208+589958941+590035789+589997553+589290183+588279742+587532945+587029041
3198+586539491+586123092+585747061+585284339+584997944+585204043+585563966
3188+585529302+585266726+585181603+585115097+584894580+584755300+584575840
3178+583616487+581498010+578801289+576484172+575196049+575163078+576136911
3168+577222570+577172487+575255221+571831760+568099588+565403619+564352435
3158+564214409+563714015+562773090+562702635+564240673+566268322+567125441
3148+566500310+565209805+563819196+562480927+561446292+560738294+559935772
3138+558896686+557890446+556790433+555215412+553538659+552784652+553543861
3128+555363907+556946010+557136439+556135276+555227447+554950015+554426805
3118+552880055+550814231+549272496+548638965+548576408+548621226+548429731
3108+547733580+546588499+545424926+544495409+543715577+543250474+543508537
3098+544385213+545197639+545259256+544194220+542288989+540608725+540004341
3088+540098239+540035432+539846193+540104633+540835321+541544949+541883559
3078+541813292+541363483+540553251+539605054+538927834+538589537+538079114
3068+537013075+535802114+535101701+534962922+534888518+534323311+533060700
3058+531503168+530385855+530140453+530589134+531053924+530774172+529655542
3048+528564556+528257412+528303985+527861008+526996180+526415991+526276461
3038+526027361+525298145+524331144+523549463+523168229+523187629+523373514
3028+523313903+522762423+522058469+521895338+522330730+522404319+521329661
3018+519744235+518868500+518836782+518818197+518240422+517007272+515261849
3008+513704036+513180638+513470669+513393256+512405977+511174425+510304331
2998+509514627+508380828+507136646+506413166+506540254+507190615+507647068
2988+507566584+507371015+507462500+507326824+506149774+504141274+502439071
2978+501851737+502288226+503061068+503303681+502436094+500652059+498807285
2968+497632805+497181712+497010839+496787659+496565481+496475626+496549905
2958+496866889+497398154+497653428+496927221+495106110+492955853+491353723
2948+490433890+489801519+489377536+489516220+490321908+491277282+491639805
2938+491080052+489901310+488675994+487762837+487303062+487450522+488178610
2928+488990346+489228571+488775158+488200360+487920452+487416266+485898068
2918+483604990+481623944+480630616+480545055+480972612+481363342+481257566
2908+480761027+480306423+479932021+479296014+478318107+477376272+476797526
2898+476368496+475661220+474839234+474582801+474992179+475222663+474623294
2888+473624011+472974747+472673151+472210492+471440596+470586893+469759642
2878+469096494+468959596+469347223+469548653+469013565+468187505+467927530
2868+468383764+468903526+468912302+468555075+468305944+468148548+467575788
2858+466461295+465396729+464896273+464739253+464409231+463734110+462774725
2848+461631273+460666466+460295793+460369727+460394079+460310774+460350860
2838+460250066+459388748+457786367+456388236+456099678+456732362+457155845
2828+456550427+455214540+453922374+452991447+452337513+451910301+451651987
2818+451397371+451086968+450800729+450477914+449921169+449137013+448363606
2808+447785549+447413623+447177123+447019602+446890508+446652503+446092122
2798+445183666+444231458+443522740+443056728+442794370+442774532+442788854
2788+442402230+441544202+440686487+440212201+439949029+439529903+438943134
2778+438465807+438201194+437948552+437516138+436983400+436552302+436257695
2768+435949705+435414084+434460591+433150153+431939819+431307322+431279303
2758+431572594+432043120+432595351+432791704+432117398+430654861+429089651
2748+428027435+427485327+427033951+426357201+425564613+424904818+424423010
2738+424114111+424099977+424356034+424489986+424069795+423111758+422111472
2728+421584094+421559836+421591772+421277671+420635772+419929216+419304336
2718+418683717+417879659+416783469+415578933+414776066+414864417+415816688
2708+416986686+417579473+417227700+416190087+415115397+414536337+414424606
2698+414268057+413695077+412909980+412319544+411896532+411251875+410247765
2688+409203007+408521963+408349649+408549355+408821553+408851860+408511181
2678+407933595+407359863+406954151+406715300+406445703+405927539+405259815
2668+404813861+404724946+404691254+404426170+404028137+403708269+403426919
2658+403020455+402488125+401949276+401485740+401183391+401094696+401036527
2648+400726970+400199121+399774385+399645824+399745865+399932627+400098391
2638+400166056+400050752+399621346+398842706+397970073+397352213+397047702
2628+396838092+396537875+396161780+395876168+395815711+395910205+395960539
2618+395839530+395494558+394891491+394127549+393463022+393111248+393081662
2608+393256671+393515236+393741739+393792418+393585284+393245138+393003027
2598+392892957+392693376+392200473+391455305+390712550+390257821+390222593
2588+390497456+390787205+390777583+390366543+389778959+389338646+389141761
2578+389089609+389080301+388974493+388627953+388162976+387945060+388156425
2568+388612753+388986747+389008373+388574579+387888771+387363305+387236875
2558+387392170+387554298+387515529+387190615+386641329+386096651+385806494
2548+385808030+385925685+386019050+386104737+386230478+386386149+386556363
2538+386701943+386709622+386535929+386361139+386417835+386691914+386941484
2528+386986709+386854011+386629608+386350107+386120595+386112290+386276612
2518+386284604+385966459+385605346+385579396+385901144+386251664+386310241
2508+386018204+385636813+385483116+385574162+385688996+385724035+385713693
2498+385606036+385343365+385069851+385007858+385201797+385478070+385583752
2488+385415419+385164846+385089000+385141716+385058568+384775149+384508028
2478+384436790+384524608+384653170+384767001+384843003+384846075+384798969
2468+384789660+384817209+384782828+384728482+384832723+385057847+385101662
2458+384813166+384387898+384078341+383936835+383841777+383609351+383164150
2448+382740542+382767840+383390872+384206181+384622142+384457036+384078153
2438+383949466+384160674+384450047+384585128+384572153+384518684+384480103
2428+384483739+384554946+384663669+384750202+384851747+385101160+385514488
2418+385876322+385981002+385925026+385968810+386137175+386190204+386028233
2408+385883750+385992755+386253357+386403105+386457388+386716486+387307204
2398+387973831+388401545+388517632+388422512+388291568+388426618+389128598
2388+390322446+391440512+391886685+391581234+390889910+390138536+389427279
2378+388803997+388348390+388114083+388174039+388653371+389556499+390625610
2368+391535068+392248394+393003529+393842438+394421028+394512701+394458512
2358+394857047+395880587+397033254+397785129+398322818+399048022+399674344
2348+399633664+399135934+399343601+401035336+403394701+404969815+405179989
2338+404511356+403834229+403584033+403551814+403453403+403322396+403259244
2328+403209850+403019296+402448071+401374103+400173265+399584270+400017217
2318+401052511+401668584+401194486+400090963+399410984+399518297+399893451
2308+400113027+400283116+400478465+400482038+400246478+400111241+400370589
2298+400917336+401466496+401956861+402521190+403114792+403481829+403584033
2288+403748323+404208067+404773682+405119093+405120911+404792016+404170740
2278+403424757+402851934+402646524+402777436+403119023+403546517+403866166
2268+403824451+403338004+402668431+402254007+402360943+402940880+403764495
2258+404606602+405351488+406017614+406666188+407262674+407713235+408060150
2248+408493850+409084913+409636205+409906773+409861736+409607966+409220495
2238+408740254+408222404+407653749+406923123+406052026+405379695+405264077
2228+405608329+405954022+406078165+406195067+406497823+406866834+407175733
2218+407552799+408153046+408924352+409777303+410807456+412181862+413890834
2208+415760023+417672933+419635487+421627376+423551568+425400793+427341251
2198+429498904+431771705+434021595+436311539+438714029+441034187+442993074
2188+444573422+445968544+447306719+448578575+449764871+450934430+452139969
2178+453219986+453896047+454125026+454121265+454030000+453847594+453632029
2168+453538319+453594639+453565680+453131886+452176544+450767852+448951536
2158+446777805+444393273+441919795+439399743+436874082+434355598+431874253
2148+429547013+427370117+425320685+423975333+424273513+426304767+429153932
2138+432112352+435154924+438278293+441317574+444335041+447537202+450891900
2128+454066073+456710800+458896879+461223524+464278569+468076495+472111924
2118+475784924+478801858+481343472+483836883+486626562+489905697+493704500
2108+497814741+501942063+506089693+510813782+517037391+525269249+534739773
2098+543639919+550628692+555824873+560016820+563496131+566141892+567998356
2088+569045841+568812976+566823688+563130568+558150390+552367501+546260482
2078+540270491+534841507+530278229+526316515+522312677+518192564+514635715
2068+512091813+510138975+507951736+505131248+501959237+498886766+496048634
2058+493429983+491075131+488874008+486634272+484473736+482649679+481104276
2048+479583633+478012718+476626685+475903926+476128830+476954232+477910138
2038+479268497+481797888+485885281+491406878+498189080+506195313+515357440
2028+525368005+535622153+545338048+553750713+560461552+565830047+570629449
2018+575030567+578350602+580011623+580263794+579777191+578853190+577177313
2008+574337927+570426045+565875554+560944394+555729471+550392191+544986149
1998+539446092+534060798+529454583+525811169+522642825+519596180+516938164
1988+514991250+513692189+512876252+512472389+512363541+512427227+512661910
1978+513072260+513563188+514021710+514433784+515045721+516365874+518617990
1968+521224919+523339979+524856861+526278466+527777453+529211375+530856850
1958+533195530+536030842+538655166+540874310+543146797+545774254+548605680
1948+551544732+554886267+558921007+563239823+566726342+568665485+569598888
1938+570635843+572444167+575054324+578072481+580992101+583551360+585753392
1928+587641573+589359196+591222868+593400266+595785582+598385396+601359049
1918+604428354+606738764+607759484+607917067+608046695+608635408+609621715
1908+610665063+611521179+612211312+612933288+613914706+615353643+617231419
1898+619023195+620013576+620156931+620299095+621322008+623141177+624521944
1888+624198816+622368115+620395500+619372712+619547784+620514534+621500089
1878+621901883+621785670+621580699+621561706+621990579+623117107+624418330
1868+624418644+622297722+619038552+616102885+613953694+612188684+610548850
1858+609276022+608447298+607562912+606142404+604392813+602970738+602358206
1848+602739001+604001863+605164183+604352947+601035733+597185906+594784043
1838+594013613+593800619+593264058+592578312+592371210+592502467+591954121
1828+590305951+588233044+586047372+583384687+580450023+578040951+576385510
1818+575091306+574027273+573521426+573790960+574603199+575393749+575659397
1808+575367172+574906770+574787109+575510464+577236674+579214554+580226811
1798+580158550+580319644+581958600+584919340+587291429+587090156+585060501
1788+583700606+584294710+586320730+588674579+590799637+592636105+594288100
1778+596080628+598488133+601933721+606342799+610291664+611833149+611097384
1768+609679947+608526904+608225966+609436927+611839543+613949307+615157698
1758+616218158+617335158+618252264+619783407+623140236+627921523+631919719
1748+633696764+633990557+634106895+634798157+636318581+638334822+639979357
1738+641233381+643738357+648676788+653764529+655152693+653682980+652327222
1728+651748727+651474993+651589513+652409963+654075183+657082183+662304816
1718+669539805+675831361+678043485+676963593+675180718+674326796+675183476
1708+678113062+682478828+686570922+689870083+694060213+700003380+705133306
1698+707094701+707350257+707260308+706900072+707172302+708944709+711700978
1688+714786268+719130659+725585314+731178589+731911346+729763910+728760741
1678+730544995+734525138+738680855+741679392+744734908+749349710+754239124
1668+756540257+756422727+756571410+758286839+760628527+762199348+763077465
1658+764457606+767873984+774948443+784521673+788712303+785068827+781937779
1648+783100600+784966780+782401880+776712889+772145161+770246888+771289171
1638+775725579+782018577+784157363+778681806+771167003+767011349+766424015
1628+766831137+766410476+765591029+765115019+764771206+764655244+765586453
1618+767510363+768407975+766421069+763146792+761287444+761501379+762593745
1608+763078907+762531878+761504827+760737093+760763044+761759694+763458449
1598+765243768+766486321+766998060+767249229+768087982+770082034+772907317
1588+775450905+776854238+777338272+777615829+777987912+778707505+780533255
1578+783690630+785997968+784115115+779226202+775771275+775667034+777346483
1568+777930432+776709567+774953834+774101541+775922590+782070791+790311770
1558+791453905+783511797+775381390+771553314+771362885+772270213+772243949
1548+771532128+772082479+775077506+779752421+784710785+788821371+789928467
1538+787354916+784388911+783692635+784998121+786378826+787289789+789217398
1528+793022657+797972622+803388067+809855886+817200757+822844052+825315744
1518+826484394+827627282+828556861+830364057+835013460+842744392+852144744
1508+861702553+868563015+869180624+865834200+863397360+863989457+867516720
1498+872573058+877199832+880464895+883405764+887849130+894519351+901290302
1488+904340239+903428273+902427047+904264079+908569795+913399661+918053890
1478+923504374+930440305+938164154+944895740+948436480+948332302+947027443
1468+946823662+947984916+949419465+949892717+949576798+950174098+953202472
1458+957617882+958653019+953818264+946897628+940889333+936248643+933118598
1448+931678157+931714450+932679257+933951271+935202599+936816232+939587483
1438+943308936+945759253+945069120+943168465+943171160+945649809+948841659
1428+951135583+952583358+953609720+954142959+954526512+955495958+956528149
1418+955933418+953869601+952405466+951995648+950851256+947662791+943498111
1408+940765911+940877173+942808856+944463859+945663098+948256582+953097730
1398+958365871+961549196+962033104+960560945+958125045+956369876+956723655
1388+958880055+961006993+962055857+963311135+966464560+971168058+975390030
1378+977872691+979518354+982097797+986251633+990990296+994671256+995997240
1368+995036256+993895374+994848460+997774536+1000910097+1003435194+1005752436
1358+1007733450+1008610126+1008415121+1008054259+1008153422+1008808766
1350+1010078523+1011824792+1013614061+1015360016+1017242744+1019126788
1341+1021213297+1024580343+1029526422+1034460968+1038131522+1041205090
1332+1044556467+1047873305+1050454064+1052165795+1053367917+1054743545
1324+1056810183+1058913302+1059686552+1058768255+1056803413+1054584708
1315+1053340462+1054276812+1057217493+1061233553+1066130176+1071216350
1307+1073741823+1071477610+1066512413+1063401988+1064200060+1067190010
1298+1069131408+1067786746+1063656478+1060020900+1060180866+1063663123
1290+1065673848+1061909019+1053134112+1042927540+1033812957+1027170818
1281+1023756258+1022629668+1020900010+1016393335+1010625114+1007100107
1273+1006967033+1007680233+1006169211+1002533445+999128287+996726737+993385891
1263+987143228+978980038+971702237+966353048+961512150+955636053+948966146
1253+943178682+939186754+935600820+930192083+922499388+913753628+905039084
1243+896749214+888846532+881036746+873521881+867189895+862207899+857428680
1233+852036679+846673700+842357704+839361737+837410873+836242348+835765962
1223+835840680+836079312+836102379+835875907+835699770+836137794+837909825
1213+841240830+845200977+848328515+850046325+851119448+852875181+856091101
1203+860465454+865042396+869168464+872889165+876382454+879652719+883034747
1193+887023353+891272529+894628167+896349802+896958385+897860949+900119395
1183+903525305+907313327+911737449+917691523+924721165+931400286+937934799
1173+945899849+955377238+964643574+972442955+979104901+985159518+989530737
1163+990021853+985989120+980496513+977889741+979395873+982953662+987247030
1153+993293748+1000934355+1006843110+1008089925+1005843200+1003170486
1144+1000742735+997556338+994391756+993692972+996816248+1002852498+1009126629
1134+1012717514+1012937530+1011841904+1012178634+1015002663+1018730447
1125+1021024936+1022151715+1024597769+1028975381+1033080075+1035418629
1117+1036985500+1038026404+1036170003+1030510348+1024752031+1023197758
1108+1026064850+1029514325+1029228242+1024591250+1019496175+1018614109
1100+1022505933+1027683560+1031086587+1032203712+1031264166+1028315461
1091+1024584104+1021973947+1021516554+1022935683+1024233459+1022188823
1083+1016234686+1009785170+1005086373+1001242501+997699944+995963391+997208577
1073+999873205+1000538829+997924974+994208911+992309572+993541720+996587645
1063+998617112+997839161+994717641+991055737+988039335+985928694+985075148
1053+986162812+988892066+990697820+988521488+982917307+978320055+978436895
1043+982962313+988343971+990980706+989752319+986039328+981719572+978030024
1033+976126485+976303500+977242044+977834142+978569782+979652369+979936634
1023+978480961+975214457+971148940+968942457+970801930+975668653+980778897
1013+985203835+988767140+988618332+981975504+971650023+963049185+956994631
1003+949639668+938985920+928071037+920714820+917121114+914170090+908984000
993+902035407+896194161+892728390+889928180+886151942+881949465+878613195
983+876577334+875226089+873304812+870211060+867029616+865032304+863578637
973+860964092+856828559+852204417+847844043+843927647+840808509+838716359
963+837036597+834936236+832469559+830534491+830094460+831538537+834544784
953+838529566+843288162+848838185+854452521+858750715+861726937+865678936
943+872660374+881739040+889969738+895717838+899712273+903445761+908354481
933+915520707+924265652+932142007+937726819+941478234+943787014+944871169
923+945663599+946847356+947173994+944372154+938416952+932530136+930147578
913+931433069+933119100+932019462+928576319+925720698+925129540+926310915
903+928327219+931109314+934957198+939312495+942383430+942713892+941570315
893+942013479+945088739+948524110+949973640+949716580+949292721+949684110
883+951466108+954916585+959384209+963622165+967173059+970583294+973816013
873+975249998+974130051+972955948+974157694+976109436+975237587+971194071
863+967786469+968804117+973734212+977670164+976955836+973895055+973159039
853+975300833+976217375+973139921+969104868+969233931+974115760+979427465
843+981714432+981845187+982424811+984527868+986837588+986994545+984865350
833+983976827+987852667+996231296+1006001473+1013414166+1016098414+1015116495
823+1013519786+1013236901+1014631333+1017108353+1018650778+1017314390
814+1015012379+1016636542+1024046603+1033296517+1039131871+1040282657
805+1037919468+1032469486+1025633219+1020331794+1017211089+1015815403
797+1017146902+1021372322+1025354032+1025258316+1020567480+1013740679
788+1008014894+1004888234+1002150894+996781647+989751692+984231255+980015300
778+974270272+967305883+962687445+961827067+961562296+958130749+953170066
768+952210712+957718863+966464999+972998446+975308606+975471266+975309170
758+975809814+979211712+986697054+994785338+998013606+995644902+991267791
748+987695271+986513646+989022947+994198819+998430883+999380647+997695681
738+994455190+990130670+986696553+987254113+991713275+996397279+999598969
728+1003012025+1005901181+1005010527+999764890+991790374+983815044+980224660
718+984927092+996908453+1009071970+1014491489+1012809532+1007918363+1003688431
708+1002882335+1005687372+1008188085+1004845735+995770768+987310276+984785242
698+987416774+989414524+987847966+985739080+985768290+985613464+981760754
688+974925178+968777477+966137922+968413293+976073895+986261976+992095449
678+990275341+986519036+986488949+986475033+977860907+957736916+932002288
668+913425235+913791363+929143407+947135821+959824490+962968701+957991594
658+952854648+953211875+956217871+956392567+953451635+949527968+944505605
648+938513420+934210274+933361743+933733199+931625692+926837761+923768016
638+925541928+930457668+935733331+941161437+946613864+947270462+938409931
628+924865083+916322728+915381740+914872321+907376322+895684930+887904918
618+887326297+892234703+899689394+906334040+910214330+912574510+915137342
608+915307900+907482820+892548679+877380734+867244428+862008694+859289595
##END=
