##TITLE=<SNM>
##JCAMP-DX=4.24
##DATA TYPE=INFRARED SPECTRUM
##DATE=29/4/2025
##SAMPLING PROCEDURE=Instrument type and / or accessory
##ORIGIN=Admin
##XUNITS=1/CM
##YUNITS=ABSORBANCE
##RESOLUTION=4
##FIRSTX=4497.3318
##LASTX=599.83466
##DELTAX=-1.4281778
##MAXY=2.109669
##MINY=0.37630013
##XFACTOR=1
##YFACTOR=1.9647823e-09
##NPOINTS=2730
##FIRSTY=0.39691904
##XYDATA=(X++(Y..Y))
4497+202016801+203646736+203278633+200930298+198475574+197273368+197095111
4487+197066018+196827907+196688495+197025974+197835322+198830056+199565914
4477+199535517+198774950+198243409+198879247+200461918+201919906+202471060
4467+202064854+201059911+199914313+199051710+198670547+198580948+198457463
4457+198319675+198512994+199126990+199795227+200257328+200643785+201016272
4447+201180650+201127228+201127622+201192330+200885795+199967994+198849229
4437+198139400+198068670+198477288+198954178+198957227+198306569+197496448
4427+197091440+197049985+197003980+196751717+196104775+194875494+193418007
4417+192620961+193018369+194236698+195383540+195756603+195258083+194383178
4407+193844159+194046989+194826091+195681824+196278892+196642263+196897302
4397+197003009+196824054+196403636+196036094+195981624+196142544+196178023
4387+196016102+196006455+196383841+196840057+196861732+196327188+195598459
4377+195108342+194853000+194450389+193844372+193524245+193764177+194162010
4367+194344166+194538077+194947392+195168242+194746231+193904453+193297708
4357+193264990+193592851+193904316+194027043+193898249+193439091+192903242
4347+193020584+194138681+195514548+196104229+195701512+194813365+193986483
4337+193579321+193529509+193264110+192445631+191606599+191522551+192324270
4327+193552140+194657572+195322655+195571915+195588797+195482149+195396918
4317+195493935+195579241+195290786+194792115+194575087+194634107+194660788
4307+194836891+195560796+196587354+197249342+197384688+197359342+197294437
4297+196924756+196271126+195891009+196225773+196992953+197395351+196966075
4287+196224605+196174549+196988994+197732466+197661023+197094155+196679152
4277+196624106+196897696+197427887+197896662+197904186+197462987+196978634
4267+196751884+196800483+197124006+197728628+198253662+198101616+197293876
4257+196635498+196702996+197296318+198011926+198660187+199104814+199326301
4247+199570297+199962639+200230936+200169625+200104903+200520573+201365127
4237+202061486+202193147+201858808+201326235+200739360+200245861+200031958
4227+200164028+200578152+201122586+201531234+201586917+201421750+201415501
4217+201732214+202206116+202625670+202858806+202791929+202441542+202030270
4207+201722036+201489795+201424738+201783801+202505567+203054415+202959341
4197+202313112+201606014+201192133+201090930+201289073+201870988+202643098
4187+203103667+203056205+202768979+202459213+202203613+202185775+202381127
4177+202377866+202075471+202027085+202658403+203640881+204295088+204311925
4167+204023106+204120061+204994405+206236124+207025329+207154562+207211746
4157+207455546+207201007+205933153+204304705+203327004+203306770+204075967
4147+205344170+206403870+206493636+205769549+205088494+204868387+204919398
4137+205127507+205502496+205766697+205615378+205308980+205434118+206064905
4127+206594611+206494925+205948064+205547045+205538324+205578626+205277232
4117+204776225+204588791+204979404+205667254+206083289+205859254+205151654
4107+204548731+204658610+205762283+207649260+209547324+210492352+210228076
4097+209479355+208985735+208616691+207775126+206423968+205265507+204985426
4087+205658350+206882353+208200762+209227805+209604281+209238726+208611397
4077+208418078+208760122+208999280+208576541+207647970+206709541+206001380
4067+205582706+205622811+206217073+207089126+207785304+208081616+208058696
4057+207888873+207627690+207220999+206713742+206282767+205919608+205386353
4047+204769885+204663449+205393179+206436724+207036963+207042014+206820208
4037+206693386+206709723+206777601+206921229+207319047+207900628+208198411
4027+208063550+208137950+208945372+209942199+210273201+210031692+209912227
4017+210044100+209951225+209393366+208634347+208039235+207826015+208108645
4007+208918494+210158559+211562882+212730701+213258632+212925583+211901028
3997+210749317+209979362+209572564+209224908+209000645+209268911+209985929
3987+210615533+210876640+211023954+211206565+211145497+210727111+210369383
3977+210496144+211040578+211604276+211809230+211542284+211129874+211096762
3967+211531150+211943939+211955528+211769625+211721193+211747374+211663857
3957+211612482+211794335+212075402+212285513+212563486+213004048+213325009
3947+213230298+212836591+212556888+212708738+213184733+213586403+213801853
3937+214108768+214687194+215440207+216187244+216622330+216369308+215520022
3927+214776232+214768617+215390197+215949967+216033331+215907192+215985369
3917+216186197+215992483+215143501+214058257+213434766+213418430+213490085
3907+213546238+214442849+216699749+219223868+220545554+220688409+220410526
3897+219775992+218561758+217171421+216448138+216618887+216680409+215885168
3887+215254608+216176838+218176439+219597735+220204207+220643632+220614281
3878+219760445+219024026+219446781+220824104+222442375+223996059+224811444
3868+224073023+222364258+221147734+220940262+220908136+220233103+218913723
3858+217443934+216861275+218891698+223843482+227780251+227529747+224552749
3848+221417668+219768454+220057212+221593953+223328307+225025195+227073850
3838+228947888+229231747+227874385+226289105+225346944+224841325+224561805
3828+224671608+224977066+225108181+225551761+227011054+228620436+229191506
3818+229609421+230830527+231461253+229860471+226991699+225070836+225573042
3808+228239167+230831240+231645062+231851138+233246496+235179433+235751792
3798+235050669+234191585+233571537+233219466+233391565+234301251+235853389
3788+237850047+240091445+242219718+243950705+245557099+247563662+249916365
3778+252046670+253783345+255533064+257904560+261507628+266366081+271440045
3768+275831710+279879936+283992778+287962644+292205418+297991865+305597381
3758+313380304+320021422+326389299+334372746+344797404+355609094+363314265
3748+367738603+371505245+376214169+380583143+382944719+384410549+386928965
3738+391358612+397243167+403244882+408097420+411063148+411876136+411107742
3728+410282983+410801829+412511231+414048594+414549875+414043437+413038055
3718+412331396+412454926+413433218+415397993+418586845+422208782+424899934
3708+426775156+429041657+432339934+436283954+439804840+442023652+443266934
3698+444453698+445597688+446065871+446476476+448901819+454059724+459118520
3688+460677240+459301297+457531587+457003155+458267368+460317207+461316734
3678+461130893+461125948+461084174+459605937+457662883+457586132+459379566
3668+460534537+459957931+458855684+458445019+458961195+460349272+462654544
3658+465266973+466825450+466767538+466339520+467364257+470745959+475274139
3648+477721355+476902178+475056323+474421501+475119635+475854052+475964052
3638+475922643+476043837+476220304+476586951+477467984+479295577+482356107
3628+485444485+486780505+487082020+488493153+491952153+496741226+501325195
3618+504054540+504348896+503765039+504466814+506744722+509212931+510896546
3608+511730255+511953956+512254773+513951312+517950392+523163965+526794335
3598+527336510+526304340+526004069+527033872+528623748+530211622+531735304
3588+533146801+534204393+534542099+533991673+532908842+532422123+533650084
3578+536389896+538941864+539391208+537342038+534525717+533423410+535311251
3568+539212587+542615070+544076379+544129954+543431000+542230099+541377583
3558+541892879+543469164+544855118+545435637+545563233+545970591+547406479
3548+549995276+552711546+554261682+554306822+553090510+551062696+549521905
3538+549781525+551260733+551954347+550957186+549137966+547715911+547055243
3528+546439351+545110915+543241154+541602376+540796274+540889225+541513733
3518+542057424+541985223+541181548+540010862+539423729+540481867+542795208
3508+544378652+544100467+542831612+541742955+541256540+541738223+543550951
3498+546253388+548640083+549584459+548906498+547560225+546723908+546628712
3488+546656014+546624222+547122893+548148207+548538395+547378205+545126993
3478+543075092+542227915+543077701+545427143+547894654+548706459+547230467
3468+544405166+541900220+540844267+541070092+541555658+541829172+542727557
3458+545105819+548017396+549031909+546733737+542264743+537902414+535038222
3448+534221502+535722674+538613501+540504922+539907354+537613003+534699181
3438+531656672+530110480+532046860+536335047+538766215+536907497+532751092
3428+529521649+528329363+528813109+530834249+534051679+536683128+536581805
3418+534059809+531819033+531688343+533029642+534253720+534481365+533622842
3408+532276083+531682700+532750910+534916451+536402212+536053646+534635475
3398+533759053+534101188+535154472+536097270+536236575+535086700+533108577
3388+531913197+532682349+534944179+537178645+538157301+537837372+537375954
3378+537987052+539444115+540303185+539924585+539297468+539389024+539858633
3368+539961656+539883024+540578943+542654568+545665103+548314512+549481193
3358+549153802+548203177+547465211+547359154+547799580+548216525+548504904
3348+549394795+550884014+551673249+551138416+550488123+551198483+553218955
3338+554929267+554501886+551684595+548327556+546716748+547655238+550101514
3328+552331915+553470323+553728487+553462921+552790846+552109367+551985048
3318+552412428+552937675+553276837+553250202+552669985+551594374+550257323
3308+548874888+547917346+548174721+550040538+552939859+555715893+557434699
3298+557636012+556091519+552966070+549372831+546869098+546058688+546378617
3288+547343500+549240382+552189334+555180028+556858305+557134974+557091047
3278+557327490+557334588+556377835+554508621+552848364+552699958+553958438
3268+554962576+554469001+553043731+552205594+553003505+555357012+557976388
3258+559275154+558931381+557882830+556739507+555245009+553158221+550789061
3248+548839455+548129216+549050597+551012338+552688915+553339148+553569827
3238+554210049+555003470+554992124+553736739+551644611+549559037+548668781
3228+549986114+553007267+555487277+555570884+553914328+552399505+551311152
3218+549582638+547253462+545595268+545136883+545398566+546230818+547951384
3208+550158608+551330871+550004862+546401734+542514898+540134635+539273685
3198+538873971+538306071+537638122+537130167+536970961+536991226+536459912
3188+534829325+532752669+531746043+532583634+534257603+534782728+533149531
3178+530248633+527775236+526879763+527604381+528860009+529225443+528220212
3168+526482415+524658038+522848829+521265931+520552841+521038103+522156611
3158+522950881+522949728+522280869+521093316+519321117+517068389+514893746
3148+513562277+513536005+514567689+515680979+515887752+515057321+513775178
3138+512574277+511684932+511236255+511218053+511270292+510856017+509847631
3128+508743443+508087294+507803163+507269634+506159015+504916006+504168484
3118+504033608+504151071+504079811+503606713+502909610+502375991+502062554
3108+501588758+500792971+500022878+499530578+499142816+498703938+498294668
3098+497967944+497703713+497411026+496827534+495911432+495157873+494937356
3088+495008253+495094773+495136940+494754427+493391044+491166346+489031019
3078+488061677+488655332+490165999+491462491+491970203+491860263+491352309
3068+490369133+488886769+487286397+486238058+486032437+486140738+485999765
3058+485898016+486234873+486472013+485896226+484790248+483777190+482760250
3048+481519183+480658354+480852205+481536081+481461362+480351652+479111586
3038+478510377+478344406+477981612+477208092+476343076+475806241+475753516
3028+475957590+475911934+475258819+474238905+473427404+472967350+472473654
3018+471746973+471096983+470832813+470839578+470800262+470608110+470463921
3008+470576348+470837333+470921608+470587603+469721829+468325075+466689603
2998+465315420+464474189+464051116+463871311+463862696+463800900+463279203
2988+462089193+460476413+458960285+457976199+457653509+457799458+458060686
2978+458124544+457840473+457388762+457317289+458020854+459191024+460107612
2968+460282229+459579362+458219588+456799597+455653817+454380017+452694430
2958+451219195+450640405+450680480+450539384+449974701+449562549+449952828
2948+450980568+451743046+451676670+451141413+450617774+449954193+448922024
2938+447859518+447131290+446505751+445710752+445095770+445065494+445346744
2928+445409723+445120343+444568309+443799188+442931988+442135867+441500317
2918+441106003+440940457+440742572+440282731+439641842+438964518+438215237
2908+437360475+436601213+436265357+436381121+436520700+436415250+436440217
2898+436951964+437534485+437495078+436655242+435320405+434013721+433248725
2888+433043923+432887174+432474446+432048794+431924961+432107799+432322824
2878+432172962+431511413+430760372+430482915+430667603+430820044+430666178
2868+430322070+429824248+429038745+428101741+427417289+427039083+426531432
2858+425676398+424861832+424453108+424181687+423612999+422946597+422726566
2848+422915532+422960491+422690587+422389103+422118744+421703103+421198061
2838+420854621+420764400+420799105+420763278+420581866+420403335+420325310
2828+420062231+419266201+418102098+417122047+416652711+416582482+416668334
2818+416774664+416801056+416612909+416145788+415414314+414419215+413298554
2808+412455533+412155747+412141398+412017959+411802084+411756034+411949793
2798+412202860+412205560+411678645+410650450+409452006+408345390+407428439
2788+406818796+406514369+406217921+405666343+404941543+404279539+403825614
2778+403585561+403370991+402908693+402198636+401608136+401454118+401591208
2768+401529140+400998949+400291562+399870582+399761462+399556235+398930211
2758+397964478+397021225+396340868+395772119+395104807+394562602+394508452
2748+394817793+395091065+395255215+395382143+395203856+394400029+393193637
2738+392199934+391759266+391669379+391542087+391246973+390918945+390637088
2728+390265496+389652061+388917706+388437448+388417365+388536194+388212624
2718+387298039+386302486+385770929+385633808+385392572+384775861+383964815
2708+383296410+383004755+383157651+383585305+383877324+383617189+382698629
2698+381409024+380187555+379308433+378807638+378626832+378680103+378814979
2688+378863578+378719207+378307025+377589263+376676710+375855743+375401545
2678+375338779+375429880+375404184+375147689+374704807+374190967+373703065
2668+373320915+373221321+373567218+374119039+374271722+373695298+372636251
2658+371537462+370714584+370286233+370095022+369866284+369556973+369293683
2648+369078081+368866666+368700847+368509089+368112106+367625751+367491390
2638+367855004+368192043+367882125+367031823+366332627+366161286+366246350
2628+366184645+365859134+365343323+364754673+364236434+363872002+363644751
2618+363582561+363809478+364299352+364711565+364690906+364257973+363710763
2608+363259144+362950682+362793023+362764537+362833886+363019424+363285051
2598+363444682+363352550+363103123+362894195+362754647+362503977+361999420
2588+361389929+361020703+361068271+361392022+361736190+361911383+361818008
2578+361466104+360938886+360295994+359636994+359187073+359065212+359057537
2568+358889897+358572456+358272428+358120836+358295969+358905217+359629896
2558+359942180+359784703+359570739+359500389+359377010+359096974+358850247
2548+358787087+358823248+358816786+358736698+358655274+358659673+358736849
2538+358749985+358605007+358405119+358365227+358616413+359097277+359557573
2528+359716082+359523839+359219442+359055898+359058325+359081442+359017796
2518+358903184+358816058+358714188+358487877+358173136+357964724+358017631
2508+358327064+358743827+359062390+359184009+359190896+359194354+359180612
2498+359068458+358850338+358637254+358568482+358647539+358706391+358631491
2488+358571940+358765396+359170692+359446329+359348828+358986397+358606008
2478+358368079+358437883+358930487+359538370+359616153+358956152+358131393
2468+357814710+358097659+358631794+359078105+359244682+359089026+358789665
2458+358650542+358807958+359118847+359382501+359531878+359565188+359467959
2448+359296740+359206034+359286213+359441839+359496263+359372187+359147454
2438+358977934+358964009+359064271+359159589+359217016+359341941+359635053
2428+360031490+360336949+360454199+360513598+360690885+360952719+361094664
2418+360971862+360597418+360128628+359819499+359848652+360167428+360625540
2408+361163133+361741317+362230129+362522603+362656630+362768936+363015996
2398+363489034+364114300+364722971+365245093+365705692+366068972+366235762
2388+366114052+365574123+364448214+362610397+359925768+356181696+351265725
2378+345397156+339064167+332736273+326648979+320838961+315392828+310577453
2368+306598759+303396012+300857907+299032923+298101501+298409720+300389845
2358+304149631+309351008+315808530+323798924+332969531+341218909+345712292
2348+344917263+339729871+333326834+329034551+327572605+327508534+327722497
2338+328088386+328643544+329111849+329277759+329503342+330510028+332540178
2328+334980387+336983385+338322166+339508445+341148831+343405109+346130572
2318+349101336+351872485+353904637+355179165+356308866+357839192+359811429
2308+362047079+364398280+366647065+368540488+370025642+371248992+372327152
2298+373255389+374007582+374668827+375492464+376715177+378203699+379450651
2288+380079193+380181306+380057897+379890621+379758050+379685577+379581644
2278+379320750+378911055+378471631+378105499+377836960+377590021+377246036
2268+376797814+376373618+376083935+375979001+376147763+376653776+377333799
2258+377876216+378167355+378348525+378502877+378557786+378539038+378650252
2248+379031976+379623660+380238186+380626099+380576985+380142687+379655361
2238+379348872+379070049+378544499+377828345+377278405+377132395+377292026
2228+377464034+377426841+377229229+377142740+377382004+377950358+378747814
2218+379659730+380585206+381573812+382831018+384443737+386271998+388174825
2208+390097705+391918047+393500643+394953883+396599972+398647930+401019942
2198+403459665+405695981+407606423+409380260+411397486+413781876+416216381
2188+418344851+420175447+421910817+423548079+424880155+425828899+426560313
2178+427267669+428016495+428752854+429289173+429420287+429209448+428941789
2168+428718968+428385569+427832899+427070724+426099804+424964885+423806758
2158+422694076+421510163+420112590+418532452+416910601+415342871+413932527
2148+412747764+411643394+410729476+411069003+413928492+419194698+425450330
2138+431597205+437481700+443172284+448672324+454122642+459568805+464741726
2128+469426139+473904324+478765143+484115989+489199599+493176019+495976716
2118+497943159+499219841+499990176+500745646+502030943+504277332+507839748
2108+512943654+519691890+528136301+538071691+548666476+558564977+566546999
2098+571909948+574324006+573845782+571013989+566472795+560704125+554180137
2088+547105966+539115267+529886536+519733937+509246604+498858866+488811686
2078+479197196+470237671+462417737+455966920+450593626+446003863+442160045
2068+439010266+436494732+434616386+433189811+431887131+430598982+429428326
2058+428499240+427913473+427611806+427359680+427112922+427183455+427933586
2048+429490698+431734690+434549585+438190270+443240753+450160481+459120643
2038+470130007+482923582+496842762+511078990+524997686+538228288+550351730
2028+560407980+567268279+570801634+571988762+571900180+571179202+570017617
2018+568139180+565287305+561733868+557918263+553956375+549734321+545117953
2008+539996543+534291094+528021023+521513355+515404492+510117747+505463550
1998+500935340+496252414+491647726+487763408+485061881+483275364+481770460
1988+480384931+479435307+479055980+478973919+478889735+478851451+479218401
1978+480288825+481963097+483824576+485545384+487086722+488522276+489928798
1968+491462491+493174744+494769505+496023191+497309520+499165508+501516648
1958+503807085+505733454+507485721+509397619+511602295+514030794+516618984
1948+519319297+522027620+524786604+527736587+530550845+532618400+534177393
1938+536282869+539424943+542999737+546202120+548858081+551209282+553299771
1928+554999587+556573324+558591187+561017198+563103744+564590779+566095288
1918+567922395+569496557+570435229+571282528+572690264+574519677+576038626
1908+576822279+577212952+577908933+579318913+581238486+582965605+583882313
1898+584071735+584174211+584602078+585233744+585950172+586945998+588250468
1888+589393184+589903080+589786284+589325958+588774622+588267214+587858945
1878+587598233+587474278+587305486+586939688+586573648+586517586+586558540
1868+585959090+584444934+582645676+581202871+580110453+578982299+577523902
1858+575713479+573812411+572232971+571171436+570359934+569350638+568074260
1848+567002107+566637947+566788113+566478802+565111657+563270230+561707536
1838+560413259+558929439+557239878+555983157+555605650+555615479+555022885
1828+553565580+551767413+549851177+547679022+545539509+544056843+543371602
1818+542942219+542255157+541487947+541168018+541404097+541824379+542140424
1808+542390519+542696917+543192070+544051321+545225284+546258303+546723968
1798+546783549+547048144+548001924+549541502+550854527+551266194+551309514
1788+551915456+553223687+554821512+556564041+558656532+561036128+563282122
1778+565186831+567052283+569381703+572313363+575081024+576554407+576810144
1768+576900486+577475060+578606612+580192241+581855349+583067717+583968105
1758+585153656+586556598+587652414+588589691+590065137+592311738+594825058
1748+597032403+598763768+600098029+601314523+602874609+604987183+607167589
1738+608873957+610614667+613396889+616795367+618707174+618596689+617940388
1728+617964658+618957632+620401408+621475866+622104135+623423592+626715346
1718+631650308+635554314+636347128+635188456+634094764+633972325+635041809
1708+637412668+640732271+643892304+646262253+648608540+651761960+655111839
1698+657610779+659273705+660040491+659810176+659549525+660334270+662234913
1688+664753754+667958867+672153132+675956300+677235772+676717686+676465589
1678+677645437+680585773+684831429+689313770+693408046+696962454+699276463
1668+699874941+699934765+700817193+702495045+704033713+704946235+705749122
1658+707125307+709497926+713278159+718101664+721191317+721129066+720679540
1648+721855322+723967472+724653077+723376456+721916359+721692476+723023399
1638+725582042+728294490+729014861+726893550+724168299+723090261+724133473
1628+726394453+728744502+730984125+733427489+735958889+738388479+741046565
1618+744171165+746891076+747653190+746586618+745403616+745203820+745594433
1608+745285789+743685174+741629511+740495593+741099835+743326717+746529040
1598+750182223+753823212+756579769+757870284+758512084+759833603+761917903
1588+763699688+764380621+764048801+763284867+762638517+762416757+762820657
1578+763927879+765058946+764866006+763638894+763312716+764809094+767043743
1568+768053402+767579971+767084333+767835950+770346054+774867408+780694324
1558+784357519+784146923+783361996+784451076+787068268+789569514+791244938
1548+792940021+795526391+798618289+801193130+803288777+805839228+808059072
1538+808267727+807709960+808604280+811514219+815209692+818311357+820816061
1528+823248443+825621911+827537783+829078514+831489296+836227616+842734495
1518+848666982+852554970+854690843+856163195+857814654+860142314+863513186
1508+868194717+873871103+878665607+881064861+881869568+882787126+885270230
1498+889534755+894136561+897220389+898313171+898419531+898978511+900716976
1488+902892104+904808582+907050147+910268184+914204893+917817911+920245438
1478+921911338+924538662+929664562+936507265+941329072+941062718+937294801
1468+933310040+930598926+929109343+928251183+927476935+926447556+925368608
1458+925090968+925528057+924926908+923464264+923330055+925118817+927094574
1448+927680675+927455821+927284601+926711909+925707224+925607963+927523835
1438+931306010+936255836+941237213+944257334+944065608+942159322+941985858
1428+944999183+948683432+949961994+948875098+947431019+946656164+946385683
1418+946572860+947821511+950067019+951591975+950714097+947874903+945143525
1408+944156192+945248246+947467362+949033090+949258733+949603295+951548897
1398+954582003+957442372+959596507+960333866+958767349+955332467+951455157
1388+947943281+944976795+943183847+943762000+947539927+954168334+961622015
1378+966809377+968082904+966858886+966516387+968960296+972515735+974928277
1368+976742947+979732792+983672291+986924851+988951330+990389402+991915996
1358+994371737+998611689+1003693116+1007050761+1008041309+1008709198+1010219956
1348+1011631696+1012751963+1014721652+1016662703+1016317898+1015062149
1340+1017070851+1022915180+1028404390+1030555977+1030800246+1031872217
1331+1034967634+1039595772+1043961318+1046177097+1046804334+1049106876
1322+1054991552+1061552127+1064129760+1062917391+1062262122+1064442590
1314+1068119739+1071266000+1073179627+1073741823+1073056582+1072181434
1305+1072151098+1072431528+1071679061+1069537425+1067226389+1066109399
1297+1066025549+1065632266+1063705048+1059620783+1053694485+1047658125
1288+1043629194+1041693724+1039202732+1033393897+1024488431+1015764924
1280+1010963018+1011175799+1013409658+1012886293+1007850614+1000912289
1271+995234507+991348339+987537345+982381655+976660674+971816358+967021308
1261+960025162+951189228+943590720+938570998+934376793+929635863+925348101
1251+922074669+917918506+911247750+903112893+894944969+886299973+876528036
1241+866520627+857480285+849556995+842450303+836103419+830457733+825414773
1231+821048257+817615074+815349725+814139662+813320334+812016288+810119892
1221+808512421+807898107+807911637+808037351+808894904+811464892+815464336
1211+819569898+823096760+826470120+830062388+833543078+836576365+839420534
1201+842557269+846098329+849814855+853587504+857607638+862027607+866263677
1191+869064829+870044273+870788185+873211041+877276923+881514084+885312944
1181+889459156+894671697+900544239+905914955+910396083+915401365+922743468
1171+932007329+940250488+945152504+947973861+951972274+958531452+966012801
1161+971653086+973872384+972812973+969744980+967056801+967525440+972592366
1151+980841470+988188003+990872784+988313657+981906949+973294656+965804813
1141+963565797+967411132+974278044+980279941+982880023+981728206+979447022
1131+979614358+982557607+984959227+984812216+984389629+986445473+990355789
1121+993530202+994500788+993120780+990450136+989483068+992766329+998623945
1111+1002489606+1002995983+1003214345+1004458203+1003854203+999628023+994572201
1101+992877785+995312533+998615694+1000575614+1002836473+1006897016+1011222638
1091+1013283216+1011918558+1007161914+999927141+993033836+989361540+989145605
1081+989880902+988337440+983609313+977751636+973294595+970941088+968858001
1071+964746312+959880214+957910343+959509562+961715269+962663953+963654925
1061+965740257+967532296+966798759+962883225+957565174+953404885+951237341
1051+950141950+949544321+949415452+948950878+946951035+944160864+943840450
1041+947897413+954291803+959687274+962901913+964232836+962965559+958718507
1031+953421631+949129985+946217862+945196067+947323628+952120134+956467113
1021+957899786+957783657+958833786+960777750+961235467+959585100+957098416
1011+954300783+950354063+944676464+937856998+930620344+923138996+915680097
1001+908988408+903223136+897126649+889612538+881802402+876045078+873044069
991+871054055+868035390+863654251+859113118+855691948+853562082+851877617
981+849856356+847372341+844367328+840640184+836648445+833515957+831758927
971+830853867+829858344+827955092+825100426+822022848+818949516+815284016
961+811341422+808823492+808808141+810576517+812685026+814392669+816073918
951+818628677+822390041+826829061+831523940+836787082+842993690+849754364
941+855914861+860409822+863658013+867444859+873049408+880508368+889427121
931+899468689+910329585+921231254+930083387+934074580+931744615+924407244
921+915131491+907274638+903357162+903929612+907260743+909836981+908512974
911+903860627+900102358+900581189+904457953+908056288+908755059+907114218
901+905297364+904742388+905873455+908612599+912123080+914994006+916386149
891+916466783+916232221+917098086+919473556+922114532+923651561+923989328
881+924501105+926460358+929228808+930849324+930757586+931156875+934402822
871+939882142+943900577+943185303+938995284+936177629+937973611+943090228
861+948134219+951272774+952709269+953182336+952820786+951530635+950548399
851+952045749+956622740+961939699+965126671+966128989+966422222+965459099
841+961990118+958168628+957783779+960781754+963803150+965861725+968704681
831+972241008+974523345+975646949+978157174+983490090+989522142+992389367
821+990774190+988013386+988258201+991644848+994771329+994636453+991982979
811+990180141+991299922+994828969+999536589+1004099686+1006380688+1004939765
801+1000612989+995317933+989621342+984333263+981336987+980468028+980196334
791+979989560+979955159+979389201+976598666+970530393+962833777+956226666
781+950857285+945512356+940170824+935447611+931558591+928274300+926314986
771+927444111+932765742+941775565+952764785+962379639+966655025+965387747
761+962482844+961623411+963013976+964538264+965214890+966447462+969873000
751+974207785+975561521+972291549+967586113+964971045+963764076+960673878
741+955278772+951616790+952935155+958229665+965568553+974686434+983302368
731+985552245+979318881+970460922+964997680+963422487+963234825+962607406
721+961868348+960818704+958337056+956705740+960260634+969066110+977294707
711+978167246+970184374+958245925+949790654+950555619+961027298+975805184
701+986746108+988113254+980282975+969066171+961001815+958169963+957782262
691+955881012+951847105+949178463+950692255+954123678+954140303+948885291
681+943811873+944478548+949665243+954269718+953711223+947273573+935765052
671+918969727+901098488+892822444+900357913+912387250+916718879+916026722
661+918025776+923664303+926968131+924552252+920268312+919494428+923566073
651+928602602+926545665+914925627+906480731+910830320+921897079+926620778
641+919844147+910709944+910371692+917798981+921614100+913138079+898043965
631+889613933+892960779+900685547+900704052+890334850+881226919+882847435
621+890773031+893317111+885904748+874478622+866194388+865428391+873050197
611+883515141+887730703+882815217+875139533+872074150+873594798+875363660
601+872919143+864539895
##END=
