##TITLE=<SNM>
##JCAMP-DX=4.24
##DATA TYPE=INFRARED SPECTRUM
##DATE=29/4/2025
##SAMPLING PROCEDURE=Instrument type and / or accessory
##ORIGIN=Admin
##XUNITS=1/CM
##YUNITS=ABSORBANCE
##RESOLUTION=4
##FIRSTX=4497.3318
##LASTX=599.83466
##DELTAX=-1.4281778
##MAXY=2.1537614
##MINY=0.39491901
##XFACTOR=1
##YFACTOR=2.0058466e-09
##NPOINTS=2730
##FIRSTY=0.39955977
##XYDATA=(X++(Y..Y))
4497+199197569+198981478+199563708+201071098+202723456+203403583+203014682
4487+202560392+202849048+203767612+204749783+205323707+205125549+204083800
4477+202853535+202409809+202926130+203619243+203864737+203780866+203575665
4467+203106458+202332534+201643225+201535165+202155787+203175146+204076356
4457+204633551+204915461+204773228+203898256+202605798+201838604+202045364
4447+202676907+203108167+203312580+203294216+202703116+201507841+200484099
4437+200483163+201401460+202271707+202365251+201899238+201540246+201534451
4427+201597493+201431027+200998236+200299700+199241889+197975298+197106967
4417+197203231+198224402+199689330+201118301+202094305+202208992+201375860
4407+200125345+199270253+199220984+199749340+200377376+200780971+200796973
4397+200344184+199537603+198704946+198147855+197915020+197859467+197914381
4387+198176248+198578625+198674487+198215384+197811120+198307680+199578550
4377+200599544+200716103+200185385+199439824+198569102+197713594+197362387
4367+197877861+198960722+199802427+199781552+199043345+198293298+197974258
4357+197908646+197843807+197939446+198488617+199503058+200718079+201733515
4347+202116755+201638827+200579204+199698556+199583572+199925642+199819632
4337+198954333+198024997+197727233+197931868+198108527+198066821+198001106
4327+198067460+198109166+197831118+197266807+196883953+197039870+197515005
4317+197878470+198125792+198547617+199087295+199210955+198586025+197627166
4307+197104011+197440167+198508675+199834534+200797880+200911081+200270505
4297+199559176+199302880+199352906+199301528+199075423+198879257+198838858
4287+198901870+198937752+198932848+199128109+199710948+200389143+200738226
4277+200868142+201080444+201129459+200574850+199604254+198875245+198738970
4267+199110309+199891618+200975028+201874901+201977732+201384582+200917365
4257+200991684+201132758+200891974+200520352+200444563+200761448+201402589
4247+202186067+202696192+202649256+202271202+201978683+201979648+202319043
4237+202915938+203483444+203631783+203144509+202251233+201591862+201655661
4227+202293384+203006377+203469358+203526665+203141864+202623226+202430016
4217+202630343+202947793+203202395+203414905+203704215+204128462+204433699
4207+204243268+203689595+203384313+203634547+204146529+204522593+204752873
4197+205199065+206011486+206588085+206146528+204882700+203857858+203710722
4187+204096503+204367538+204405202+204653519+205398189+206278598+206745978
4177+206689637+206284705+205698330+205268629+205460740+206403730+207722442
4167+208797488+209081612+208394041+207055791+205688925+204913663+205111048
4157+206137985+207327361+208076948+208371755+208590267+208964222+209368842
4147+209563330+209467631+209110823+208456622+207481450+206402289+205680471
4137+205711241+206385529+206997697+206914227+206334181+206005885+206289073
4127+206903648+207424679+207629552+207557670+207497808+207677453+207918966
4117+207933690+207832182+207942352+208295029+208629848+208789361+208859445
4107+208968723+209103082+209210414+209410102+209786240+210044631+209894657
4097+209639164+209671048+209608646+208833890+207667617+207070485+207351148
4087+207948161+208326454+208498105+208715979+209092667+209562631+209944356
4077+210008066+209646028+209059400+208736869+209047603+209702101+209889635
4067+209260529+208399999+207932590+207668019+207116559+206421203+206221530
4057+206771518+207663115+208419047+208978366+209420978+209577133+209248851
4047+208599895+208055582+207929500+208184131+208510897+208694361+208796047
4037+208874169+208748012+208333288+207993343+208207532+208997221+209911431
4027+210544192+210884598+211129810+211377815+211618287+211762229+211582361
4017+210989033+210364399+210206848+210503111+210716691+210339483+209457870
4007+208799568+208989777+209833592+210703705+211359956+211878609+212164843
3997+212077450+211714313+211282874+210966315+210943791+211296246+211942156
3987+212706259+213295947+213307224+212530774+211264168+210166108+209766093
3977+210121624+210854763+211444244+211614484+211548812+211587888+211741681
3967+211806282+211846413+212064019+212322737+212332335+212145959+212003295
3957+211846948+211467050+211102204+211427930+212671685+214042860+214544041
3947+214198525+213822490+213854093+214125469+214399713+214520343+214303480
3937+213774173+213404602+213782063+214925588+216069573+216428328+216102498
3927+215826590+216112735+216887729+217710817+218248162+218528646+218706820
3917+218707102+218287787+217444255+216509332+215796577+215303241+214926093
3907+214934042+215852888+217677670+219555820+220738777+221253895+221256242
3897+220662959+219590691+218517191+218005253+218216886+218545465+218368197
3887+218024939+218211270+218750264+219037939+219362387+220040271+220176814
3878+219094503+217751408+217381689+218041654+219179058+220479911+221359385
3868+221225428+220616855+220614998+221332017+221737559+220980141+219162655
3858+217172685+216617288+219505155+225431576+229258823+228250117+224988206
3848+222192368+220856570+220801239+221405072+222257193+223603971+225786453
3838+227952576+228536395+227561684+226428500+225791415+225224192+224524318
3828+224086194+223980080+223957897+224488021+226339130+228679371+229725429
3818+229611827+229575188+229640295+229021485+227698345+226449969+226330394
3808+227887217+230033103+231132872+231509144+232634379+234374323+235307730
3798+235363090+235415077+235773208+236318368+237212476+238754025+240843512
3788+243101990+245310294+247279493+248768787+250140541+252465984+256350834
3778+261183310+266019292+270366247+274128372+277834038+282240097+287029367
3768+291128881+294361745+297203404+299841958+302705131+306859501+312830851
3758+319542265+325642759+331279483+337736503+346033623+355347457+363229660
3748+369098432+374894729+381942254+388247666+391275641+392252566+393703037
3738+396749733+400893048+404935925+408247148+410825855+412647026+413821173
3728+414911373+416462223+418210354+419281477+419329556+418762912+417973105
3718+416961770+415680439+414578798+414638704+416393759+418788260+420204053
3708+420532854+420794944+421896526+424228595+427340397+430146487+432239347
3698+434269774+436873442+440000578+443131547+445861090+448422295+451238072
3688+453502984+453857608+452496878+450922107+450198476+450088351+450137114
3678+450769310+452325063+453752831+454034177+453689270+453197687+452305570
3668+451160841+450191107+449346386+448667417+448932628+450661443+452983676
3658+454421845+454402797+453642230+453291885+454367555+457305254+460487780
3648+460661021+457412171+453590199+451750782+452489954+454583467+456229793
3638+456588458+456159872+455897574+456424964+458096934+461075284+464592227
3628+466869738+467281446+466927059+466884626+467891623+470539330+474124856
3618+476578966+477294395+477853195+479453461+481410283+482814606+484374400
3608+487066679+489976120+491224525+490714668+490415849+491966669+494861549
3598+497570915+499656345+501834964+504511019+506884392+507828333+507544550
3588+507778352+509599018+511535217+511454867+509130524+506219122+504528551
3578+504628692+506054320+508207799+510561382+512453841+513475874+514012298
3568+514767546+515462174+514911903+513067643+511549600+511573788+512399759
3558+512673735+512529556+512927327+513863839+514644167+515224332+516172373
3548+517787230+519629351+520650433+520176769+518676198+517245458+516588390
3538+516854640+518064119+519593573+519767528+517543266+514210500+511825716
3528+510715903+510218763+510780088+513197916+516457048+518188151+516970293
3518+513340847+509545649+508124240+509632358+512089232+513381201+513481401
3508+513352198+512926673+511559584+509487169+507642136+506552649+506311953
3498+507136736+509016951+511032253+511881105+511190221+510096098+510559065
3488+513482828+517195417+518663182+516665531+512837051+509505889+507533794
3478+506233505+504868436+503897097+504352041+506268807+508379020+509076739
3468+507589124+504768295+502534644+502035959+502681379+503017223+502033938
3458+499954510+498232975+498284264+500000807+502061752+503313307+503140601
3448+501552726+499810866+499567793+500676239+501196854+500059287+498444014
3438+497927649+498468143+498873224+498618028+498446837+499001951+499439422
3428+498189858+495086405+491793101+489886676+489281135+488657467+487109499
3418+485180491+484320466+485367728+487658611+489675162+490334547+489642920
3408+488433769+487654303+487914075+489380087+491445638+492550875+491468786
3398+489071611+487551517+487805198+488772376+489292872+489379820+489452414
3388+489699766+490347593+491317297+491780204+491210113+490410144+490284834
3378+490557592+490774752+491281906+492156610+492710803+493021894+494221656
3368+496583856+499062155+500982962+502540468+503694735+503939709+503014132
3358+501155014+498963559+497228236+496600646+497465930+499828576+502671691
3348+504125787+503320261+501468394+500452363+501027119+502641679+503989691
3338+503707750+501709208+499795830+499831726+501501497+502797328+502715076
3328+502272197+502496311+502914704+502709133+502035067+501276313+500211014
3318+498887190+498335553+499327811+501071336+502139725+502311065+502446210
3308+502733559+502325625+501056359+500191045+500688898+501860994+502639242
3298+503251856+504512088+506115415+506858777+506225838+504887811+503872612
3288+503797194+504666371+505987045+507094064+507781383+508519158+509509931
3278+510103824+509885237+509645136+510225003+510953389+510527626+509078997
3268+507836178+507199197+506649046+506145309+506252820+506866741+507144878
3258+506706515+505851483+504820238+503640772+502577374+502151195+502661588
3248+503852643+505055941+505642643+505544819+505332532+505519264+505893798
3238+505786109+504906888+503608085+502375250+501545060+501363974+501882746
3228+502820090+503505448+503132162+501662198+500170482+499628591+499643746
3218+499186009+498244742+497636586+497471338+496989472+495853034+494635711
3208+493980158+493919450+494006754+493671118+492581155+491016131+489694774
3198+489173624+489617811+490803873+491960815+492118812+491171305+490052904
3188+489557815+489484804+488985436+487473157+485213594+483166199+482195573
3178+482356780+482843014+482626715+481295760+479205396+476868484+474665647
3168+473066272+472352478+472143102+471928735+471805208+472029976+472291769
3158+472037910+471224301+470273109+469432102+468559359+467641508+467000457
3148+466611749+465966596+465022418+464291269+463783194+463045746+462155322
3138+461432137+460725741+459875166+459098404+458547985+458187358+458013106
3128+457866995+457424116+456749159+456429065+456839910+457453624+457077842
3118+455054041+452121007+449746475+448669349+448572566+448999339+449742968
3108+450396619+450338763+449440435+448365657+447950978+448452129+449324367
3098+449604673+448808922+447524710+446674105+446368838+446031151+445336285
3088+444516257+444024794+444160385+444734933+445176446+445215908+445076394
3078+444797990+444156225+443389507+443011080+442817752+442064257+440724952
3068+439674481+439550627+440192391+441087361+441646844+441230085+439688833
3058+437798128+436637502+436572247+437013135+437156452+436884259+436721448
3048+436796123+436390418+435020268+433324139+432269746+432032616+432037638
3038+431670326+430781982+429754095+429067727+428821624+428842603+429021074
3028+429315524+429596068+429575653+428956918+427821966+426810006+426527620
3018+426745613+426600423+425591732+424001123+422488933+421583206+421369998
3008+421390591+421114088+420756196+421075221+422058416+422535765+421629830
2998+419983713+418880853+418623012+418443620+417794189+417062624+416842373
2988+417002509+416989970+416813935+416991099+417494984+417513734+416491790
2978+414911106+413713335+413250339+413112994+412844545+412507037+412417504
2968+412599541+412738401+412501718+411759752+410687470+409741271+409334793
2958+409441204+409573408+409246241+408473639+407766233+407672837+408299447
2948+409131331+409336041+408415218+406656182+404883745+403740383+403276852
2938+403202949+403306864+403444239+403387512+403092378+402893730+403035206
2928+403215905+402928289+402108826+401266304+400976548+401207854+401234508
2918+400485382+399298071+398430558+398098161+397963996+397835357+397853989
2908+398018494+397920879+397205657+396119646+395238999+394796982+394719009
2898+395036072+395644586+395952616+395445522+394347357+393247975+392520213
2888+392351548+392736185+393257900+393406001+393169258+392893677+392662580
2878+392263918+391720095+391432033+391649313+392028215+391977996+391379140
2868+390639106+390057070+389526292+388893531+388255124+387826509+387664054
2858+387534881+387135654+386578222+386392708+386769322+387159813+386991950
2848+386404862+385867398+385409602+384680028+383649972+382865870+382839631
2838+383391031+383837536+383745448+383277905+382858411+382664786+382477786
2828+382014493+381359980+380871250+380694710+380644075+380477877+380061623
2818+379408180+378732004+378231359+377789222+377201480+376598049+376311086
2808+376468697+376919926+377347710+377351840+376693554+375635565+374891044
2798+375020336+375776684+376184588+375530016+374107299+372699024+371657289
2788+370846919+370162870+369713453+369606834+369755292+369863605+369627040
2778+369016002+368308031+367789377+367502088+367304540+367086042+366866178
2768+366709339+366595202+366419019+366145340+365897483+365752561+365497692
2758+364838335+363863460+362995799+362446687+362055810+361684010+361407389
2748+361291083+361281603+361330456+361405933+361426615+361325166+361080430
2738+360655915+360083476+359545419+359133592+358674667+358040658+357388909
2728+356879942+356459320+356072098+355792743+355637985+355476719+355186132
2718+354789817+354420602+354144100+353854671+353453186+353085665+353017825
2708+353268712+353521709+353444895+353010841+352427052+351855742+351353076
2698+350941487+350537059+349980697+349315992+348803163+348546481+348382956
2688+348192896+348059652+348077957+348173789+348157743+347899486+347415391
2678+346823697+346317970+346107733+346165173+346135428+345762945+345263339
2668+345020653+345088998+345209851+345184028+345049625+344930912+344827116
2658+344604220+344168948+343586644+343022437+342595574+342308701+342136589
2648+342096800+342114362+341963200+341527125+340966365+340503161+340265615
2638+340366618+340816005+341331865+341526650+341289610+340808873+340310723
2628+339935298+339735848+339625099+339424400+339102671+338842483+338741599
2618+338645083+338435589+338218280+338059599+337856019+337596335+337431563
2608+337394597+337348479+337248248+337186767+337181894+337154437+337118749
2598+337201179+337454266+337763336+337934022+337826392+337466954+337084962
2588+336939772+337049720+337179546+337131378+336939327+336711974+336410035
2578+335953962+335497503+335329195+335447730+335502257+335263405+334919448
2568+334784302+334906730+335091085+335171287+335130577+334995312+334764066
2558+334500015+334378181+334537961+334935643+335390468+335721617+335801760
2548+335588908+335201180+334909018+334950947+335308156+335683700+335764972
2538+335531646+335247269+335128823+335121513+335032308+334795208+334551749
2528+334509821+334744246+335115184+335386011+335414627+335231312+334998343
2518+334921320+335107220+335446838+335712583+335824878+335937797+336186723
2508+336434075+336409649+336077578+335712643+335592830+335712732+335813913
2498+335643495+335195802+334745345+334633526+334967409+335468828+335676271
2488+335431980+335102317+335138837+335515303+335803126+335735910+335485201
2478+335361614+335411536+335423601+335254223+334970232+334692630+334487950
2468+334399844+334428906+334510237+334600720+334736936+334982445+335340665
2458+335688038+335815845+335606440+335165462+334781331+334743919+335063598
2448+335366369+335281858+334906849+334652306+334736995+335052336+335358256
2438+335445234+335297399+335186887+335391805+335812398+336096537+336102272
2428+335985282+335888915+335817301+335785089+335846570+335972980+336090861
2418+336249126+336583751+337107754+337684977+338235128+338784240+339230150
2408+339311987+339006898+338677651+338600302+338664160+338760973+339090042
2398+339793555+340599349+341100114+341201325+341134406+341184595+341473132
2388+341817980+341749456+340844532+339064279+336591061+333425444+329413798
2378+324632047+319471839+314292435+309160190+304014721+298993285+294437519
2368+290602710+287565345+285342361+283858134+282984529+282847362+283837927
2358+286252962+290249512+296129874+304191320+313752714+322453755+327359064
2348+326924297+322126083+316213807+312410645+311293819+311518706+312176071
2338+313212635+314590570+315878646+316601950+316833404+317188652+318172501
2328+319767746+321602734+323285937+324748294+326398809+328710196+331615803
2318+334518290+336842841+338464235+339725775+341145787+342992721+345082907
2308+347026089+348596819+349806446+350769048+351660304+352682218+353846618
2298+354848623+355356193+355455235+355673406+356472781+357760916+358984153
2288+359687518+359894040+359959919+360168611+360459169+360531585+360267326
2278+359921973+359763322+359713370+359523667+359107264+358578329+358123772
2268+357849974+357673909+357450449+357182178+356949803+356788805+356809992
2258+357190142+357871904+358526149+358922345+359134751+359361480+359695452
2248+360084843+360459317+360833940+361189010+361339370+361137989+360704262
2238+360232143+359744690+359252246+358919997+358846065+358856258+358698974
2228+358346162+358017301+357948688+358156072+358450998+358729700+359139476
2218+359841890+360740693+361613793+362437000+363419036+364734688+366308359
2208+367863161+369164876+370248836+371417426+372961323+374876810+376921590
2198+378909495+380836037+382763649+384717054+386666744+388530171+390209718
2188+391653622+392870202+393914671+394864406+395797680+396793326+397843499
2178+398746106+399305114+399626635+399922482+400130133+400055102+399711770
2168+399236441+398654880+397919868+397041568+396124698+395308949+394632180
2158+393964890+393116900+391989377+390629776+389158385+387707974+386500159
2148+385772487+385505018+385633062+386645795+389304199+393643517+398947310
2138+404678203+410755905+417074124+423340073+429251220+434641128+439688863
2128+444881104+450526981+456453283+462169050+467171974+471273836+474707249
2118+477752073+480417282+482639374+484578604+486650455+489384842+493238579
2108+498474651+505163392+513183534+522152965+531376108+539935823+547002693
2098+552085403+554953420+555575840+554242032+551477543+547836390+543727337
2088+539069974+533301372+526013062+517153518+506731357+495157841+483525251
2078+472788938+463131534+454386573+446531886+439727404+434160926+429763633
2068+426169727+423113671+420556181+418422492+416654987+415301121+414210564
2058+413078168+411920959+411046552+410663965+410831441+411495017+412505254
2048+413894748+415974682+419001349+423076081+428395504+435319294+444253068
2038+455454546+468655043+482910379+497052528+510219357+522000406+532319098
2028+541093953+548042259+553026372+556304997+558221823+558982479+558751649
2018+557674167+555858255+553395082+550382351+547058618+543709151+540210097
2008+536081431+531181531+525793762+519975595+513505471+506525132+499633999
1998+493316791+487733910+483033252+479374269+476547200+473987511+471378286
1988+468935616+467020544+465785986+465191201+465090169+465301149+465759034
1978+466563877+467773742+469228313+470706241+472188300+473774719+475381463
1968+476764153+477890755+479082404+480660206+482563302+484440517+486121490
1958+487847007+489891252+492176282+494477090+496756028+499082956+501494365
1948+504080739+506934373+509903304+512593741+514723626+516434285+518166756
1938+520260507+522753336+525456492+528080664+530372617+532333659+534246621
1928+536349762+538646885+541079274+543582979+545944169+547955192+549713515
1918+551462270+553256846+555038109+556854496+558759019+560606726+562093746
1908+563026693+563549031+564039336+564778300+565765269+566821713+567795191
1898+568683089+569553871+570329028+570884529+571446151+572403167+573656743
1888+574687572+575277840+575624263+575971815+576496174+577103617+577280484
1878+576655092+575583612+574790031+574737375+575487572+576663531+577439758
1868+577151756+576061258+574900394+573861423+572560421+570760616+568850328
1858+567472719+566752595+566082214+564766414+562830274+561020959+559940862
1848+559437244+559031569+558576328+558113064+557426280+556252995+554618943
1838+552747463+550996629+549774848+549195159+548858780+548109059+546623464
1828+544778729+543124826+541688381+540132361+538416234+536894387+535765794
1818+534855609+534000577+533332039+533044809+533143345+533464688+533764577
1808+533858002+533806832+533892591+534371069+535248983+536228226+536943536
1798+537350816+537792863+538684981+540149537+541709301+542553933+542622041
1788+542743874+543565031+544941213+546348299+547654591+549149872+551011070
1778+553163004+555521995+558062191+560629666+562807868+564253882+565159133
1768+565875216+566460195+566978967+567766427+568985771+570277145+571364909
1758+572512163+573906710+575377327+576955634+578928800+581178557+583082604
1748+584316093+585199890+586213068+587666213+589691559+592187658+594570362
1738+596098271+596911702+598087186+600299026+602688208+604381514+605760608
1728+607243884+608608299+609415728+609522109+609337041+609692616+611363576
1718+614512998+617990479+620061884+620612511+620853920+621530303+622463190
1708+623384844+624467854+625773135+627057853+628627067+631329628+635013274
1698+638074442+639642645+640136873+640428976+641357168+643167909+645320912
1688+647310718+649823576+653855191+657947306+659152862+658092971+657304501
1678+658016603+660290608+663488169+666497453+668882950+671257809+673766210
1668+675277360+675242058+674862235+675626992+677713195+679619204+680106894
1658+679794584+680154617+682325568+686567331+690781101+692330108+692102369
1648+691858168+692380981+693596522+694973417+696033427+696419431+696181291
1638+696114788+697250988+699301354+700370219+699996696+699806933+701210810
1628+704071160+707158121+709859137+712689771+716218898+720370087+724964513
1618+730047341+735053682+738557253+739988112+739963686+739095816+737917955
1608+737012228+736509918+736153867+736196658+737516262+740535233+744599832
1598+748729389+752532789+756058230+759130987+761443740+763113214+764537654
1588+765922989+767326093+768767055+769983487+770567871+770559372+770316003
1578+770197319+770849395+772787972+775344571+777553142+779315566+781001383
1568+783087349+786139899+790192255+794151364+796854163+798777109+801950779
1558+806940598+810982495+812958156+814260585+816068295+818263851+819520696
1548+818873137+817280329+816781525+818617821+822691216+827591711+830235435
1538+828904599+825882299+823195428+820772489+818132746+815834494+814898457
1528+816026039+819363620+823828842+827633491+830009598+831640144+833623294
1518+836500701+840250138+844498319+848760644+852556318+855379881+857432387
1508+860399118+865616914+870442110+872110039+872495329+874268153+877720317
1498+880806564+881980265+882616532+884600752+887694547+890504916+892211653
1488+893243195+894450474+896212541+898607310+901484836+904289499+906544843
1478+908421196+910246141+911640984+911794554+911166309+911775001+914539132
1468+918358460+921500513+922683782+921868925+920355457+919392142+919039954
1458+918163526+915591476+912129982+909658844+908956371+909519776+909798091
1448+908328186+905465399+902822982+901476694+901490660+902540269+904654583
1438+908153222+912433436+915293311+915667309+915486461+917136323+920701048
1428+924053724+925965319+927371989+928922423+929299690+927112514+923322783
1418+920297928+918408679+916198622+913791432+913052884+914582160+916415307
1408+916712937+916140914+916049153+916128077+915358685+913905005+913065246
1398+913566427+914607300+915472317+916729399+918719978+920441989+920919694
1388+920167299+918835333+918029153+918951640+921994146+926278758+930593739
1378+934434878+937395131+938675214+938332119+937892865+938779990+941126382
1368+944296784+947804396+951455118+954924635+957867713+960434772+963039331
1358+965708255+968222717+970818659+974045104+977794184+981154646+983495688
1348+984859509+985421666+985947986+988113114+992567936+997490895+1001007779
1338+1004112093+1008725715+1014224976+1018333078+1020296437+1021317460
1330+1022698278+1024482156+1025848473+1026214924+1025976249+1026502926
1321+1028780319+1032098465+1034838825+1036573019+1038437010+1041204707
1312+1044183979+1046880597+1050544869+1056039257+1061266086+1063219818
1304+1061699219+1058963852+1057511598+1059006048+1063460513+1069268696
1295+1073693684+1073741823+1068360116+1059578367+1050251518+1041776789
1287+1035201234+1032097277+1032249776+1032232304+1028450358+1021283941
1278+1013849729+1007833419+1002661741+997890865+994343197+992629387+992643651
1268+993754533+994489456+993357357+990018112+985115835+979152062+971996937
1258+963637028+955200394+948463485+943868287+939754657+934303951+927506600
1248+920458927+913921289+907942420+901536125+893169679+882712810+872042228
1238+862998329+855460647+848072315+840396457+833559465+828665865+825371847
1228+822555000+819744334+817236231+815265799+813615046+811922989+810222017
1218+809049326+808900452+809805109+811508458+813796845+816552122+819659170
1208+822859465+825761773+828368354+831283499+834859576+838492172+841407555
1198+843947929+846973378+850202973+852439715+853517078+855047781+858708606
1188+864331127+869879359+873066044+873455792+873433030+876406240+883480182
1178+892102953+898758027+903107240+907793724+914304677+921575396+928922898
1168+937265929+945998528+952313181+955207229+956424493+957266035+958070551
1158+959571181+961941999+964133871+965519086+966517823+967424798+968222955
1148+969815763+973931353+980274117+984602233+982375356+974856039+968575618
1138+968104687+972331711+977306078+980439394+982048308+983763425+986152428
1128+988084765+988049166+986010507+983900175+983932506+986013836+988013091
1118+988785337+989128431+990254231+992925650+997473779+1002992296+1007834013
1108+1010457650+1010124243+1008485138+1008352013+1009572130+1008444844
1100+1003370276+998339806+997371320+999302112+1000670211+1000296866+999397201
1090+999053690+999172790+999207617+999038357+998865295+998387708+997377501
1080+996800546+997150594+995973327+990393834+981924692+974426769+968745887
1070+963479417+958692911+955953325+955957782+958028176+961010063+962842556
1060+961166485+956188493+951429919+950124460+951490182+951797024+948830530
1050+944356512+941727466+941898093+943497081+945681643+948855015+953354708
1040+958749549+964217133+969202139+972278698+970535471+963447741+955713224
1030+953146700+956900534+962560140+965063370+963089491+958896700+956303610
1020+957684963+962026985+966458986+969054512+968900764+965301153+958673715
1010+951064894+944659906+939964746+935811654+931018967+925860721+921191650
1000+916376023+909896033+901974903+894518344+888609129+883453914+877874896
990+871974774+866853672+863302615+861203872+859742704+857787189+854586062
980+850523127+846773572+843991314+841578478+838613946+835159702+832036964
970+829590313+827394935+825147674+822973275+820662126+817599829+813916599
960+810950759+810054481+811186878+813001779+814471149+816237732+819838948
950+825670072+832437707+838653170+843931110+848532964+852477097+855665149
940+858484433+861890537+866687562+872628752+878437766+883217854+887716655
930+893586527+901336793+909166103+914144273+915102894+913885333+913112553
920+913376307+913140426+911139744+908002921+904744324+900999998+896377462
910+892104320+889865558+890013125+891798727+894324005+896978903+899917405
900+903793667+908660762+913124558+915542267+915683950+914661322+914229557
890+915158224+916736947+918587625+921485714+925473350+928931754+930404095
880+930281133+930088398+930723298+931722570+932438356+933143919+934265262
870+935703609+937448916+939618917+942050176+944550554+946855879+948211854
860+947823295+945729306+943108462+941497469+941638379+943110245+945638733
850+949867896+954855517+956381227+951855920+944889963+940523574+940668705
840+945309902+953683836+962635617+966932829+964550125+959253939+955634715
830+954826514+955960753+959073210+965141165+974066975+983082109+988667961
820+989618439+988018559+987834264+991516662+997350163+1001684697+1003275187
810+1003663984+1006218206+1013321626+1022073303+1025226826+1020682976
801+1015455790+1014121447+1012227978+1005093416+995201379+987283280+982803081
791+981266257+982871723+987124778+990667335+989306783+982161167+971952482
781+961186632+951838031+946061168+944097274+943523647+942130349+940457250
771+939870250+939995293+938926131+935428741+931101398+929188257+931326166
761+936223332+941454679+945870336+949205717+950452697+949649726+949993058
751+955899183+967354907+977175389+978290016+972669516+967996048+968374563
741+972136599+975498071+974363178+967432940+959753337+959304039+968306218
731+978420408+978379222+969504166+962135209+959351406+956368806+951632816
721+949915976+954135392+961487353+967958309+973084344+978107088+981857713
711+981475275+976589757+970900020+968415986+969561161+972270972+973737608
701+970937818+964626790+961244637+966144656+977017660+985860504+987362917
691+982910056+974665800+962716800+950358202+942518373+940216495+941196986
681+943405142+944876532+942432852+936855023+934185624+936976084+938931896
671+930770605+911622679+892870325+888127858+894959797+902101907+906337013
661+911588209+919631292+924326631+920752456+914557199+914192591+920002141
651+925925501+927053737+925404410+926323628+931147279+936696105+938660059
641+933572713+924251094+916630090+910912064+906645578+908123387+917631620
631+929629057+932686717+922447485+907004779+895135713+889054029+886607674
621+885054804+882569582+881168736+886292156+899965722+917514125+932233616
611+939556218+936427656+922372424+904525024+893490130+890990169+889878811
601+886321396+884226515
##END=
