##TITLE=<SNM>
##JCAMP-DX=4.24
##DATA TYPE=INFRARED SPECTRUM
##DATE=29/4/2025
##SAMPLING PROCEDURE=Instrument type and / or accessory
##ORIGIN=Admin
##XUNITS=1/CM
##YUNITS=ABSORBANCE
##RESOLUTION=4
##FIRSTX=4497.3318
##LASTX=599.83466
##DELTAX=-1.4281778
##MAXY=2.2053277
##MINY=0.66460639
##XFACTOR=1
##YFACTOR=2.0538715e-09
##NPOINTS=2730
##FIRSTY=0.67396271
##XYDATA=(X++(Y..Y))
4497+328142586+328893031+329664225+329475301+328777006+328610631+329099396
4487+329327818+328584309+327215116+326169503+326057135+326819478+328181068
4477+329847897+331027034+330874734+329884463+329546430+330397605+331547200
4467+332048589+331848172+331586493+331887931+332352957+331537187+329024175
4457+326728005+326647124+328212207+329211329+328664029+327334826+326179718
4447+325672815+325890992+326442558+326928131+327525230+328325561+328614781
4437+327885783+326941858+326905408+327830789+328974492+329634450+329492365
4427+328738148+327765144+326642626+325406783+324559903+324409866+324345701
4417+323794106+323587131+325140315+328267491+331155450+332704397+333433773
4407+333850132+333603253+332538196+331186879+329923292+328599400+327088963
4397+325699920+325092547+325733352+327306531+328966511+330070717+330257436
4387+329469758+328269871+327324988+326618075+325968535+325877294+326798989
4377+328109764+328716556+328320860+327549172+327031183+326756619+326429702
4367+326126436+326150088+326416236+326632208+326932397+327583185+328223612
4357+328295815+328040347+328127321+328511235+328474902+327800694+327261897
4347+327507731+327843384+327103909+325787069+325778537+327591281+329509110
4337+329974165+329324771+328496638+327524621+326139553+324804314+324282494
4327+324716962+325868559+327771122+330271279+332356411+332878231+331735050
4317+329786170+327988603+326817620+326175974+325884955+326149740+327058956
4307+327931055+328061154+327838015+328229822+329494890+330938869+331673613
4297+331299218+330030930+328425421+326943802+325669303+324558800+323855833
4287+323807862+324441295+325841570+327735746+328797205+327780409+325441056
4277+323807427+323803364+324808929+325945463+326762859+327115691+327193060
4267+327438227+328012951+328577025+328649432+328084168+327230845+326473029
4257+325761995+325054878+324820537+325317341+325827843+325675833+325430173
4247+325941778+326839908+327236678+327379953+328113421+329110250+329248679
4237+328406674+327551465+327382913+327783949+328232260+328234292+327694014
4227+327000683+326483680+326036849+325616486+325659668+326549412+327929778
4217+328928262+328976958+328168270+327146192+326753978+327304819+328053116
4207+327920753+327027643+326718573+327742276+329250420+329819108+328776629
4197+326567405+324535902+324117483+325488824+327211314+327704085+326766370
4187+325389370+324586602+324872542+326299399+328249208+329504786+329327150
4177+328411404+327995365+328267810+328548759+328702888+329300597+330482084
4167+331523432+331638963+330843478+329939602+329631258+329866760+330247859
4157+330551531+330461509+329589613+328400899+328116497+328997186+329784951
4147+329569182+329047827+329141680+329567209+329609985+329401588+329480786
4137+329722963+329582938+328937171+328093716+327434657+327365878+328073401
4127+329183034+330071297+330347661+329820733+328563763+327104141+326108966
4117+325839654+326079481+326490181+326958138+327598072+328335864+328776339
4107+328813224+328909166+329390357+329982407+330165324+329649628+328791720
4097+328530563+329303789+330275022+330378452+329608738+328577693+327647872
4087+327068620+327078284+327491044+327851132+328055002+328234379+328152831
4077+327508689+326806128+326957471+327995220+329125022+329934262+330561920
4067+330902245+330647328+329849812+328787570+327748747+327199358+327431175
4057+327928095+327771761+326856218+326154093+326498016+327515683+328143747
4047+327897275+327138502+326459361+326312197+326788629+327494730+328073807
4037+328644469+329221689+329283881+328571134+327673613+327238884+327299856
4027+327728201+328587908+329627572+330214979+330052608+329290381+328096095
4017+326716658+325696292+325477245+325930431+326551879+326929147+326939855
4007+326840576+327211372+328418456+330065696+331240655+331350411+330567492
3997+329483572+328555260+328021164+328070006+328747463+329761531+330613780
3987+331001960+330907062+330318988+329261738+328178659+327872230+328745896
3977+330351288+331790973+332312561+331668680+330258567+328854172+327999602
3967+327717666+327806063+328253213+329151082+330206853+330719444+330321455
3957+329397467+328565533+328220768+328587444+329572897+330616102+331178783
3947+331400616+332049053+333730973+336042553+337523882+337031315+335102749
3937+333430667+333360873+335082406+337717131+339823912+340203763+338790517
3927+336690294+335085946+334140947+333291107+332605843+332889404+334264807
3917+335569952+335525899+334064362+332252691+331302207+331688356+333028703
3907+334952974+337808197+341904169+346040798+347795357+345978927+341819400
3897+337546895+334881960+334869220+337543529+340729907+341351152+339715607
3887+338976742+340666497+343300903+345163853+346289970+346136334+343449663
3878+339630664+337878311+339317763+342264141+344703557+345870128+345645683
3868+344832321+344811165+345485140+345120438+343078721+340936186+340398811
3858+342281930+347131626+354502489+359749593+357138752+349405566+342091584
3848+337743800+336764615+338213499+340733941+343756382+347469745+351361673
3838+353426520+352265578+349224216+346488210+344709129+343163606+341494949
3828+340380992+340709419+343291326+348686987+355156236+357871493+355378912
3818+351839120+349625369+347224811+343619288+340162206+338371372+338998072
3808+341629692+344575373+347167002+350747132+355352155+357857186+356483727
3798+353037237+349117421+345498548+343247969+342942788+343951458+345354228
3788+347043868+349398485+352248456+355044362+357775116+360549778+362601595
3778+363220924+363301544+364657707+368722365+375818605+384080285+389790994
3768+391229721+390368679+389660981+390240581+392483934+395866666+398574029
3758+399364929+399665147+402012829+407679107+415578900+422111356+425114962
3748+427458088+432654754+440359064+445165199+444024195+441348116+442168529
3738+448783317+459967317+470388625+474573312+472682009+469282997+468021441
3728+469821939+473609276+477198199+478982765+478894716+477209140+474080832
3718+470358908+467425125+466739193+469345304+474164441+477444875+476792375
3708+473919942+471652821+471294533+472503387+473986806+474882876+475744237
3698+477075413+478300142+479132134+480653744+484267625+489351372+491927475
3688+488641991+482387175+478270512+478306613+481544184+485708905+489385558
3678+493009074+496313305+496653542+493922179+492165676+493266719+493967857
3668+490978500+485998241+482219958+480673971+480526169+480783495+481419714
3658+482911317+485021784+486992981+489106379+492562620+497662474+501848525
3648+501285119+495747460+488633982+483373731+480995897+480230913+479902777
3638+480462034+482370169+484612767+486637391+490327510+497276964+504325262
3628+505408950+500815855+495889545+493419309+493531387+495307101+496908982
3618+496776300+495756863+495696094+496867541+498567685+500825374+503591040
3608+504891222+502775909+498963991+496988266+498103413+500769248+503360616
3598+505981934+509049124+511577750+512187357+511538223+512038481+514704838
3588+517461914+517580899+515148390+511937025+508997990+506846110+505986867
3578+506580629+508264580+510475488+512645825+514641167+517175655+521007074
3568+524933856+525696054+522072190+516803843+512870967+510870981+509962403
3558+509526455+509405788+509476076+509818055+511006914+513666306+517460579
3548+520569676+520826566+518109713+514660843+512379648+511296598+510889554
3538+511122126+511543331+510776490+508201489+505386082+504428633+505652666
3528+507830025+509757924+510743987+510390341+508919576+507058135+505147765
3518+503175174+501774639+502277334+505220258+509064679+511049806+509603070
3508+505646978+501520360+499212698+499322918+500829901+502189344+503093917
3498+504480000+506531526+507681266+506422061+503734228+502358592+503404147
3488+504803870+504151022+502088584+500708131+500275665+499737739+498764445
3478+497569201+496243829+495450637+495887630+496568106+495746183+493622164
3468+492239156+492851724+494705213+496127631+495907132+493796752+490506102
3458+487505253+486334677+487452320+489873453+492102701+492974307+491875760
3448+489118104+486126135+484499848+484633082+485644915+486448235+486475804
3438+485741757+484776124+484407591+484983535+485582288+484770784+482599142
3428+480774005+480516244+481316343+481888165+481535333+480507219+479501073
3418+479001251+479000787+479161445+479105348+478794305+478812936+479751347
3408+481152173+481884306+481730786+481602689+482087943+482689309+482497831
3398+481145992+479217019+477765233+477392696+478022066+479230543+480461598
3388+481150751+481187636+481289557+482299707+484030497+485381988+485677157
3378+485287758+484924797+484952802+485493804+486648332+488134479+488996798
3368+488553827+487554530+487504267+488996333+491233185+493052547+493940694
3358+494169202+494442693+495202337+496092748+496573097+496802012+497046772
3348+496794699+495585061+494041802+493125098+493058583+493614966+494650132
3338+495841603+496518190+496068545+494436018+492442301+491357684+491590661
3328+492423670+493042970+493050167+492222383+490708086+489506806+489771764
3318+491315894+492506320+492067935+490554683+489594274+489868635+490360941
3308+489954769+489177016+489316895+490337899+490911056+490275911+488997088
3298+487986648+487677113+488064191+488985480+490242363+491527629+492469116
3288+492796004+492426978+491622004+491050820+491313166+492477822+494395563
3278+496837069+499004446+500060739+500355588+500788112+501130439+500430868
3268+498813548+497548423+497372558+497607509+497107541+495638053+493876907
3258+492524313+492004380+492455999+493251106+493289819+492582238+492527389
3248+494002450+496112134+497099880+496019906+493642710+491614168+490638146
3238+490035388+489260943+488895980+489374066+489894522+489727305+489518414
3228+490046416+490745291+490645111+489870144+489160068+488687786+488097564
3218+487202104+486277158+485842632+486044326+486254174+485766511+484749570
3208+483843459+482998030+481504280+479236086+477180352+476440761+477144947
3198+478556046+479812494+480277433+479749635+478690934+477765582+477098310
3188+476449525+475724329+474783857+473495951+472349200+472050839+472472886
3178+472963828+473304560+473335002+472493027+470871296+469650833+469638935
3168+470353452+470742357+470042205+468117760+465573638+463360496+462044236
3158+461633043+461824898+461958654+461376326+460272004+459500636+459483020
3148+459814871+459836956+459189709+458046993+457075150+456857292+457267731
3138+457645463+457451518+456484812+454747318+452524831+450446374+449157683
3128+448885905+449328673+449988515+450527892+450675869+450174247+449278322
3118+448788019+448939535+448922819+448122808+447136977+446913750+447473210
3108+448004084+447852800+447020227+445790130+444305753+442825962+441887029
3098+441591570+441276986+440435823+439375961+438617536+438361777+438767718
3088+439995087+441735048+443148440+443477679+442656221+441318138+440221129
3078+439709118+439707551+439919111+439919459+439429359+438659790+438120906
3068+437997278+437978647+437789809+437565335+437512024+437479869+437183772
3058+436668336+436153191+435611753+434903998+434154656+433680691+433618413
3048+433743898+433654631+433117517+432246492+431426949+431106649+431425730
3038+431920503+431842902+430915606+429599433+428619900+428306274+428293476
3028+427941514+427190257+426729206+427043789+427656183+427721015+427004089
3018+425889900+424826120+424067318+423696318+423686016+423989978+424574047
3008+425265318+425640671+425378673+424761520+424383613+424269214+423843191
2998+422926023+422100357+421819118+421772018+421444868+420795271+420060991
2988+419225690+418085005+416891067+416415680+416961065+417732027+417747263
2978+417064843+416507879+416491337+416676431+416572247+416072976+415488645
2968+415236079+415386028+415439020+414814293+413687538+412930390+413027319
2958+413483697+413541767+413094066+412595405+412426301+412642969+413088610
2948+413499629+413590232+413200746+412401315+411424219+410530471+409985841
2938+409957487+410244995+410367288+410136109+409824080+409606338+409257394
2928+408566906+407736858+407164484+406962384+406854805+406553223+406111006
2918+405800631+405723378+405692645+405495943+405180344+405052624+405378613
2908+406046900+406563583+406448632+405674536+404671438+403909385+403579711
2898+403611053+403731344+403537979+402858461+402029632+401479807+401189746
2888+400968580+400990287+401487817+402095480+402115127+401421969+400585130
2878+400091779+399884572+399646429+399137465+398300365+397425944+397062722
2868+397350723+397757099+397896659+398112601+398757179+399473669+399716920
2858+399524020+399291681+399138597+398894765+398525797+398234169+398138691
2848+398073453+397843667+397554215+397427860+397352870+396983002+396374092
2838+396107653+396542876+397248570+397403685+396613918+395216720+393925882
2828+393249092+393130020+393115133+392891123+392559214+392339034+392178666
2818+391868233+391533451+391638563+392270981+392814595+392679998+391993428
2808+391238514+390668636+390342212+390251783+390177723+389808203+389153759
2798+388583097+388406797+388594502+388887320+389016259+388756844+387989277
2788+386940036+386199575+386169568+386554149+386718551+386498632+386284954
2778+386331822+386395464+386164663+385734519+385441672+385365754+385175089
2768+384516262+383529184+382816611+382768089+383101274+383263848+383111983
2758+382959160+383057366+383231983+383083833+382496862+381797494+381366944
2748+381271785+381324544+381280288+380951861+380364687+379771041+379403030
2738+379327606+379517546+379851080+380068938+379932744+379469517+378968040
2728+378651367+378382375+377840995+377012630+376300116+376116967+376509616
2718+377091160+377271378+376756175+375879752+375222899+374949292+374764982
2708+374448541+374141939+374096318+374305093+374459192+374259298+373752917
2698+373258986+372955517+372703908+372323593+371876327+371581971+371541487
2688+371614967+371576196+371373545+371163958+371071411+371065084+371119208
2678+371262483+371387794+371268780+370866032+370429416+370218291+370226446
2668+370249111+370180826+370142402+370267394+370455738+370453562+370152269
2658+369692321+369250686+368848982+368463907+368204985+368216593+368473310
2648+368777417+368888711+368638495+368050508+367395077+367028228+367098400
2638+367398618+367562468+367461912+367330274+367435126+367760534+368093256
2628+368286243+368337493+368266393+368030484+367680466+367488843+367652258
2618+367916926+367805371+367180673+366356052+365736374+365533346+365707963
2608+366021531+366184598+366056124+365734111+365443556+365321728+365336093
2598+365430961+365649545+365977855+366156767+365894043+365315227+364948609
2588+365113069+365556359+365869724+365991727+366086653+366204419+366307152
2578+366425934+366587549+366709784+366717010+366679429+366694229+366694577
2568+366576405+366440415+366428081+366380023+365999737+365328199+364737049
2558+364464226+364427341+364493943+364682780+365007115+365313747+365435024
2548+365390855+365313660+365259159+365188262+365071599+364943966+364868454
2538+364854466+364806989+364601929+364262242+364016728+364074276+364353280
2528+364607791+364806553+365114027+365507924+365722851+365563353+365066549
2518+364475805+364198194+364518495+365209157+365705235+365736926+365508649
2508+365290414+365176334+365205384+365376315+365534333+365510188+365364591
2498+365292446+365330550+365305824+365033756+364527056+364057096+363935789
2488+364193464+364583298+364869586+364964339+364873765+364710147+364677325
2478+364884735+365218066+365453568+365488625+365434763+365441409+365468485
2468+365371672+365179614+365100561+365262758+365562947+365754048+365685414
2458+365484069+365366855+365270361+364936624+364396695+364032167+364066295
2448+364290015+364393067+364332879+364264419+364289667+364407520+364595718
2438+364828290+365067652+365295290+365494429+365601574+365571102+365506966
2428+365611382+365933279+366250736+366290813+366023592+365664809+365433370
2418+365399938+365546899+365873265+366398857+367059338+367614009+367775480
2408+367523320+367170748+367024716+367117089+367338806+367646483+368039887
2398+368511646+369087532+369810232+370707144+371919365+373863079+377139741
2388+382257296+389496638+399062098+411249660+426308058+444145734+464333412
2378+486378266+509709692+533318206+555903511+576651868+595352530+611892257
2368+626536357+639818925+650759471+656695931+656469396+651735144+644034868
2358+633295204+618778969+600025954+577417200+553656386+533816026+522180204
2348+520441579+528010333+541835993+556809941+568695398+575883460+578791791
2338+579555963+580413116+581672960+582591869+583266598+584121894+584687100
2328+584189106+582481126+579473602+574695355+568212205+561072375+554291937
2318+547890045+541152035+533673999+525961244+518721178+511746592+504146901
2308+495666377+486992169+478790387+471151519+463959481+457248200+451009577
2298+444987796+438976260+433200603+428109485+423837881+420126171+416705103
2288+413529201+410670060+408179974+406094755+404469309+403294235+402352486
2278+401333021+400194774+399200091+398491263+397918076+397351477+396846228
2268+396443915+396108059+395825602+395509567+394935568+394048668+393143051
2258+392479204+391955933+391385561+390821778+390391402+390043299+389683879
2248+389382064+389238093+389178310+389084690+389063650+389336531+389822307
2238+390094230+389913084+389591564+389619888+390085698+390643997+390931737
2228+390817541+390316267+389526877+388724021+388235082+388052861+387811700
2218+387311645+386760979+386352281+386014539+385761770+385829591+386238782
2208+386624727+386713530+386620200+386517235+386364354+386143826+386070839
2198+386325176+386737966+386975703+386934464+386763765+386639005+386714894
2188+387138392+387869103+388611741+389122155+389468139+389866767+390384234
2178+390875524+391155921+391225716+391319743+391642365+392098366+392424906
2168+392505613+392402531+392228088+392151909+392359610+392836593+393329160
2158+393596643+393570873+393296106+392930126+392781628+393117455+393910879
2148+394874189+395668600+396027614+395864838+395408981+395096516+395176381
2138+395464382+395608527+395575705+395708561+396238884+396928618+397378844
2128+397583555+397907455+398525362+399183521+399624663+399981356+400527669
2118+401244885+401906729+402458383+403025446+403611343+404054314+404283867
2108+404421048+404621696+404965765+405463875+406027862+406480845+406729175
2098+406883506+407121621+407488296+407881410+408166537+408285551+408310044
2088+408385933+408600193+408925108+409284934+409608921+409826575+409903828
2078+409905134+409937376+410004037+410024409+410039906+410248448+410770762
2068+411522570+412343593+413129587+413823239+414372657+414728566+414869084
2058+414812204+414595100+414307796+414181788+414492077+415275750+416286655
2048+417280437+418175404+418972224+419738078+420604953+421620501+422687038
2038+423708681+424642303+425412743+425991676+426556301+427351292+428361674
2028+429306905+430009756+430606130+431359970+432475494+434083091+436099590
2018+438041505+439340962+440014879+440719877+442034773+443929269+445955750
2008+447750966+449246922+450519680+451670319+452898530+454445532+456288662
1998+458119428+459825406+461713343+463973034+466193722+467765653+468577679
1988+468985506+469387442+470121896+471392158+473032723+474669980+476250560
1978+478064988+480156127+482095779+483536450+484736308+486347156+488720173
1968+491462274+493795707+495476698+497055072+498992315+500980228+502526796
1958+503864647+505723882+508375555+511322136+513882684+515896019+517843129
1948+520361656+523695720+527530099+531110375+533591522+534763201+535353133
1938+536237623+537760974+539967877+542849626+546073237+548949298+551010749
1928+552553021+554512030+557588623+561397058+564948313+568042782+571116706
1918+573794787+575169843+575523836+576165018+577816814+580190934+582553620
1908+584210582+584886414+584987580+585349119+586558699+588482128+590490646
1898+592195782+593625106+594712509+595463795+596574008+598550371+600261892
1888+600076450+598483392+597474518+597833968+598762164+599543167+600212325
1878+600792447+601086542+601335829+602380050+604964627+608925827+612642150
1868+613642259+611163143+607245648+604305452+603138823+603151418+603389213
1858+603214741+602557075+601736952+600979746+600397302+600333515+601115563
1848+602607397+604408475+605827004+605502437+602709318+598702729+595168191
1838+592754371+591321390+590659836+590863213+591999893+593319112+593450170
1828+592147434+590382979+588377247+585715882+582991831+581293254+580613184
1818+580040143+579050133+578060065+577844848+578549817+579237026+578784362
1808+577300886+575966575+575747179+576790471+578507215+579826319+579910421
1798+579111541+578897252+580582248+583906039+586419284+585683959+582775802
1788+580710345+580829794+582376826+584081440+585469671+586562413+587255078
1778+587741812+589028354+592379076+597888178+603147065+604975074+603527293
1768+601264438+599785779+599927110+602059197+605063065+606921662+607520996
1758+608241172+609127520+609662080+610970098+614614160+619976940+624256961
1748+625792849+625682338+625567184+626200473+627785521+629990219+631742020
1738+632847300+635279867+640645433+646288610+647252037+644063367+640178549
1728+637040432+635139233+634859938+636067835+638657462+643261294+650317486
1718+658088050+662381710+661200745+657185102+653416309+651355380+651546336
1708+653991382+657737365+661162960+664133976+668518993+674930521+680105073
1698+681088118+679015117+675153690+670701867+667938523+667886808+669715224
1688+672951314+678934845+688076634+695263187+694805067+689930994+686286351
1678+686383048+690071106+694667335+697222602+698377681+700092568+701179913
1668+699279758+696216340+695704358+698360907+701187052+701239463+699645070
1658+699969985+705138152+716303317+729274842+732198845+725408830+721524999
1648+724272150+728655716+727611206+721882417+717150197+716301576+719492278
1638+725595839+731815250+733821040+731164608+728768084+729972034+734588055
1628+740441690+745522216+749885293+754368865+758503434+762047433+767015823
1618+775441324+785370326+791235744+791569539+789611459+787729704+786830819
1608+787338448+789091352+791328726+793044600+793486004+793048953+793165558
1598+794501842+796229556+797518014+798701591+800410442+802415303+804085092
1588+805209119+805954891+806829109+808626066+811563534+814777279+817560473
1578+820211276+822596945+823563681+823817205+825969723+830854824+836170184
1568+839117055+840269929+841654503+843944172+847947104+856027840+868761918
1558+877808751+875741264+869022640+864114961+861776130+860224281+858329815
1548+857240380+858961536+863707686+869918681+876181681+880815579+880044153
1538+873847203+868087247+865940185+865912441+865136371+863847971+864526183
1528+867305489+869583841+869918391+870451267+873686719+879035395+884020791
1518+887263440+888127210+886865335+885792733+887488292+892747817+900972844
1508+910149515+914092142+908042443+899559946+896701588+900573868+908166362
1498+914305792+914969958+911352653+908533240+910050091+915824093+922377822
1488+925238560+923912085+921834556+922020752+924949978+928897481+931931239
1478+934195313+937667921+943622954+950200886+952357293+947850564+941411234
1468+937987380+938075139+939208220+939545614+940178496+942862091+947230161
1458+950059614+946921207+938721602+931322386+927651103+927315914+928328850
1448+928663690+928204120+927955877+928026049+927989251+927999408+928607855
1438+930097658+932049875+933281859+933221032+932751304+932956770+933933837
1428+934921757+935344297+935278362+935330077+936524160+939853407+944492006
1418+946452814+943056762+937024824+931764603+927596834+923735175+920975951
1408+920872232+923476079+927127106+930114490+932146282+933987003+935924246
1398+937168244+936785520+934742061+932171414+930736634+931276650+933128979
1388+934604503+933933605+930865718+928028719+929185075+935292118+943167563
1378+949349885+953911754+958344888+962206895+964182736+964376477+963566511
1368+961856732+959950367+959840901+962841634+967737472+971630532+973498996
1358+974834061+976074171+975892966+974875967+976304943+981679331+988506144
1348+993478887+995769659+996427151+996509337+996441893+996232597+996433419
1338+998745203+1004116573+1010219147+1013079420+1011857188+1010115950
1330+1012179200+1019220070+1028284257+1034884477+1037296788+1037713756
1321+1039112550+1042602920+1047384126+1051307251+1052209444+1050782674
1312+1051012285+1055750077+1062852934+1066875542+1064254863+1056727840
1304+1049558120+1047182259+1050952503+1059020702+1067392806+1072559987
1295+1073741823+1071436192+1065642165+1057756680+1051930498+1051253853
1287+1054140825+1056034944+1054215002+1049522831+1044012045+1039465557
1278+1036862987+1035728977+1034316949+1030904820+1026018907+1022252377
1270+1020432203+1018353746+1014614263+1010987846+1009184504+1007949966
1261+1005467890+1002821673+1002585212+1004833499+1006446001+1004179258
1253+997969075+990591451+984381384+979605865+975612627+971957885+967957217
1243+962417527+955428663+948968670+944021001+938833274+931292727+921798396
1233+912181075+903119906+894458525+886834458+881244504+877553254+874525822
1223+871266109+867837844+864900085+863353053+863363385+863730031+862962552
1213+860711364+857949935+855924585+855101328+855469077+857332956+860762150
1203+864465240+866608356+866977208+866880859+867158413+867848349+869164957
1193+871631885+875785491+881936414+889606276+897073690+902301176+904923422
1183+906401849+908004136+909638288+910640428+911011776+912051876+915860659
1173+923571963+933785773+943004873+948591750+951321431+954029404+958513846
1163+964281928+969497341+972888808+975131232+977505236+979325758+978927015
1153+977494789+978593045+982910270+987352980+990477806+994530943+1000474368
1143+1005676258+1007611702+1006124104+1001944553+996718170+993238596+992989251
1133+994555088+995502438+996147392+999897554+1008310170+1017557768+1022022650
1123+1021475785+1021231547+1024545123+1027692584+1024031110+1014085159
1114+1006836038+1008875376+1017699621+1025366871+1026989008+1025287935
1105+1025812512+1029834307+1033712972+1034423745+1032334724+1027761769
1097+1020614453+1013952129+1012388729+1016681113+1023199262+1028465810
1088+1031541997+1033197333+1034630024+1034443247+1028408001+1016649074
1080+1005987707+1001371454+1002038232+1006393067+1012938032+1016494336
1071+1012016685+1004313333+1003576441+1012152501+1022707885+1028340209
1063+1029296613+1028615440+1026955692+1023078420+1017417424+1011832578
1054+1006795525+1001744891+997203395+994216127+992951872+993317997+994512370
1044+994965440+994724336+995639763+998303160+1000680995+1001530487+1002088495
1034+1002038348+998602305+991948107+986703034+986227096+987979826+986097084
1024+979134570+973240887+974567071+981628255+986935199+986038810+981737372
1014+977895854+975898654+976145794+977422237+977910596+977073641+975620056
1004+974028913+971182627+965967969+958963549+951282427+944123444+939628323
994+938901762+939279901+936440232+930158891+924365155+921139918+918846244
984+915439454+910194613+903332627+896392750+891223015+888426529+887664273
974+888111888+888017571+885481748+880784411+875908365+871780238+867850729
964+863619927+859606026+857013265+856738033+858605975+861489233+864086231
954+865615212+866204679+866567553+867172401+868690412+872766359+879966958
944+887419049+891342986+891750552+891627853+892720480+894874333+897751960
934+901645194+907075650+913856669+920964401+927392587+932894376+937724395
924+941452501+943518364+944888834+947135727+949862738+950602126+947712774
914+942572175+938439115+937060229+937054251+936214800+934087820+931450425
904+929140267+928107249+928830849+931133462+934867372+939014769+941347040
894+941005526+939780333+939783235+941404850+943923840+945972755+945532860
884+942586337+940713578+943155200+948929086+954541038+958841605+963469292
874+968277140+970419559+969105969+967129780+966627549+967256427+968239239
864+968598631+967027570+964493140+964259872+967875320+971902165+970615216
854+964382572+961189548+967506991+980423551+989077734+986572790+978070674
844+972695589+974056889+979823984+986150017+991044056+994412655+996293308
834+996162134+994835776+994327450+994292509+991952170+987805702+987550437
824+993900615+1000811472+1001268256+996931994+995171602+999169833+1004344095
814+1005392088+1004019528+1005767499+1011628505+1015533521+1012504231
805+1005647353+1000491896+998958330+998831104+997410138+996014594+998792216
795+1006859835+1014818336+1015424868+1009248813+1003990043+1003685326
787+1005409732+1005265210+1002708376+998630397+993815991+989978767+988991137
777+990649492+991582911+986482942+973812767+959205814+949918458+948462899
767+951986642+956981789+963745162+972894206+979612250+978767053+974151496
757+973455755+977152926+979202595+977073525+974644034+975481918+979220239
747+983934582+988408054+991017009+990517158+987586538+984339826+983830572
737+986894571+989143437+987129754+985211026+989159921+997603531+1002748773
727+999771836+993446036+991973877+997632552+1005388953+1009291416+1008140457
717+1002904672+995258432+988968849+987032477+987840991+986946111+982752166
707+978429021+977526595+978825675+978886038+979268529+984734159+993547956
697+997616648+992866087+981904067+972614215+972642539+982257306+995142233
687+1004843830+1008636594+1005065199+993348875+978214268+968538616+969121582
677+975228510+975751810+965873652+952707514+942601428+933691340+924973079
667+921355367+920657943+918494688+917023806+919512035+926185445+933902727
657+940968611+946926837+949868252+952506227+959521036+968808624+971575509
647+963093998+949185396+937666180+932294403+933299678+942261132+960372269
637+979179494+981034261+964095732+951406229+956622223+971399237+978572963
627+968187466+944432978+920657711+907622631+906507775+911338258+915629423
617+914681667+904978445+886392706+866390469+856509002+860657792+875894899
607+890971987+894300885+890287680+891176640+901110866+907097648
##END=
