##TITLE=<SNM>
##JCAMP-DX=4.24
##DATA TYPE=INFRARED SPECTRUM
##DATE=29/4/2025
##SAMPLING PROCEDURE=Instrument type and / or accessory
##ORIGIN=Admin
##XUNITS=1/CM
##YUNITS=ABSORBANCE
##RESOLUTION=4
##FIRSTX=4497.3318
##LASTX=599.83466
##DELTAX=-1.4281778
##MAXY=2.1775401
##MINY=0.50676233
##XFACTOR=1
##YFACTOR=2.0279922e-09
##NPOINTS=2730
##FIRSTY=0.51605004
##XYDATA=(X++(Y..Y))
4497+254463521+254448326+254520275+254775888+255035557+255231742+255310568
4487+255068563+254617765+254580673+255307100+256368496+257082491+256995552
4477+255956993+254501905+253912235+254972484+256862323+258020562+257888656
4467+257135982+256494319+256126021+255983386+256078290+256291815+256523739
4457+256988234+257698584+257872961+256732092+254806543+253589522+253934689
4447+255292199+256444060+256699438+256263570+255715341+255599864+256334873
4437+257785288+259004807+259108175+258258717+257216690+256400532+255959697
4427+255938624+256058304+256146036+256632662+257880602+259220889+259434620
4417+258207165+256614675+256066269+256928247+258264184+258851386+258387420
4407+257627164+257386775+257634394+257779027+257617377+257492671+257510482
4397+257133102+255892598+254276183+253491914+254292995+256230212+258064972
4387+258776880+258168252+256715809+255169727+254094664+253474368+252843609
4377+251886962+250947744+250840732+251937368+253502907+254360946+254255668
4367+253919612+253810630+253682338+253394572+253098840+252652303+251864096
4357+251290472+251695921+252796612+253655387+254121087+254776388+255610327
4347+255796225+254913408+253626966+252870237+252820419+252863594+252336467
4337+251215966+250137024+249883762+250850490+252761637+254756196+255836843
4327+255470896+253925225+252079003+250842731+250655922+251317277+252074917
4317+252161856+251641577+251436281+252113302+253028243+253176961+252554872
4307+252100047+252512284+253528594+254279181+254250642+253762987+253333909
4297+252919907+252222695+251369181+250738951+250543119+250987363+252242534
4287+253868677+254888426+254856537+254293729+253702412+252927343+251893311
4277+251068483+250701948+250521487+250589909+251393458+252754348+253837376
4267+254431220+255022743+255641217+255813418+255470338+254974718+254537762
4257+254170346+253865914+253677430+253893689+254910146+256593984+257999048
4247+258090483+256837400+255380254+255008488+256076703+257755691+258580901
4237+257575142+255311333+253439099+252864682+253041586+253199210+253333585
4227+253648069+253951383+253981068+253703529+253178783+252568862+252233305
4217+252477720+253291321+254452352+255682041+256616027+256873668+256346071
4207+255416405+254836463+255175488+256200057+256996610+256932450+256284115
4197+255759809+255748788+256203789+256889245+257502341+257675013+257049250
4187+255615588+254042319+253214963+253242797+253445947+253443831+253606716
4177+254326706+255463254+256643272+257668370+258498724+259066616+259256834
4167+259005894+258323730+257349978+256496611+256324468+257060918+258296191
4157+259329665+259744842+259536754+258911314+258109235+257283525+256577583
4147+256340310+256890921+257880338+258323142+257591484+256096777+254775153
4137+254312128+254855978+255908939+256650943+256819883+256933155+257398679
4127+257946468+258158935+257954021+257416725+256806039+256613881+257017713
4117+257507572+257530027+257142243+256696881+256382486+256231916+256116263
4107+255805512+255359210+255235416+255765452+256746582+257641977+258017182
4097+257937650+257915254+258064972+257698761+256399415+254890043+254136194
4087+254231714+254767600+255636984+256820265+257854062+258160669+257704022
4077+256983855+256557157+256707021+257352447+258098331+258546925+258660521
4067+258601857+258338808+257857883+257542871+257704609+257952698+257705315
4057+257131045+256852595+256882897+256624256+255997024+255855036+256879311
4047+258522854+259501485+259149352+257984441+256984060+256535525+256239705
4037+255760632+255526445+256132692+257332520+258242111+258472419+258452374
4027+258598271+258753014+258705577+258774969+259244343+259640239+259409432
4017+258940382+259024587+259660225+260147087+260011947+259342303+258536285
4007+257975388+257752987+257774971+258130808+258955841+259914163+260328987
3997+259990844+259473975+259448757+259943495+260533049+260965096+261223178
3987+261291865+261319874+261647936+262199663+262264265+261386092+260149967
3977+259608762+260074197+260771233+260743811+260024703+259607410+260258067
3967+261784869+263487105+264798060+265380148+265247300+265004237+265278455
3957+265799321+265705976+264811403+263930585+263919035+264780190+265667268
3947+265725697+265049147+264543240+264794386+265431670+265688811+265256176
3937+264458565+264049354+264819838+266834177+268902449+269550960+268902096
3927+268540881+269357333+270483359+270735475+270432660+270809687+272155940
3917+273258601+272690327+270477393+268065717+266679522+266295882+266511288
3907+267865976+271361914+276706896+281858867+284973134+285697973+283986244
3897+280083359+275763945+273363791+273714337+275413135+276286399+276248632
3887+277007271+278925855+280416917+280762231+280929966+280799587+279183408
3878+276902081+276177329+277592181+279979638+282424761+284441245+284925550
3868+283862449+283104926+283497707+283503938+281732457+279272550+277999540
3858+278900343+282762786+289947907+296629119+296084681+289470568+282510083
3848+278117339+276839008+278309673+281691691+285869499+289721655+292073755
3838+292017677+290103032+287894948+286053810+284209233+282296557+281005736
3828+280751151+281235103+282650395+286045904+290856058+293349970+291591626
3818+288573086+286780178+285333761+283060722+280980459+280894109+283665530
3808+287994054+290964305+292065320+293753243+296659510+298075654+296895137
3798+295362310+294560730+293423241+291574197+290353943+290972858+293307323
3788+296558316+300185543+303898327+307565467+311433700+315590640+319276326
3778+321777850+323654551+326153018+330448331+337295308+346021338+354433590
3768+361216143+366706963+370894235+373706186+376608191+381136397+386272439
3758+389418712+390647166+393117300+399566971+409437720+417883449+421082684
3748+421852551+424192836+428394774+431417605+431957164+432545601+435576926
3738+441863447+450465007+458061718+460972864+459424313+457157652+457370325
3728+460838429+465947402+469882323+471363275+471212146+470001356+467654223
3718+464687911+461945852+460119703+460128550+462218805+464130541+462952962
3708+458974895+455285595+454597758+457088289+460360474+462117083+462705343
3698+463618756+465648408+469252974+474777153+481632977+487493329+489015428
3688+485586120+480808443+477773620+477023122+478477298+482417304+488915999
3678+496928240+502774631+501937694+496838245+493857942+493917371+492219190
3668+486451155+480340862+476983326+476030824+475989001+476505841+478011128
3658+479809679+480078430+478801304+478722096+482093651+488163561+492615968
3648+491499317+486518901+481192171+476759661+473277185+471037652+470386613
3638+471039269+472446214+474334789+476657028+479796012+483909689+486482456
3628+484056438+478660463+474639956+473539675+475112680+478833546+483221088
3618+486064870+487327123+488832763+490931278+492329700+492824144+493656497
3608+494932711+495135273+493935240+492991820+493399090+494204520+494336780
3598+494635862+496220447+498023523+498110756+497356466+499068666+504776215
3588+511588922+514777137+513376657+510007336+506990060+505226367+504405536
3578+503565601+502609043+502736658+504867973+508633896+513137180+517747564
3568+521519247+522614707+520487977+517533010+516328803+516803702+516971936
3558+515894816+514570812+514142292+514611372+515054822+514888822+514964827
3548+516317928+518114363+518437370+516963707+515268260+514931263+516219057
3538+517918972+518434489+517688253+517099728+517556640+518353723+517935901
3528+515552882+512348738+510166517+509468071+509106268+508024798+506360917
3518+504917585+504407476+504930165+505776683+506199560+506326529+506843046
3508+507782146+508143949+507320943+506245704+506179398+506980478+507755048
3498+508406351+509198555+509664226+509306068+508718954+508643478+508436624
3488+506808835+503985422+501873152+501762289+502801495+503247238+502670705
3478+502024750+502109279+503042324+504620737+506039144+505604393+502161947
3468+497034518+493279998+492758867+494625517+496504598+496669423+495195466
3458+493197116+491322825+489547375+488164031+488036033+489538088+491654208
3448+492448763+490855890+488011022+485954683+485359075+485398018+485319280
3438+485056495+484741365+484661451+485275134+486678112+488267340+489019073
3428+488112685+485571601+482340212+479587895+477979915+477402618+477214428
3418+477028295+477127489+477731003+478463161+479147941+480194906+481515560
3408+482040629+481038897+479171160+477681391+476999756+476607916+476207229
3398+476344367+477290697+477998049+477188299+475272008+474195182+474987651
3388+476354595+476611560+476125816+476248993+477056980+477840925+478490995
3378+479214365+480179212+481833453+484270522+486511318+487619681+488065248
3368+489035767+490836345+492537142+493033291+492257957+491190301+490727805
3358+490902358+491178074+491194122+491077704+491195356+491739265+492512277
3348+493094277+493286112+493500489+494360704+495488906+495513712+494063914
3338+492633720+492639217+493771356+494882158+495472623+495547981+494695643
3328+492403766+489342814+487213586+486928141+487779773+488584557+488798523
3318+488381289+487595492+487126354+487309930+487349166+486342820+484817164
3308+484171386+484832800+485822864+486024310+485303115+484448984+484383413
3298+485370038+486843172+487908829+488025982+487306079+486314046+485591205
3288+485368892+485839323+487364802+489901301+492504753+494201758+495169308
3278+496179358+497173360+497246426+495983026+494163549+493017743+493131868
3268+494011833+494571085+494209928+493197704+491907675+490408707+488896277
3258+487758171+487267342+487524160+488276892+488810221+488604690+487913532
3248+487200272+486608338+486301614+486388552+486330711+485431935+484097556
3238+483537776+484269346+485755471+487068483+487389579+486530863+485329537
3228+484906395+485341587+485668121+485169151+484023167+482712448+481456455
3218+480162371+478656466+477137747+476274681+476474510+477288493+477951053
3208+478255015+478447055+478494022+477973978+476738500+475249700+474067214
3198+473285061+472755142+472527451+472543234+472372149+471924760+471748443
3188+471930902+471711998+470782950+469787067+469161215+468549678+467483903
3178+465965536+464414163+463372842+462943175+462485029+461319589+459548049
3168+457859009+456810839+456526481+456852897+457592815+458505110+459135605
3158+458902300+457547288+455443806+453339002+451768202+450741458+449990107
3148+449406197+449097621+449050449+448994165+448716714+448251720+447649587
3138+446888097+446128194+445731739+445760072+445765744+445388100+444849481
3128+444689682+445196735+446003723+446150942+444959491+442950619+441350046
3118+440758670+440800376+440821567+440506613+439995975+439678405+439750795
3108+439904246+439613775+438697570+437434729+436246481+435448458+435238078
3098+435541275+435784896+435327015+434311292+433504922+433235260+433176889
3088+433061353+432849268+432404318+431683387+431010628+430704198+430698761
3078+430799895+430992817+431218599+431106208+430312828+429087695+428130696
3068+427866853+428098572+428274006+427883371+426768572+425352016+424413562
3058+424315191+424583971+424577534+424307108+424127647+423997768+423707797
3048+423450303+423424997+423307257+422698070+421699865+420681204+419877302
3038+419390029+419174241+418967534+418496221+417796657+417267825+417296246
3028+417748632+418018147+417679710+416862642+415996137+415481178+415462309
3018+415686151+415798542+415753926+415649324+415433006+415064444+414610853
3008+414068149+413491704+413174752+413162643+412878167+411857096+410529976
2998+409651569+409279009+408905420+408355133+407950420+407884320+407929640
2988+407803729+407497828+407141140+406770725+406364043+405976728+405755121
2978+405751006+405731902+405316813+404451720+403612608+403284399+403381389
2968+403441082+403224676+402796950+402230762+401610789+401116169+400860526
2958+400764329+400644502+400405495+400133364+399963778+399951170+400119580
2948+400356794+400235703+399491113+398661406+398494406+398782761+398600273
2938+397623905+396480890+395847633+395802576+395995116+396022244+395628317
2928+394846341+394057282+393633611+393429080+393023132+392503441+392361806
2918+392564515+392455915+391724698+390865600+390485193+390564989+390631471
2908+390468410+390378298+390713208+391351961+391682845+391102844+389682907
2898+388261090+387622954+387745778+388025874+387972295+387560263+387211392
2888+387388561+387881682+387796478+386667130+385170601+384320996+384373724
2878+384831576+385195231+385383215+385503630+385418749+384776968+383627223
2868+382630046+382332786+382567972+382843013+382982121+383053981+382943883
2858+382420195+381557629+380793816+380453704+380377934+380230774+380002641
2848+379867883+379738211+379393748+378917233+378610950+378580324+378674140
2838+378759080+378809868+378740652+378413971+377878732+377342671+376869799
2828+376368831+375830300+375287625+374670209+373971498+373415568+373241221
2818+373422827+373716502+373925736+374021903+373971645+373657103+373104112
2808+372561172+372220414+372073371+372069902+372125951+372061820+371804296
2798+371489372+371182178+370755979+370236964+369962600+370095271+370187882
2788+369623722+368406642+367135277+366308539+366002461+366030647+366099040
2778+365965987+365633752+365281707+365021274+364810952+364544640+364196857
2768+363926401+363914204+364040879+363890897+363127085+361827769+360556051
2758+360033216+360477901+361285711+361598079+361152453+360364422+359679760
2748+359149018+358643640+358211417+358020140+358082626+358226935+358242013
2738+357961447+357390557+356835802+356659662+356792274+356737842+356214007
2728+355557236+355298361+355496485+355693699+355471091+354885477+354334661
2718+354104882+354080576+353857381+353178038+352288403+351775413+351951671
2708+352481766+352754837+352521444+351987322+351436594+351006545+350747640
2698+350680511+350751167+350814182+350714458+350408968+350009486+349681836
2688+349486915+349339431+349146244+348940273+348774302+348536911+348067185
2678+347416674+346768868+346181196+345691807+345543676+345909094+346466582
2668+346647601+346312926+345842847+345577741+345514227+345504469+345401571
2658+345066514+344569278+344295530+344531510+345016226+345153306+344645783
2648+343766640+343002152+342569458+342357167+342212123+342113398+342123538
2638+342316578+342681967+343010352+343022814+342706390+342373597+342315843
2628+342491778+342603522+342433819+342016144+341464799+340846736+340314231
2618+340091183+340183353+340344180+340410574+340452339+340577721+340742369
2608+340757094+340483258+340062938+339841242+339977175+340268146+340393704
2598+340200399+339764384+339295070+338978117+338891796+339056092+339421539
2588+339771144+339845709+339647849+339423243+339306885+339190203+338979558
2578+338799420+338822345+338989345+339042190+338827400+338447816+338101620
2568+337895560+337827138+337824052+337774734+337612231+337389859+337227063
2558+337193939+337273412+337388889+337457752+337479590+337546807+337666663
2548+337660109+337423482+337179802+337233058+337589923+338025262+338364111
2538+338540339+338545835+338431416+338251543+338019237+337774998+337579196
2528+337406083+337208899+337084840+337233911+337743491+338453283+339011770
2518+339127864+338842155+338474444+338280111+338271794+338370694+338552713
2508+338785401+338960395+338975737+338821787+338556886+338299451+338231322
2498+338438499+338769148+339038016+339282314+339573784+339736757+339588450
2488+339338862+339365490+339609670+339586481+339111582+338641032+338636947
2478+338941761+339108172+339047892+338990520+339059031+339219123+339449343
2468+339744839+340080190+340439583+340771907+340933028+340784515+340339654
2458+339795539+339438409+339439056+339697138+339971473+340172507+340383887
2448+340617663+340739518+340666863+340496484+340390559+340422448+340553561
2438+340683381+340708981+340631241+340609139+340800122+341171594+341583097
2428+341968089+342278223+342382414+342239721+342068930+342146992+342495363
2418+342869158+343037715+343062580+343245891+343729343+344266375+344536624
2408+344512788+344359926+344207034+344185256+344447599+344977607+345541854
2398+345936193+346175465+346406478+346717199+347064629+347346577+347483686
2388+347433839+347214935+346933134+346646396+346157742+345106986+343358017
2378+341184908+339020382+337119227+335475714+333900682+332097252+329866390
2368+327430290+325375362+324079515+323434824+323297892+323831925+325209539
2358+327351670+330143017+333718428+338318614+343564430+348094195+350510250
2348+350451174+348758666+347024158+346486480+347011461+347735008+348373497
2338+349222455+350291728+351123610+351468601+351661641+352214690+353318527
2328+354763386+356159663+357265469+358178852+359124506+360092380+360892607
2318+361515343+362194862+363107599+364146922+365014690+365510898+365753579
2308+366077203+366656440+367316796+367818970+368166812+368439119+368539225
2298+368397208+368207695+368205579+368395474+368645179+368849887+368973594
2288+369117375+369476238+370068936+370632861+370890149+370803446+370558472
2278+370400525+370440703+370571169+370632596+370596328+370490138+370310471
2268+370111994+369995371+369938587+369804447+369534256+369233087+369085191
2258+369197406+369444026+369520001+369268562+368884686+368691705+368823435
2248+369190352+369602120+369855734+369882392+369871547+370054358+370347386
2238+370466743+370386418+370344418+370416308+370485965+370601912+370940173
2228+371433118+371779961+371800799+371553591+371168011+370711129+370168248
2218+369523322+368876457+368400882+368132807+367908965+367595804+367309301
2208+367290226+367576230+367936210+368163520+368277234+368393299+368572407
2198+368811620+369036050+369152291+369203372+369326403+369521206+369682181
2188+369845095+370158726+370666807+371302710+371978379+372558557+372914951
2178+373097851+373340797+373838357+374536715+375143110+375408951+375427115
2168+375517462+375827184+376245712+376667942+377078799+377424613+377684782
2158+378011198+378505171+378929665+378943890+378575004+378190718+378050493
2148+378111039+378246355+378470079+378875351+379424021+379894776+380096722
2138+380088757+380118001+380366325+380815977+381346043+381877814+382371406
2128+382744318+382935007+383024003+383138040+383287434+383461076+383766124
2118+384280231+384900880+385508773+386150084+386942259+387906224+388921270
2108+389766025+390269551+390520903+390841940+391445983+392184343+392737775
2098+393020898+393261786+393693863+394338701+395119971+395964227+396669727
2088+396944415+396806954+396719280+397071678+397718720+398218690+398358679
2078+398283732+398260983+398438857+398772416+399151353+399595686+400251428
2068+401185708+402238962+403084334+403470296+403455219+403332806+403321020
2058+403442287+403681382+404103055+404782397+405666242+406519726+407083210
2048+407339029+407550144+408008261+408786710+409700446+410502084+411169024
2038+411934923+412987708+414246111+415451670+416399969+417154406+418038985
2028+419231524+420461124+421408865+422243980+423409097+425035005+426838317
2018+428445885+429699821+430783554+432072259+433781814+435787277+437775987
2008+439536888+441134493+442787587+444522683+446090514+447361350+448577960
1998+450043952+451835742+453932611+456242388+458382697+459886926+460777267
1988+461538405+462543311+463834250+465300683+466783457+468128682+469306701
1978+470442309+471758671+473474163+475598542+477908877+480283020+482808145
1968+485407688+487778304+489856774+491872171+493876870+495745841+497625746
1958+499906602+502716908+505736653+508518919+510883422+513019028+515251095
1948+517747093+520501085+523495143+526614406+529428238+531478904+532910420
1938+534366566+536244179+538448912+540847920+543536841+546498098+549387817
1928+552021306+554807629+558134157+561459333+563875564+565602106+567689747
1918+570232124+572235764+573406230+574587688+576374776+578548297+580674733
1908+582420321+583429959+583663794+583846135+584983154+587286230+589936531
1898+592072196+593552795+594603581+595453626+596475902+597797261+598777274
1888+598844168+598515635+598652068+599499880+600906884+602532322+603702905
1878+603906408+603374314+602710490+602502755+603572115+606600854+610742688
1868+613370651+612811576+610312463+607916511+606373897+605423570+604653468
1858+603788433+602838399+602133428+601911173+602052955+602314476+602559479
1848+602937035+603782555+604615553+603655880+600139016+595945925+593175474
1838+592203338+592049447+591662662+591124161+591429415+592805794+593856051
1828+593343296+591704926+589563559+586834608+583872646+581597668+580260967
1818+579255149+578165274+577387471+577450544+578097851+578421328+577883179
1808+576844091+576049301+576102969+577268144+579136527+580579565+580706299
1798+579960297+579779954+581321393+584408913+586994730+586729683+584171787
1788+582024131+581830797+583046407+584387047+585489796+586727978+588037169
1778+589116523+590575725+593811377+599219314+604458194+606225238+604631542
1768+602208610+600590108+600563656+602533321+605576814+607779138+608797711
1758+609828041+611058817+612116068+614041588+618229154+623752303+627342704
1748+627319602+625535101+624547329+625391261+627590881+629853280+631042673
1738+631691567+633833580+638316172+642447719+642833563+640873656+639288073
1728+638530197+638335688+638828986+640098675+642416976+646672141+653307327
1718+660412534+663904533+662284091+658229784+654482613+652653084+653854410
1708+658183288+663836698+668086161+670574929+673547002+677763489+680607358
1698+680454643+678786588+676154392+672810289+670720473+671225587+673550941
1688+676755202+681906027+689773459+695785557+694240886+688239133+683710868
1678+683402968+687155489+692061076+694837581+696105566+698272327+700576754
1668+700366080+698545075+698099096+699444144+700504864+699994813+699180390
1658+700162166+704690549+713755662+724339760+727268510+722383203+718954042
1648+719361812+719820958+716819082+712225804+709218168+708696302+710728922
1638+715439823+721604049+725069537+723166766+719264117+717189761+717553563
1628+718926062+720113574+721209798+722113335+721971495+721372801+722495888
1618+726080939+729307185+728470601+724755348+721910949+721510527+722808138
1608+724250000+725045025+725634902+726653358+727933452+728965545+729873020
1598+731137537+732769793+734491398+736363485+738621593+741140340+743509369
1588+745567265+747621106+749909251+752114808+753917238+755872619+759192975
1578+764524672+770274896+772657974+771179609+769862600+771035358+772719636
1568+771848018+769063048+766689434+765781488+767583507+773996204+783321956
1558+786524337+781222795+775190123+771352428+768659216+766568284+765390706
1548+765405284+767121540+771221873+777589131+784788977+789770333+788941391
1538+784119509+781081953+782050033+785109338+786748766+786419764+787227956
1528+791692326+799432730+807899209+815336945+821608623+826260508+829119837
1518+831543357+834379056+836950824+838755605+840789048+845017997+853246878
1508+865227105+875039866+875491370+870828318+868195475+869200235+873035226
1498+878798794+884937038+889112142+891094327+893311758+897512726+902430245
1488+905454223+906529815+907419714+908399256+908576131+908347587+910002416
1478+915465431+924009443+932468045+937701988+938942874+938124218+938389854
1468+941889788+948238119+953679562+954221472+951708780+950889830+953002806
1458+954848911+951933915+945446271+940576718+939004301+939561260+940437581
1448+940173297+938552033+936473916+935135980+935294339+936895558+939414834
1438+941791270+941946278+939048858+936105471+936341950+939640028+942877795
1428+943121564+940592706+937030287+933816267+932527003+934886216+940661129
1418+945400421+944254644+938603996+933596305+932797283+936505893+942605635
1408+948013454+950060946+948201145+944520867+942054848+942619566+945756346
1398+949218072+950839102+949792137+946654122+943393724+941702862+940943047
1388+939065199+936085955+935238966+938697401+944671643+950168341+954656459
1378+959154040+963170315+965477271+967079431+970729612+977077120+983038724
1368+985188438+984112141+983455429+985541717+989464764+992709644+994339432
1358+995408440+996500961+997753604+1000051154+1003375860+1005757351+1006168824
1348+1006711969+1009308955+1012540903+1014325875+1015005746+1015883948
1340+1016593681+1015933796+1014982586+1016482348+1021338206+1027857709
1331+1033559791+1036677820+1036478431+1034046035+1032213685+1033294802
1322+1037607515+1043764569+1049587506+1053322745+1054563984+1053652982
1314+1051052822+1048265266+1047790073+1051344851+1058873405+1067974963
1305+1073741823+1072263458+1065747599+1060419134+1059704111+1062471799
1297+1065865985+1068636965+1071117328+1072103100+1070227957+1066650607
1288+1063065497+1060174837+1057894803+1055460409+1051687667+1046473122
1280+1041146069+1036345467+1031955515+1029009130+1028919076+1030960690
1271+1032741900+1033391322+1034344060+1035675823+1033581188+1024818566
1263+1012752635+1004578891+1003861399+1008045614+1011946382+1012470129
1254+1009563128+1004389378+998885273+995417257+994135811+991891282+985725999
1244+976197213+965744023+956028017+947751992+941327010+936767061+933276473
1234+929595255+924608078+917758103+909519522+901632869+895831210+891834568
1224+887701317+882478014+877485900+874548802+874033520+874923948+875658252
1214+874700459+871620110+867975337+866294056+867826912+871673837+876592414
1204+882197977+886983883+887900059+884596514+881701504+883794494+890038898
1194+895655805+898057046+899313804+902026884+905823079+909034454+911157187
1184+912331708+912795850+913680636+916427104+920973122+925785716+930320212
1174+935666134+942124505+948174517+952919923+958221465+966080373+975015755
1164+981755044+986049123+990647457+996054688+1000025995+1002007299+1003190344
1154+1003103700+1000219858+995211285+991279362+991474636+996194354+1002700926
1144+1007468610+1009558543+1010751934+1012960841+1016579339+1020410392
1135+1022676435+1023614712+1025638692+1029059917+1031466920+1031841360
1127+1031514180+1030747194+1028384983+1024831498+1021814339+1020389583
1118+1021666914+1025588374+1029829608+1033022760+1036642786+1042076705
1110+1046857439+1046271853+1040498057+1034809848+1032512180+1031876277
1101+1031005834+1032073902+1037472787+1044643476+1048411633+1047531903
1093+1045271502+1045344745+1048532724+1052791239+1054880819+1052618067
1084+1047367548+1043362030+1043043315+1042401181+1037514051+1033200869
1075+1036018757+1043952318+1047973943+1042945031+1033540628+1025029358
1067+1016157167+1005422882+996645094+994728451+999778994+1006694923+1009664938
1057+1008205971+1006782625+1009307074+1015507039+1022124708+1026439889
1048+1027633280+1027250727+1028558272+1032492194+1035580361+1034136442
1040+1029254956+1025280710+1024272482+1024291410+1022266725+1016837156
1031+1009606627+1004994244+1006790502+1013186446+1017255919+1015176332
1023+1010231361+1006318953+1004053968+1003662245+1005592526+1007606513
1014+1006273926+1002119220+999276408+1000046334+1002238194+1001653549+996197529
1004+987932084+980702143+975319952+969577193+963203704+959013081+958230400
994+958227696+956007209+951410227+946339522+942587060+939712917+934995844
984+927156628+919414225+915740707+915755873+915728481+913738007+911603165
974+911290622+911673880+909959387+904995018+897888577+890557707+884802016
964+881789619+881651775+883433925+885221425+884825764+881612391+877753416
954+876154254+877602523+880986187+885040141+889312706+893421327+896595257
944+899114651+902315621+906272996+909181585+909994950+909905014+910576362
934+912945392+917609973+924190492+931115532+937695580+945029155+953665395
924+961782533+967156377+970127803+972647079+974117861+971438875+964548340
914+957925851+954949722+954324517+953302123+952065175+953249631+957925674
904+963076735+963980624+959991271+954958774+952240169+953359494+959041532
894+968496605+978333113+984081868+983934090+980306364+977047024+975809194
884+976191453+978028976+980280088+979274976+973012526+965511600+962586846
874+966111645+973721789+981176983+985209658+986052473+986239165+986661689
864+985783311+982501222+978112152+975926934+978334348+983771676+988638996
854+990900689+990794999+990146752+990504381+991420674+992431253+995229743
844+1000593476+1005843878+1008812012+1010099924+1009073827+1004586532+999649909
834+998441705+1000280991+1000231144+995205642+988486163+986110550+990024721
824+996692355+1003072898+1010749347+1020330801+1028779410+1034915303+1040178401
814+1043312418+1040985477+1035751417+1035910128+1043536848+1051620891
805+1053070923+1047770557+1041104569+1037024280+1035778809+1036183934
797+1036499593+1035061434+1033217916+1034424121+1039011933+1043032616
788+1043824174+1043039553+1041583524+1037204859+1028566972+1017832804
780+1009308014+1005656834+1006691278+1010124848+1010343399+1001166012+985649288
770+974065781+971100350+973259528+975157302+976971783+983395824+995032236
760+1005354107+1007528568+1002205159+996563858+996322146+1000765942+1005109104
750+1006184225+1004517758+1002342356+1002215152+1005301438+1010011046
741+1014086867+1016998454+1019837856+1023328562+1026242147+1027091311
733+1024665851+1019172797+1012453553+1006711499+1004223143+1006223021
724+1011885602+1017564171+1019764496+1017674211+1013606149+1012334461
716+1016397350+1023183253+1025939185+1020886878+1012979181+1010015514
707+1013485999+1015262623+1006959676+994354362+989840733+997590895+1010253580
697+1016685851+1013799071+1007051846+1001153315+997322380+996387394+998372107
687+998346361+992090318+985376716+986722705+995606418+1002598057+1000303799
677+990540003+980397182+975068248+973931346+972316137+969373984+972949042
667+988297590+1008133434+1019037481+1010498113+985773847+962011136+952977823
657+959032068+969718269+972741012+965538992+953599912+941859104+935671954
647+937963626+944001941+949511629+957989218+973593820+989263142+987785247
637+966798865+946107568+939639440+945242945+954074283+959860775+961588023
627+958409097+949004224+936262947+927853370+927561341+926964176+916806424
617+901321736+895342144+909109401+933968924+947012222+940137382+925382942
607+912117095+900722337+888935737+877028282+868396921+867927959
##END=
