##TITLE=<SNM>
##JCAMP-DX=4.24
##DATA TYPE=INFRARED SPECTRUM
##DATE=29/4/2025
##SAMPLING PROCEDURE=Instrument type and / or accessory
##ORIGIN=Admin
##XUNITS=1/CM
##YUNITS=ABSORBANCE
##RESOLUTION=4
##FIRSTX=4497.3318
##LASTX=599.83466
##DELTAX=-1.4281778
##MAXY=2.0471087
##MINY=0.41164047
##XFACTOR=1
##YFACTOR=1.9065185e-09
##NPOINTS=2730
##FIRSTY=0.42844307
##XYDATA=(X++(Y..Y))
4497+224725369+223927413+224182024+224571724+224550090+224171503+223497538
4487+222496837+221631976+221872331+223638412+225989279+227333958+227059057
4477+225994687+225153712+224696169+224453267+224660763+225456313+226208718
4467+226038519+224838606+223433073+222766142+223094472+223826431+224025377
4457+223257637+222035370+221246277+221149188+221282590+221366861+221700756
4447+222408392+222930182+222746868+222236552+222279727+223103304+224050388
4437+224574554+224720383+224512120+223869825+223126345+222705162+222577247
4427+222632693+222860089+222869906+222366233+222029415+222545233+223179243
4417+222797499+221793406+221519599+222323683+223356961+223864104+223738237
4407+223048905+221844662+220460607+219464345+219167216+219391954+219595590
4397+219172046+218146053+217578227+218418453+219986401+220645078+220001548
4387+219225757+219186443+219505410+219471583+218972053+218338652+217809172
4377+217467679+217486203+218024297+218848249+219437130+219484026+219047195
4367+218412137+217976088+217941198+218060766+218042789+218106301+218615663
4357+219218817+218997986+217728699+216482250+216571649+218182287+220283045
4347+221602088+221525492+220369208+218991296+218002803+217421644+217164407
4337+217373826+217982153+218449357+218282503+217579681+216882675+216662923
4327+217081683+218049261+219230306+220115801+220395375+220158772+219567656
4317+218653008+217605739+216888052+216868200+217547949+218605096+219551368
4307+220007629+219965845+219697509+219360816+218807169+217844078+216671411
4297+215912127+216012312+216827369+217930146+219030922+220016101+220770257
4287+221068371+220773321+220150456+219676594+219595559+219972113+220830330
4277+221886524+222566023+222595427+222197832+221687954+221203149+220706558
4267+220196101+219921153+220122866+220641092+221132540+221435375+221458401
4257+221188174+220957589+221120175+221440752+221412302+221074405+220954197
4247+221343991+222075013+222883959+223629549+224206065+224586356+224840029
4237+224754820+223872451+222322417+220957182+220265882+219964563+219955825
4227+220715171+222296000+223745208+224049013+223312973+222531430+222270301
4217+222107793+221638823+221263363+221352073+221475408+221235257+221027572
4207+221293235+221893121+222650122+223593080+224438932+224689557+224294651
4197+223633191+223061270+222872907+223254088+223985250+224628061+225039647
4187+225240125+225002365+224133831+222936794+222006186+221745807+222155673
4177+222919083+223721245+224526142+225439493+226297288+226593120+226066484
4167+225323614+225393238+226472333+227632385+228050254+227906473+227744105
4157+227602715+227091837+225990420+224643896+223731749+223572211+223968524
4147+224744878+225767636+226469535+226218769+225210393+224312221+224146227
4137+224713114+225602564+226320595+226584491+226441163+226180956+226151709
4127+226492998+226980773+227220815+227002423+226500736+226160275+226186599
4117+226209468+225864850+225501473+225672297+226217409+226557823+226560699
4107+226473521+226448572+226621476+227189207+228023477+228584643+228430654
4097+227559681+226316093+225282487+225041476+225661886+226623696+227447242
4087+228092210+228646545+229056082+229287120+229393870+229385116+229264923
4077+229112732+228942048+228655642+228271335+227950367+227734538+227547066
4067+227454557+227562589+227673121+227510847+227232164+227254877+227625600
4057+227899204+227691363+227178515+226931423+227241793+227794815+228154706
4047+228316057+228471375+228494244+228103605+227476629+227285077+227944599
4037+228966606+229362434+228777852+227904112+227609437+227973158+228381351
4027+228352636+228081924+228143951+228736881+229480783+229991599+230255526
4017+230347347+230193702+229806425+229439249+229306973+229354869+229447503
4007+229588642+229830732+230142305+230457364+230740237+230956144+231004258
3997+230758651+230248211+229756028+229591393+229756669+230036181+230370842
3987+230850426+231391552+231734389+231758524+231596235+231406090+231191324
3977+230889365+230537602+230368419+230716086+231608209+232554183+233030984
3967+232993890+232673688+232221757+231826976+231779440+232110162+232495532
3957+232640111+232505552+232340309+232652507+233811527+235478956+236683793
3947+236717135+235905298+235282167+235445848+235918366+235831140+234986820
3937+233970549+233736401+235096399+237882533+240528576+241304976+240172561
3927+238669438+238195357+238723337+239062750+238620307+238235249+238775391
3917+239599546+239265635+237657451+236092098+235537341+235842317+236619015
3907+238235406+241374397+245637737+249215575+250600725+249899545+247900206
3897+245219758+242676338+241364846+241862484+243252058+243649700+242904516
3887+242819182+244055376+245078931+245000756+245139723+246114741+246528062
3878+245786114+245309344+246101188+247736853+249736036+251806296+252769169
3868+252021515+250921474+250591236+250161002+248383822+245782862+243756011
3858+243402029+246042147+252945073+261147174+262615423+256679839+249509797
3848+245001741+243973825+245520357+248228130+251302030+254724207+258138271
3838+260127762+259687383+257694515+255572779+253709844+251851472+250260608
3828+249541467+249667272+250469058+252719975+256704522+259995454+260496797
3818+259826803+259230465+257274379+253304136+249240774+247233978+248436486
3808+252425769+256733066+259583040+262097119+264934682+265816285+263683575
3798+260886045+258905808+257111043+255177607+254088508+254637826+256434873
3788+258610445+260755113+262828609+264923365+267486824+270843222+274175016
3778+276170572+276959134+278152841+281421326+287400272+294903757+301499096
3768+306122608+309669121+312848598+316088633+320722369+327928255+336782233
3758+344900829+351635104+358907738+369025360+382056407+393889995+400335456
3748+403717272+408944891+416937432+423019548+424029831+423269000+424826959
3738+430001336+437097612+443168567+446839008+448607090+449379426+449923663
3728+450614433+451145226+450967243+450085828+448647389+446320189+443348395
3718+441219844+441437751+444635581+450401653+456186014+457906732+455012691
3708+451187682+449377426+450282601+453296069+456660939+458403948+458666750
3698+459500331+462175589+466202999+470802969+476133383+481866941+485146868
3688+483520973+479425285+476719294+476552315+478280630+481230570+485258698
3678+490438453+495459232+497070527+495138186+493163107+492285038+490073669
3668+485336107+479979526+475294112+471262044+468271993+467524480+469658534
3658+473652616+477348881+479768934+482395577+487184380+494208469+500091873
3648+500264229+495189708+489248028+485727934+485324414+486616602+487831787
3638+488760410+490308834+492766247+496120426+501335821+508771057+514325943
3628+512352553+505718603+501768165+503412099+509072844+515306370+519455644
3618+521685552+523874255+526593814+528603001+529003675+529042129+530289547
3608+531787074+531711478+530517334+529918511+530330753+530778572+531279040
3598+533293354+536807134+539290089+538893417+537408520+538516503+543830065
3588+550492090+553285431+551327391+548790787+548858504+550857749+552129615
3578+551801847+551800909+553959787+557797082+561427287+563582912+564168667
3568+563384388+561363134+558911817+557495013+557951336+559715729+561316301
3558+561553779+560758621+560653950+562143723+563932752+564323422+563765679
3548+563947946+565204743+566209180+565679262+563798068+561993033+561434540
3538+561873043+562089700+561471431+560589860+559942078+559215261+558377272
3528+558404721+559819712+561468179+561920564+560990221+559268034+557519398
3518+556703168+557252157+558330876+558750059+558443863+558495261+559799391
3508+561836402+563108956+563103078+562958516+563501002+563683081+562200623
3498+559774880+558855292+561091265+565292344+568386190+568371184+565941689
3488+563788127+564501437+568176662+571856388+572608966+570915166+569086308
3478+567595096+565420712+562768370+561225574+561602613+563124213+564616425
3468+565428153+565362249+564663570+564054055+563795943+562813890+559919130
3458+555761508+552358965+550936596+551137433+552145497+553771955+556062014
3448+558293985+559239960+558583236+557216016+555907759+554561486+552829732
3438+550672606+548376482+546536681+545841878+546395494+547394179+547739642
3428+547099988+546092300+545347726+544991258+545212730+546497539+548811984
3418+550925841+551216593+549418935+547056595+545952114+546597457+547869511
3408+548329274+547922659+547638660+547441950+546057972+543513365+542249252
3398+544262191+548365977+551540484+552415990+551949974+551229973+550360595
3388+549297570+548478276+548457079+549472459+551136308+552454882+552710680
3378+552263236+552050831+552658533+554242972+556496703+558165992+557898563
3368+556183754+555160309+555954030+557597307+559175432+561345376+564871848
3358+568937868+571702134+572045095+570120945+566817820+563486058+561646882
3348+561937884+563543895+565358873+567181916+569183350+570947055+571815683
3338+571726019+571037844+570092245+569229808+568748973+568714083+568938493
3328+569159027+569138955+568755351+568006963+566877221+565418274+563956325
3318+562886922+562237764+561846219+561920501+562844716+564355811+565441346
3308+565364000+564485743+563765117+563884919+564996903+566687764+568047856
3298+568316347+567557580+566304597+565099197+564733788+565958759+568451594
3288+570783046+571674434+571015897+569912230+570052416+572618345+576845810
3278+580258170+581423990+581302062+580867498+579357465+576275687+573356479
3268+572554755+573203037+573161644+572362859+572703507+574372608+575239986
3258+574109119+572158770+570909539+570679438+570978006+571306461+571781856
3248+572989444+574801608+575845687+575052967+573290575+572306271+572479722
3238+572713199+572361733+571957932+571781293+571315215+570629229+570723270
3228+571830877+572726017+572282699+570712515+569070176+568407575+569168906
3218+570713328+571736461+571431078+569864459+567376626+564390014+561638441
3208+559811333+559120533+559558661+560999538+562720600+563589353+563076629
3198+561775063+560771814+560984156+562605174+564390201+564504251+562471616
3188+559638008+557783263+557700540+558839911+559771629+559369579+557848104
3178+556320627+555434866+554758509+553561551+551810539+549920716+548070974
3168+546412689+545376051+545199786+545568072+545811428+545237803+543687753
3158+542010336+541240626+541139144+540516311+539051611+537769052+537569153
3148+538036169+537918617+536461233+534166797+532264594+531473375+531444925
3138+531376770+530887620+530240776+529966844+530268538+530812337+531260720
3128+531705914+532107338+531749620+530015053+527537224+525744944+525253105
3118+525360214+525215464+524726251+523982083+522941411+522036955+522122618
3108+523207965+523976643+523401112+522112801+521275218+520877138+520188588
3098+519309049+519073322+519659045+520146007+519582137+518125659+516909286
3088+516772039+517244526+517162365+516284608+515504644+515346231+515308277
3078+514996985+514756756+514720271+514282580+513094094+511794091+511063023
3068+510627802+509920338+509100575+508690865+508649910+508384076+507487811
3058+506242706+505451674+505651574+506544431+507465613+508045335+508103923
3048+507530954+506695091+506329025+506654042+507044555+506673456+505324650
3038+503620409+502436643+502045880+501976193+501772542+501457405+501068017
3028+500374433+499308157+498216557+497415239+496852150+496381195+495928217
3018+495385668+494759021+494242765+493798540+492954204+491349662+489364454
3008+488067765+488380119+490054035+491647510+491899964+490893901+489509142
2998+488229867+486909167+485442216+484260702+483917240+484350241+485004650
2988+485517842+485732874+485328385+484225499+483037701+482360124+481978364
2978+481275121+480109926+478898399+478043058+477659954+477664581+477699502
2968+477254684+476325779+475553818+475325907+475325907+475227489+475085271
2958+474888341+474505550+474050070+473709797+473401850+472954968+472479543
2948+472333042+472670501+473055481+472717678+471475074+470106885+469375254
2938+469070215+468435158+467270276+466192150+465858974+466230479+466659947
2928+466637625+466313078+466146286+466179269+466008101+465536333+465263402
2918+465364102+465001413+463349663+460914291+459079554+458608006+459079179
2908+459594497+459627449+459233465+458760009+458414109+458033881+457347957
2898+456429370+455651031+455202242+454875694+454346745+453504628+452482683
2888+451531207+450918721+450821835+451180241+451697029+452125590+452434631
2878+452485091+451921283+450812363+449917567+449749212+449886991+449711852
2868+449189563+448502920+447645516+446767602+446302212+446412323+446687036
2858+446599341+446006271+445104879+444179538+443511373+443295654+443429962
2848+443507746+443246476+442820290+442538730+442333923+441827358+440862939
2838+439709186+438786910+438399898+438493751+438480871+437716882+436344910
2828+435178871+434722266+434810117+435087581+435357636+435502074+435364139
2818+434777071+433766788+432693039+431944870+431564485+431360991+431204110
2808+431005336+430665094+430260637+430083716+430278207+430497365+430191419
2798+429350459+428562116+428096570+427446912+426132965+424471492+423205754
2788+422719448+422788853+422921974+422887303+422864386+423009450+423104741
2778+422792824+421998885+421041155+420337068+419955308+419580864+419041347
2768+418594841+418533564+418803619+419110065+419102530+418422234+416978325
2758+415285119+414172353+414003436+414344272+414456977+413986241+413169354
2748+412490715+412138843+411856377+411392362+410843592+410341530+409746959
2738+408917410+407963964+407086769+406417572+406024995+405872554+405842603
2728+405848012+405802242+405620538+405394095+405280921+405103031+404455906
2718+403338107+402251259+401608823+401417521+401471888+401478735+401119391
2708+400339645+399411116+398526544+397677549+397012166+396808233+396998629
2698+397182521+397170735+397132656+397145724+396958236+396386331+395713507
2688+395398245+395450955+395380487+394830466+394042123+393518458+393350479
2678+393133384+392599277+391971785+391514086+391200824+391081554+391405538
2668+392086366+392566200+392438019+391808933+391012617+390291522+389705674
2658+389154809+388547482+387942813+387445940+387057396+386718999+386443097
2648+386291062+386197209+385965827+385590101+385375508+385506721+385704432
2638+385547833+384915151+383985215+383071818+382506697+382440480+382691371
2628+382868416+382695247+382244457+381799858+381477592+381124345+380606119
2618+380024960+379637104+379645420+379987694+380310616+380325122+380144356
2608+380070980+380147639+380140667+379924104+379668336+379570544+379554568
2598+379425574+379221642+379152330+379254781+379308523+379048223+378414884
2588+377700167+377353610+377494765+377769635+377793552+377516994+377125198
2578+376828256+376736123+376769762+376744564+376549729+376173190+375690855
2568+375307751+375198016+375286148+375384691+375444967+375493769+375477293
2558+375303624+374970792+374628737+374478171+374499524+374416801+374088877
2548+373725781+373603447+373798688+374186763+374474857+374374501+373946815
2538+373600445+373613889+373838862+373950129+373862716+373789684+373902546
2528+374115920+374303908+374495616+374675319+374645275+374330263+373996680
2518+373936654+374110449+374279428+374341518+374340361+374274207+374148403
2508+374096536+374178697+374183543+373914332+373542608+373402891+373546453
2498+373741726+373856619+374013813+374322760+374629487+374666566+374404952
2488+374146964+374219715+374600849+374940779+374973324+374741161+374405483
2478+374087001+373871407+373735692+373580687+373472702+373560115+373706929
2468+373633679+373393105+373289841+373450755+373774208+374095254+374248071
2458+374177009+374002839+373829920+373608918+373306505+373047267+372977956
2448+373115203+373417741+373879942+374390821+374633239+374390508+373891791
2438+373586345+373627426+373792154+373805378+373563179+373150218+372805599
2428+372823920+373314696+374023786+374535071+374703832+374746163+374864996
2418+375000398+375045543+375113698+375388692+375777049+375971383+375923206
2408+375938056+376177598+376449310+376654274+376995173+377544130+378020744
2398+378171560+378073611+378005144+378186504+378631729+379188065+379728925
2388+380272005+380900873+381633535+382351348+382837778+382977714+382929318
2378+383008134+383436132+384297601+385674919+387693954+390389878+393498387
2368+396431538+398678923+400255171+401507810+402469823+402742160+402197954
2358+401388977+400835799+400331048+399505532+398667699+398379230+398671732
2348+399280716+400222907+401743694+403612164+404965377+405416636+405653771
2338+406447429+407612154+408328372+408145949+407359357+406562291+406061823
2328+405700635+405156211+404356863+403490235+402645149+401687826+400564400
2318+399501968+398772182+398366255+397955702+397183147+396067661+395018548
2308+394315367+393740898+392950273+392062262+391557605+391654678+392102779
2298+392571640+392958308+393310680+393692659+394156204+394702473+395235174
2288+395597675+395688215+395588671+395550467+395713194+395864135+395673365
2278+395145197+394604399+394285292+394184154+394242929+394421163+394632787
2268+394801516+394909251+394898027+394716886+394549375+394720575+395270689
2258+395892616+396382579+396876263+397551526+398363348+399159726+399859499
2248+400416835+400735537+400762861+400625332+400490868+400316886+399966233
2238+399524197+399195960+398929375+398464517+397749987+397050401+396635565
2228+396513105+396457862+396255462+395946327+395836279+396209786+396998347
2218+397816641+398416558+398979491+399805819+400904610+402111604+403403667
2208+404845419+406408005+408054441+409844157+411780218+413699366+415472763
2198+417218492+419184597+421450083+423813768+425989840+427871597+429536228
2188+431046979+432421483+433776323+435250777+436757120+438022702+438886766
2178+439420686+439803290+440121210+440230601+439944320+439422812+439084164
2168+439049180+438989529+438534269+437560470+436179338+434657957+433265194
2158+432044132+430753758+429100163+426999561+424545368+421862794+419169216
2148+416718399+414518754+412568718+411460892+412023324+414239164+417235843
2138+420349292+423512106+426713437+429763420+432567735+435282822+438148789
2128+441182077+444182946+447188285+450571258+454474456+458598314+462651359
2118+466522263+470104322+473482229+477121313+481414900+486241783+491287760
2108+496596539+502574766+509643499+518073136+527946965+538992147+550515725
2098+561711410+571951492+580744256+587675398+592572467+595698015+597597904
2088+598570515+598397752+596638612+592939064+587253527+580079967+572094242
2078+563567781+554759197+546437950+539259263+533225637+528232089+524329797
2068+521208157+518174556+514793396+511204334+507827083+504831279+501921419
2058+498758042+495367786+491925506+488562449+485538570+483140527+481407053
2048+480185584+479273156+478569224+478312425+478804170+479887517+481367442
2038+483689203+487441648+492781941+499995769+509712904+521893580+535365881
2028+548798915+561518014+573215917+583580866+592468984+600029087+606414679
2018+611478633+614965588+616989344+618024357+618436661+618198433+616954516
2008+614271098+609949217+604220974+597639547+590712157+583650021+576501160
1998+569398881+562615054+556416856+550763270+545224047+539558331+534171987
1988+529513522+525481830+521933879+519136568+517223986+515867051+514832664
1978+514273014+514304402+514745594+515265289+515657773+516155833+517286075
1968+519100740+520924909+522228726+523267053+524530666+526117919+527865430
1958+529680595+531553410+533454987+535380763+537420401+539665878+542088120
1948+544685688+547752335+551617392+555895754+559433544+561556906+562911370
1938+564477177+566504684+568797182+571308150+574049468+576835805+579441815
1928+581888442+584465251+587374517+590366444+593040296+595465413+597898973
1918+600036278+601362292+602085857+602862383+603946667+605250860+606735506
1908+608265047+609510464+610433616+611501830+613070576+614863356+616366135
1898+617389518+617920999+617935818+617821268+618408149+619956948+621527069
1888+622000963+621435341+620708588+620437782+620660942+620997463+620946566
1878+620340552+619490245+618838023+618854280+620165789+622957441+625879526
1868+626422387+623623669+619294722+615753556+613796954+612653144+611177564
1858+609112853+607096476+605604889+604451137+603373855+602515669+602127375
1848+602303952+602997254+603637658+602903151+600118939+596462973+593577904
1838+592064683+591305415+590366132+589317613+589120902+589923501+590260773
1828+588849784+586105027+582843232+579357841+576130311+573885521+572777477
1818+572263690+571764723+571222675+571026965+571404129+571881837+571706510
1808+570923170+570406195+570848199+572330032+574506104+576551432+577451198
1798+577235604+577360034+579267614+582836542+585835160+585706103+582957657
1788+580530413+580424492+582477323+585322749+587970339+590074442+591391390
1778+592137528+593384883+596363992+601234862+606011128+607838986+606605449
1768+604579130+603502599+604046711+606204275+608905013+610450686+610709173
1758+611056887+611968659+613082831+615031179+618961640+624284769+628398810
1748+629797731+629667424+629681305+630533051+632260803+634423307+636081591
1738+637153933+639357954+644102519+649313975+650914609+649131521+646775995
1728+645143722+644613617+645356940+647054804+649509372+653453964+659628652
1718+666809277+671461364+671632376+669180184+666561607+665251661+666159181
1708+669548156+674404332+678802747+682385556+687132059+694065515+700340120
1698+702883790+702482991+700133968+696506077+693770386+693651647+696017927
1688+700130092+706347860+714756520+721337822+721515587+717933903+715373038
1678+716028824+719854739+724779757+728525450+731702270+735999828+740024517
1668+740662983+738985628+738768971+741024452+743407927+743907582+743816293
1658+745593066+750669213+759509122+769604266+773204521+769539113+766573322
1648+766874891+767153387+763796676+758470045+754816643+754177490+756185676
1638+759653685+762141518+760334232+754484561+748912761+746392539+746963662
1628+748995359+750599620+751237210+751145983+750347448+749678907+750882618
1618+754337934+757186487+756003847+752347506+749941834+749831598+750588177
1608+750702164+750350949+750512082+751270975+751882553+751978032+752104212
1598+753095456+755219255+757927372+760307407+761808061+762624791+763406319
1588+764612406+766223982+768018576+769814670+771489962+773378972+776461313
1578+780958708+784181611+782398522+777414791+774151995+773884629+773988362
1568+771745386+768074913+765475719+765327592+768606895+776588493+787626610
1558+792590458+787219120+778778509+771859623+767297262+765029338+764383994
1548+764977002+767610086+773084969+780709037+788631547+793917285+792693690
1538+786769424+783040989+784548333+789364491+792962495+793468528+793454396
1528+795072726+798017820+801886066+807985221+816883281+825562933+830595624
1518+832579800+833198819+833202571+834234833+838338369+845868584+855459633
1508+864880421+870704768+870814941+868355308+867207871+869006779+874029027
1498+880419496+884378407+884721681+884968538+888570981+895699209+903290513
1488+907403553+907363786+905855129+905565190+907473271+911293496+916871173
1478+924356869+932862696+940535535+946202439+949167105+948748047+946540899
1468+945584358+947086637+949458669+950522132+950957259+953059424+957122942
1458+960099738+957495042+949971205+942721487+938581810+937771770+938933776
1448+939768201+939105976+937994930+937699426+938292747+939684915+942379838
1438+946395023+949695835+949639748+947208502+945573040+945806454+946469430
1428+946125531+945269908+945504636+947976024+952730218+958774473+963731568
1418+964585127+961290006+956470158+951821822+947907369+945439357+945113153
1408+947063064+951082000+956488291+961675173+965077779+966351334+965883755
1398+964402173+962774714+960917719+958045156+954779297+953244817+954491734
1388+957334972+959882956+962008193+965312319+970328690+975687897+979825198
1378+982385375+984028590+985617531+987873888+991186768+995319004+999290420
1368+1001952453+1003291161+1004265522+1005228879+1005924807+1006816133
1360+1008683258+1010729648+1010834631+1008112822+1004557274+1003348811
1351+1005652063+1009646552+1012862764+1014786101+1016138315+1017336086
1342+1019269490+1023481386+1029937696+1035932492+1038772291+1038918104
1334+1039048661+1040730018+1042983248+1044283064+1045090791+1046832611
1325+1049415736+1051392471+1051989981+1051970347+1052039753+1051975350
1317+1052351763+1054605869+1058836711+1063574273+1067282137+1069223732
1308+1069525863+1069533116+1070908090+1073128556+1073741823+1072176767
1300+1070592202+1070199781+1069705566+1067756093+1064509180+1060469797
1291+1056273095+1053117097+1051228400+1049031881+1044774215+1038093308
1283+1030147287+1023058327+1018733569+1017334398+1016891268+1015118246
1274+1011948179+1009192167+1007481297+1005501310+1002775499+1000401091
1265+998318372+994819099+989291068+983184535+977642936+972293920+967023001
1255+962683612+959252056+955318344+950168165+944676650+939345893+933091358
1245+925102568+916685030+909544672+902930106+894716906+884885315+875569448
1235+868072747+861985598+856984734+853427749+851130499+849029584+846282326
1225+843142897+840547830+839073564+838575722+838809011+839840648+841516002
1215+843133268+844165405+844772732+845241811+845820188+847479222+851535237
1205+857818535+864338997+869387945+872947682+875468404+876996819+878100362
1195+879970426+883407296+888174371+893140032+896781180+897961318+897120140
1185+896660064+899058358+904140508+909298878+913134297+917455615+924674757
1175+934956545+946581229+957299644+964967856+968814343+970712607+973590734
1165+978612920+984892591+990756643+994509964+995195075+993688356+992102416
1155+991847305+992942907+994111728+993475264+990886012+989212533+990752954
1145+993765140+995149242+994987547+995734935+998531152+1002438915+1006300346
1135+1010024029+1013803486+1016887954+1018436815+1019557866+1022789147
1127+1028710286+1033525257+1032668197+1026308929+1018158757+1011882212
1118+1009209549+1010038410+1013279133+1017379918+1021749382+1027558973
1110+1035393383+1042514169+1043780783+1036627732+1025959777+1020778459
1101+1025795143+1037623728+1047718247+1049559298+1043204907+1033527383
1093+1025729552+1022594187+1023969223+1027260343+1028627375+1026333627
1084+1023619071+1024247157+1026081830+1024425109+1020392229+1017504972
1075+1013872391+1005540202+994740252+987648603+985940109+985915911+984997887
1065+984847884+987784662+993451691+998757750+1000285665+997774635+994318943
1055+992501465+992377786+992524975+991332143+987639224+981975759+976787813
1045+973737798+972366326+972756246+976381637+982990388+988852564+989960171
1035+986902528+983466533+981060298+977870972+973198689+969661774+969928453
1025+973488815+977149783+978870720+980461600+984559258+990645595+995520154
1015+997481070+998033435+997748123+993490833+983271073+970807023+961358598
1005+956055415+952115575+946497880+938943780+931939482+927349546+924094442
995+919802887+913603626+906607832+900466659+896051987+892820769+889198942
985+884090156+878165578+873326472+870933555+870763731+871633797+872618351
975+873125009+872291334+869364059+864656073+859538908+855339581+852241357
965+848995382+844429270+839506440+836228513+835024614+834869859+835262155
955+837007977+840734662+845516493+849674427+852463954+854538857+857099284
945+861080579+866731039+873476412+880505033+887574735+894605358+900979632
935+906469834+911904199+917576668+922319982+925554328+928742903+933301199
925+938435121+942069703+943133541+941953277+939182759+935504971+931638413
915+928236370+926057234+925621920+926394756+927075052+926979948+926760352
905+927372369+928920355+931147950+934398427+938824165+943025682+945198252
895+945417785+945230579+945637443+946621747+947866226+949041175+949940629
885+950911426+952271456+953703391+955149958+957356919+960997754+965582624
875+969342823+970752374+969890999+967592374+964603323+962646346+963790344
865+967564737+970801208+970862860+969267228+970165994+975294351+981925987
855+985525491+986078607+987740268+991042392+991450320+986782976+980613416
845+977003845+977472424+982134328+988757023+992479643+991474768+990158508
835+992516596+996785579+1000479250+1004098387+1008032474+1011102811+1012154143
825+1011713514+1010703137+1008646742+1005476174+1003724975+1005804130
817+1010755847+1016283440+1022108476+1028926130+1034839579+1036492799
808+1034096256+1031355500+1029627436+1026043751+1020258921+1017262429
800+1019605199+1024034877+1025964404+1023146490+1018876694+1018847869
791+1022303373+1022079526+1013728391+1001347815+990570124+982467285+976830269
781+974390270+973995598+972717729+969804712+967220649+966873061+968577615
771+969592682+967014185+962032454+958975686+960025956+963835801+967963473
761+971159801+973579229+975672328+978314478+982569830+987651729+991009628
751+991974986+992369970+991954789+988943416+985589894+986206350+991271867
741+997623319+1002371198+1005199366+1008770233+1015108429+1020066587+1017457389
731+1008607162+1000434980+997207451+998050067+999634069+999875862+999816023
721+1000945265+1001956017+1000770939+998618440+999110404+1003913869+1010180409
711+1012011206+1006573902+997750750+992438625+995015434+1003254645+1009754599
701+1008929802+1000741551+988171455+974864226+965382287+963903143+970013052
691+976934127+977139341+970515208+964324076+965687920+974379953+981552262
681+978345366+966714617+955959498+952959505+958439077+966661031+969165371
671+963942910+957509110+957132446+961234982+960980058+955035909+946789195
661+940859989+939845235+940689978+940695855+941972098+945779193+949784061
651+951058490+948437850+942705167+935031702+928979944+930145388+940260603
641+953035538+958879519+956103561+948635811+938282867+929926606+929881336
631+938078841+949645000+960424629+967657590+967388410+959155327+946934383
621+932021330+915174060+901974190+899273702+906890267+915300552+914102093
611+904502040+897489425+899079993+906158448+910551485+906810795+901072923
601+901184721+903736394
##END=
