##TITLE=<SNM>
##JCAMP-DX=4.24
##DATA TYPE=INFRARED SPECTRUM
##DATE=29/4/2025
##SAMPLING PROCEDURE=Instrument type and / or accessory
##ORIGIN=Admin
##XUNITS=1/CM
##YUNITS=ABSORBANCE
##RESOLUTION=4
##FIRSTX=4497.3318
##LASTX=599.83466
##DELTAX=-1.4281778
##MAXY=2.237025
##MINY=0.69469446
##XFACTOR=1
##YFACTOR=2.0833919e-09
##NPOINTS=2730
##FIRSTY=0.72469407
##XYDATA=(X++(Y..Y))
4497+347843376+345535310+341269788+337242754+335964256+337360768+338900098
4487+339079622+339006067+339925116+341438526+342762456+343819574+344333915
4477+343555395+341720787+340445093+340861989+342101722+342302216+340943126
4467+339403481+339354559+341105456+343407999+344835323+345053127+344201110
4457+342070108+338981406+336370853+335506848+336414168+338312661+340237131
4447+341343257+341484015+341187679+340596236+339331356+337791225+337354045
4437+338674312+340560961+341195661+340149786+338577641+337710003+337943141
4427+338962009+339941567+340111421+339578342+339183760+339536057+340468352
4417+341315706+341626948+341686913+342199251+343402020+344705952+345234883
4407+344712761+343875077+343689516+344235355+344745061+344470811+343283749
4397+341564780+339510938+336957833+334411079+333443966+334909169+337596624
4387+339873019+341558114+342835382+342849858+340927104+338060039+336065533
4377+335950266+337457782+339600171+341360051+342175448+342106986+341589756
4367+340901384+340035720+339358621+339791482+341516573+342820419+341475061
4357+337908953+335456696+336470042+339575853+341587696+341333272+340333030
4347+340366331+341666458+342914801+342605162+340585308+337960421+335758154
4337+334439459+334374516+335772344+338030343+339858256+340351569+339572849
4327+338226661+337341199+337767479+339178239+340089506+339675900+338775847
4317+338356605+338267114+338160773+338256701+338774360+339765562+341213542
4307+342362554+341964053+340091652+338424380+338257130+339237374+340118230
4297+340146782+339553337+338993136+338920582+339509021+340683552+341906720
4287+342321385+341458811+339613646+337552708+336163378+336081640+337211141
4277+338736595+339750856+339941910+339835311+340123609+340932969+341777491
4267+341857283+340638807+338544025+336819535+336294866+336498365+336377233
4257+335705970+335371411+336268975+338165179+339884234+340709015+340972851
4247+341006639+340561705+339605263+338644730+338040299+337752688+337734951
4237+337932213+338108704+338120491+338145553+338420804+338705382+338354373
4227+337355561+336828404+337652698+339047665+339643028+339500038+339618996
4217+340085301+340251493+340014035+339746250+339691492+339863263+339800294
4207+338898038+337657362+337302691+337718986+337534370+336551321+336282536
4197+337697215+339886694+341448568+342212726+342969302+343948775+344342011
4187+343463158+341512911+339070896+336913345+336050885+336704782+337810537
4177+338528805+339193430+340046277+340528518+340417199+340380064+340901470
4167+341485331+341332529+340451187+339669377+339481756+339304721+338353658
4157+337085259+336947676+338486835+340414366+341162360+340919036+340996740
4147+341605834+341741786+340981777+339877281+338841449+338041214+337993008
4137+338965957+340145438+340449012+339861604+339176236+338831235+338613117
4127+338281305+338021560+338147384+338623330+339187937+339833194+340787776
4117+341975525+342883503+343184417+343146452+343131689+343124566+343120274
4107+343400132+343782354+343337248+341782326+340370451+340435337+341690261
4097+342682665+342572261+341864378+341418557+341310585+341011245+340442089
4087+340226259+340674340+341193029+341151746+340653484+339973638+338968532
4077+337593219+336389220+336020617+336743977+338284766+339680248+339713321
4067+338377204+337228192+337406285+338192015+338414482+338214416+338249148
4057+338289945+337733892+336644359+335699934+335667519+336761057+337946889
4047+337736238+336215904+334971509+334805460+335155496+335809822+337333103
4037+339611757+341546928+342333515+342150100+341717897+341632155+341854107
4027+341804641+341184131+340378404+339873248+339755320+339950407+340515586
4017+341430831+342241879+342278356+341446108+340474017+340062098+340132535
4007+340278758+340520479+341013333+341415324+341190111+340336377+339414324
3997+338918665+338908881+339152490+339319083+339157125+338824083+338880672
3987+339643829+340808347+341868469+342473215+342383553+341780037+341577282
3977+342495731+343842033+344148068+343030784+341585979+340942840+341045032
3967+340967501+340312030+339859687+340403609+341541063+342375113+342824367
3957+343268557+343532822+343174947+342363956+341906262+342425952+343529275
3947+344187549+344236585+344471412+344949046+344607592+343038280+341244698
3937+340385728+340877295+342481884+344482855+345860657+345835995+344542191
3927+343112063+342779422+343605204+344478507+344809289+345275909+346361436
3917+347063855+345927774+343187878+340696312+339851504+340561390+342117285
3907+344332999+347242635+350199677+352337487+353686450+354435788+353868063
3897+351619620+349002773+347829500+348560900+349785870+349779919+348881411
3887+348698998+349556336+350370360+350883184+351854589+352666438+351700613
3878+349583716+348612998+349572472+351419010+353174914+354412214+354558036
3868+353912722+353863199+354586188+354512233+352826165+350639031+349270786
3858+349537769+352493494+358645236+364323864+363501486+357252930+350410185
3848+345817743+344459024+346022615+349240031+352916628+356872567+360932302
3838+363294525+362282867+359170505+356191177+353781462+351438894+349711914
3828+349610208+350900836+352761279+355399182+358907213+361265144+361079212
3818+359987647+359063649+357263687+354286247+351633610+350754957+352063438
3808+354601523+356588905+357785694+359746499+362630329+364015111+362508653
3798+359472935+356210116+353170937+350969241+350279297+351176488+353138465
3788+355592353+358076710+360061460+361400467+362723424+364623376+366949608
3778+369504115+372556283+376135808+380038363+384354152+388860594+392646165
3768+395415700+397706256+399410606+400309171+401505216+404193272+407679674
3758+410127324+411409112+413510246+418125461+424727286+430073215+431556528
3748+430847157+431189640+433612887+435918635+436566782+437387186+440799718
3738+447350504+455492546+462941725+468081294+470335287+470619379+471173172
3728+473716349+477528012+479889891+479258453+476727978+474179936+472663236
3718+471931550+471167393+470894545+473238000+478596116+482918971+482705545
3708+479761721+477351091+476887761+477815250+478450008+477699754+476357772
3698+475582428+475565176+476475986+479102846+483740520+488771659+491392625
3688+490923946+489211157+487559363+486495207+486811455+489185809+493796103
3678+500332670+506332067+507629161+505306819+504465302+506044370+506252761
3668+502640192+497080007+492140533+489249951+488831681+490408118+493186722
3658+496082683+497398831+496657675+496074157+498206132+503294718+508076040
3648+507796526+502024346+494774431+489696258+487725927+487106190+485704271
3638+484004985+484214635+486534516+488774634+490085003+492343488+496218921
3628+498242180+496180470+492676960+491173019+493078236+496914588+499208720
3618+498389747+496590042+496081024+496975183+498401305+499796186+500656300
3608+500553306+499926989+499699258+500386685+502057990+504499004+506881482
3598+508080389+508135433+508247411+508979697+509430296+508743384+507711499
3588+508000511+509613797+510554246+509739449+508103391+506900650+506368687
3578+506222435+506701472+508367227+511380886+515323265+519235490+521782072
3568+521944001+520192704+518398664+517845472+518356208+518717716+517669410
3558+515821699+515156472+515800356+515639113+513893767+512613380+513534833
3548+516133026+518970509+520814844+520979806+520115630+519448000+518885024
3538+517536376+515490859+513712783+512959726+513474581+514766640+515500243
3528+514768528+513401685+512836877+513287590+514036814+514673717+514881364
3518+513816636+511128036+507782050+504919791+503027907+502754687+505021412
3508+509523734+513965347+515578633+513518468+509470063+505809315+503751668
3498+503313887+504109458+505729209+507639746+509135447+509586904+508849982
3488+507442570+506148909+505504510+505577522+505957112+506069547+505655740
3478+504802607+503839385+503381691+503596834+503560100+502424191+500638848
3468+499236414+498702963+498924400+499600097+500294219+500326834+499174389
3458+497296066+496087375+496315678+496838601+495978888+494026409+492880716
3448+493309571+494043804+493827230+492951038+492140590+491313148+490168714
3438+488927866+487974829+487501858+487505234+487656292+487594095+487529781
3428+487925735+488629527+488991093+488663572+487798938+486829193+486348784
3418+486716358+487607942+488448258+489041503+489281879+488881061+488003038
3408+487470731+487770672+488407404+488545415+487888600+486709091+485453023
3398+484692699+485167672+487286887+490163050+491626136+490262095+487171362
3388+484615396+483608459+483751506+484561267+485965360+487770787+489420234
3378+490368179+490596711+490705770+491248148+491975514+492219266+492116902
3368+492691207+494351469+496081596+496653727+496140588+495640953+495928936
3358+496955843+498255569+499404123+500230649+500616419+500199064+498861459
3348+497502168+497324275+498338994+499388273+499730499+499569428+499014348
3338+498034818+497132134+496583348+495703722+494214602+493334233+494210368
3328+496197693+497670792+497950592+497740714+497898409+498406226+498689917
3318+498503040+497976799+497021930+495554667+494211226+493730759+493620212
3308+492617452+490652042+489247777+489636693+491404527+493238162+494239263
3298+494209052+493497879+493078751+493979719+496056477+497887079+498302030
3288+497521680+496680048+496789736+498135981+500138984+501777675+502321941
3278+501747864+500684681+499973622+499947702+500106084+499939405+499817758
3268+500416896+501518760+502100103+501644470+500714721+500081594+499756419
3258+499272062+498667316+498368404+498278170+498028524+497856811+498193715
3248+498627091+498307295+497136254+495712477+494484732+493577756+493129103
3238+493340813+494185764+495287055+496190655+496571275+496218463+495240994
3228+494232626+493716741+493428701+492643487+491196021+489747641+489010776
3218+489107991+489721835+490450746+490817862+490296827+488850106+487186239
3208+485965646+485149992+484510342+484081258+483890090+483897986+484228196
3198+484993727+486032077+486931100+487098751+486168430+484527908+482936709
3188+481703586+480781218+480233748+480040463+479768730+478962259+477901965
3178+477389428+477473711+477098355+475638273+474038806+473487131+473612583
3168+473051009+471359019+469391005+468003390+467205731+466596150+466141575
3158+466174190+466568885+466577897+465894933+465203043+465032101+464863334
3148+464148728+463193459+462319012+461265699+459956446+458886711+458528750
3138+458967475+459865153+460362099+459785562+458745609+458470158+459025667
3128+459139847+457938738+456102556+454913663+454779370+455186769+455641973
3118+455956934+455848991+455083660+454049572+453336540+452907198+452353205
3108+451683687+451470004+452157946+453275401+453661285+452705444+450983586
3098+449379599+448013699+446562200+445300438+445125520+446337187+447783336
3088+447844417+446361762+444816195+444432314+444992973+445661117+446027089
3078+445984976+445474355+444793680+444482237+444590810+444601968+444216399
3068+443817011+444048061+445001956+445830170+445446604+443797156+441916229
3058+440602713+439766260+439204628+439156421+439653596+440015505+439535382
3048+438339679+437135451+436389175+436077732+435939721+435725979+435443404
3038+435400376+435748123+436164305+436251535+435936602+435293548+434353700
3028+433270232+432389348+432007355+432123738+432440416+432590816+432394984
3018+431896722+431223314+430539234+430109864+430159701+430514286+430617624
3008+430195835+429696886+429657863+429862649+429618525+428684799+427436656
2998+426273511+425358610+424807850+424739760+425157000+425910687+426671840
2988+426981451+426568446+425586456+424380397+423183665+422158360+421476254
2978+421266919+421604682+422330045+422779986+422272741+421094118+420336712
2968+420551741+421144728+421268178+420871480+420580207+420801329+421287632
2958+421499857+421123414+420262356+419326285+418636368+418148320+417819827
2948+417880393+418289365+418437790+417907257+417087340+416691128+417014500
2938+417734313+418204452+418036314+417363049+416420482+415277851+414261186
2928+413971487+414385208+414612939+414032139+412947155+411749822+410428181
2918+409326489+409230905+410180023+411153630+411394121+411179951+411013244
2908+410900380+410621838+410175875+409822977+409825867+410149754+410498160
2898+410666955+410669645+410538270+410246197+409806956+409299568+408840358
2888+408543020+408391018+408145635+407565436+406816527+406435593+406668445
2878+407067260+406999456+406331912+405381736+404460713+403712948+403272449
2868+403322716+403793169+404142147+403890327+403295909+402973652+403008184
2858+403013190+402850746+402740714+402829117+403060596+403342771+403607036
2848+403747022+403671493+403453032+403200582+402777649+402042644+401375186
2838+401343630+401805072+402039869+401840032+401710203+401920539+402081925
2828+401768366+401030300+400166667+399373671+398742089+398351227+398202973
2818+398145697+398020302+397885151+397906780+397994296+397813885+397259091
2808+396641013+396331631+396434482+396770614+396985385+396769355+396161433
2798+395526533+395167399+395123369+395284154+395416272+395147944+394281308
2788+393124800+392262741+392056810+392486066+393172349+393436185+392800455
2778+391634621+390878817+391021521+391705487+392323994+392576758+392438374
2768+392014926+391514519+391115417+390836618+390637525+390536363+390477542
2758+390189244+389476269+388640330+388250384+388433656+388661444+388365022
2748+387617915+387026472+386972429+387162596+387031508+386447818+385843759
2738+385685720+385946324+386120355+385782592+385088613+384596302+384624168
2728+384935066+385091417+384967452+384751136+384555333+384310122+384040593
2718+383902295+383828025+383502106+382833761+382114663+381592427+381228772
2708+381019123+381159824+381653537+382110601+382200377+381997193+381713073
2698+381430440+381236468+381263619+381451239+381546137+381429754+381220962
2688+380995148+380627202+380040366+379435019+379068389+378918447+378783639
2678+378622397+378564777+378614300+378552218+378221321+377780192+377566137
2668+377757305+378238830+378720584+378889923+378569812+377847081+377026649
2658+376463358+376376156+376661449+376917876+376837168+376523781+376284778
2648+376233796+376257770+376232165+376101706+375834093+375453216+375082810
2638+374807015+374512624+374064829+373614832+373469782+373682493+374057219
2628+374484387+374963680+375390018+375566738+375360893+374791337+374103967
2618+373677744+373680919+373945671+374258086+374533223+374680533+374576194
2608+374180440+373536213+372791424+372280231+372312073+372814569+373407499
2598+373791180+373902471+373853263+373859528+374029439+374148655+373912885
2588+373375113+372904689+372731973+372767907+372837771+372898051+373010658
2578+373188551+373298955+373197220+372977614+372901799+373004163+372998585
2568+372683166+372216231+371920582+371991104+372396013+372928892+373353799
2558+373544510+373477907+373197020+372870014+372713778+372738267+372760583
2548+372754432+372898681+373172759+373256012+372970347+372502183+372097445
2538+371856840+371854122+372115383+372462272+372613988+372436495+372043287
2528+371712562+371646389+371753274+371800651+371775560+371861446+372086144
2518+372248617+372210080+372069808+371990245+371971564+371923843+371898838
2508+372058965+372419415+372811593+373100263+373252493+373206518+372882259
2498+372378990+371997856+371970591+372261778+372691691+373108702+373409788
2488+373581959+373727381+373894260+373984494+373912169+373661494+373239877
2478+372839459+372825641+373237159+373603531+373545940+373218677+372968430
2468+372912871+372985052+373118286+373262535+373337120+373268915+373063843
2458+372801151+372590528+372566382+372805786+373159398+373321099+373171128
2448+372902400+372750798+372762414+372855337+372974496+373128100+373308253
2438+373433906+373440028+373388932+373383153+373412792+373395340+373331713
2428+373340696+373527745+373816929+373959947+373824224+373603760+373548629
2418+373608480+373617864+373680404+374014362+374538830+374958244+375169554
2408+375325446+375560873+375835467+376047491+376205243+376421044+376750940
2398+377125294+377459767+377791464+378354469+379582815+381964407+385834060
2388+391366436+398765320+408350221+420389640+434856196+451376708+469471512
2378+488809023+509070046+529460212+548592708+565390560+580240340+594492010
2368+608338915+620084800+628018480+631609707+630196859+623261763+613037384
2358+603111000+593752914+581516721+564121275+544258094+527364858+517282267
2348+515323952+521212687+532806943+545687592+555515273+560805785+562533795
2338+562704250+563303217+565311999+568344884+571239700+573079286+573682430
2328+573202936+571814864+569799673+567199363+563530604+558474861+552415843
2318+545931345+539302427+532769235+526712391+521214117+515722081+509447576
2308+502082766+494010846+485948023+478522647+472034115+466415510+461344947
2298+456360957+451044725+445392561+439990958+435490438+431843394+428370725
2288+424658767+421056468+418125261+415940845+414165945+412536810+411024287
2278+409698984+408649476+407912554+407381678+406913399+406542563+406423663
2268+406507546+406404122+405705280+404485660+403337307+402769181+402673453
2258+402496504+401845211+400832523+399889613+399313362+399014337+398738570
2248+398455251+398350340+398481572+398641842+398603105+398403554+398329656
2238+398599586+399100909+399503701+399588270+399367949+398977488+398590316
2228+398372827+398339097+398311947+398182689+398085589+398136428+398151448
2218+397861548+397311017+396801426+396490499+396281478+396103270+396031117
2208+396041131+395901803+395494033+395053419+394904421+395083001+395343661
2198+395435669+395330043+395242670+395411752+395849133+396409420+397037196
2188+397736468+398348309+398628252+398557845+398369394+398259505+398269090
2178+398435453+398838961+399450029+400075260+400493329+400613603+400591259
2168+400800051+401504587+402506918+403277313+403466879+403179154+402777077
2158+402535012+402483258+402537702+402678489+402918636+403211396+403523325
2148+403860344+404131676+404200653+404154048+404283363+404675512+405020113
2138+404979316+404634429+404393166+404525685+404982062+405587896+406196304
2128+406710272+407141960+407563376+407934555+408177106+408392792+408707610
2118+408998683+409114064+409213768+409575105+410194099+410810746+411240775
2108+411572816+412076027+412889536+413789846+414403632+414678769+414910134
2098+415254162+415549411+415731024+416038804+416603354+417202807+417661073
2088+418106464+418603067+418928957+418969210+418966063+419136375+419349172
2078+419434600+419571010+420058743+420828794+421465526+421696003+421618443
2068+421451335+421307516+421255590+421397292+421804919+422466598+423297874
2058+424147545+424842067+425294583+425569891+425836159+426251368+426849991
2048+427508780+428073130+428554798+429160031+430065605+431147556+431981578
2038+432253425+432207364+432490940+433455621+434808275+436045518+436994207
2028+437822421+438775058+439980544+441323585+442546409+443607876+444756716
2018+446131170+447562242+448878419+450108367+451341976+452657724+454114773
2008+455623119+457011993+458355320+459934646+461766536+463501125+464922499
1998+466265082+467907349+469967742+472242621+474307506+475712772+476380573
1988+476776957+477455544+478523391+479716919+480827565+481874098+483004514
1978+484381829+486071444+487963900+489828434+491496649+493130362+495215417
1968+497926045+500612528+502537770+503959945+505705978+507986779+510316559
1958+512276075+513849651+515291280+516980094+519159217+521673585+524131878
1948+526384127+528733704+531571530+534771209+537632266+539682932+541282599
1938+543084306+545282197+547622848+549872236+552075619+554379193+556702450
1928+558837171+560997469+563784885+567290856+570776513+573654221+576140666
1918+578480002+580301106+581258034+581659367+582182347+583369867+585198296
1908+587011561+588188782+588804743+589470885+590767864+592870829+595435320
1898+597854133+599766673+601214767+602431183+603725702+605238855+606537322
1888+606990038+606759217+606694617+607253187+608106149+608739847+609081558
1878+609399523+609809554+610254144+611001022+612682054+615501342+618438957
1868+619631684+618353873+615969564+614177584+613383901+612943087+612298745
1858+611443209+610480502+609346596+608094304+607179489+607175427+608157359
1848+609730020+611603079+613254987+613238737+610687691+606982542+604050305
1838+602476786+601624683+600827682+600346071+600865732+602131242+602747660
1828+601958269+600392990+598418139+595789677+592963065+590995252+590270919
1818+590255012+590232754+589890299+589258088+588368163+587168512+585807677
1808+584727385+584288688+584510468+585199783+586106702+586913774+587322889
1798+587406428+587773831+589120877+591350467+592948131+592300299+590147154
1788+588647734+588817502+590123065+591575852+592625818+593125567+593282633
1778+593815283+595560916+598903755+603378727+607293183+608794377+608031879
1768+606471006+605241830+605321135+607438004+610974873+614096791+615962354
1758+617193932+618117273+618997242+621069194+625225800+630100731+632843631
1748+632626257+631278867+630490449+630659073+631613884+633100830+634674863
1738+636308748+639072247+643724826+648178798+648921156+646400436+643296085
1728+641057569+640357840+641421481+643676361+646468241+650192616+655699758
1718+662170695+666226367+665754884+662678227+659578968+657756490+657953838
1708+660583273+664882182+668908444+671950427+675473620+680164765+683973194
1698+685357719+685035520+682747166+678644746+675370912+674904922+676724596
1688+679598012+683921697+690356300+695562644+694940389+690683249+687609681
1678+687997797+691432415+695244221+697151954+698288836+700397293+702103617
1668+701168260+699302811+699965520+703933132+708567630+710528120+709865125
1658+709438386+711817489+718068420+726186516+729796338+728119426+727492879
1648+729473166+730019091+725985334+720912654+718953252+720437280+724292343
1638+729938241+736108264+739224403+737633490+735151165+735248894+738136959
1628+742441075+747375686+753100203+758942248+763491146+767366350+772924589
1618+780645930+787354096+789706363+789306346+789428680+791026745+793192364
1608+794597373+794898802+794962200+795499371+796349643+797486124+799381556
1598+801819365+803827174+805054747+805906850+806484990+806661567+806733663
1588+807160229+808220781+810138642+812829301+815450611+816953293+817417738
1578+818149453+819946125+821863242+823381545+826062820+830712023+835357107
1568+837660795+838687072+840784887+844672850+850736389+860032393+871029341
1558+875964752+872361567+867127015+863659782+861327999+859058356+857266548
1548+857804348+861936293+868914017+877148839+885966894+893041547+891164883
1538+880034500+869694253+865403869+865446440+865288859+863173250+861518023
1528+862415386+865586397+869776191+874496688+879296206+882587663+883767744
1518+884184526+884094636+882720868+881266136+882578794+888223948+897608641
1508+908579669+916161968+915387568+910065700+906066846+904419630+904083812
1498+904625389+906244625+908560672+911467905+916034770+922353505+927514474
1488+928587327+927381497+927884165+931529635+936833937+941203740+943314086
1478+944319192+946341764+950027402+953176098+952760460+949496296+947132071
1468+947269224+948555905+948713829+946971572+945102747+945060291+946968825
1458+949100170+949123973+947011682+944682303+943369359+943385380+944105823
1448+944186044+942783209+940149483+937017380+934107172+931938635+930687316
1438+930680621+932565983+935607794+937399202+936893616+935235528+934355960
1428+935752729+939159425+942136465+942541402+941619664+942230876+944311181
1418+944368572+941134563+937687585+936363884+936611641+936724248+935983207
1408+935003391+934229449+933208836+932269875+932975040+935640695+938151572
1398+938414092+937199164+936751599+937667787+938851931+939755588+940923425
1388+941930191+941207173+939602471+940186160+944104393+948932519+951466170
1378+951513604+951437274+953541383+958147043+962953884+965418185+965871244
1368+966543451+968590742+971743500+975169536+977284345+976747060+974981172
1358+975216570+978284645+981823631+983923105+985303338+986932015+988535402
1348+989943329+991872749+994842521+998396956+1001729268+1004880882+1008468390
1338+1012057270+1014270381+1015242873+1016861022+1020056008+1023852479
1330+1027658905+1031417268+1033645256+1033802150+1034615916+1038332281
1321+1043673660+1048342604+1052130034+1055699690+1057885679+1056990204
1312+1054396130+1054088636+1058098418+1063778877+1066182526+1063714334
1304+1059986526+1059255612+1062722502+1068513393+1073041350+1073741823
1295+1071596574+1069145662+1066399500+1061994564+1057662296+1056303120
1287+1056492857+1054160502+1049102013+1045485209+1045706990+1047171220
1278+1045962071+1041404018+1035987109+1032320640+1031240119+1032417225
1270+1035309752+1038624326+1039821344+1037668313+1034890109+1034928904
1261+1036716306+1035297393+1028427927+1020003252+1014366394+1011014400
1253+1007170552+1002524038+998773228+996139787+992994124+987999834+981208643
1243+973773168+967233053+962535042+959080339+954653203+947171723+936901741
1233+926098307+916673046+909172170+903458067+899071326+895110409+890912948
1223+886865458+883920233+882426821+881512292+879627674+876094983+872039597
1213+869405641+868987715+869511439+869000017+867315894+866575826+868488080
1203+872171887+875473243+877781108+880009210+882250987+883601981+884248154
1193+885663863+888556962+892071287+895200071+898162062+901938677+907058506
1183+913107797+918673990+922311678+924456412+927375489+931922213+935942181
1173+937614859+938534595+941420371+946730681+953783877+963340569+975220118
1163+984737329+987461748+985624221+985019761+988343376+993172303+995752759
1153+994991176+992309557+990119105+990919139+995476506+1002494627+1009145060
1143+1013207255+1014142211+1011971213+1008456030+1006473969+1006327260
1134+1005456618+1003595518+1005082178+1013345381+1025584836+1035293845
1125+1039068573+1037767073+1034411988+1032558098+1034037548+1037671289
1117+1041300108+1043259167+1041171366+1034246397+1027565181+1027338251
1108+1032027565+1033869325+1029527215+1023306496+1020041818+1021656419
1100+1027056162+1031481697+1029878653+1024449958+1024293293+1034287251
1091+1049421180+1061525484+1068146735+1071214924+1070290840+1061904387
1083+1048710521+1038733614+1034896975+1035367543+1037889064+1039564088
1074+1037413689+1031660792+1025351841+1021026211+1018880733+1017965117
1065+1017890961+1018791128+1020954573+1023273882+1023076248+1020131766
1057+1019146114+1025331243+1037639589+1047517966+1047505721+1039848008
1048+1029935415+1020290147+1011201620+1002427109+996493171+996626491+1002104051
1038+1009010023+1015628184+1023275140+1030387215+1031079219+1024310344
1030+1016801285+1013483050+1012586774+1010161953+1006392833+1004314759
1021+1004106253+1003662578+1002484786+1001620895+1001218075+1000495401
1013+999581501+999775816+1001262820+1001665412+998399703+992316080+987033178
1003+983998405+981328688+977549841+972632910+966423177+959065176+951709693
993+945753383+941100575+936645114+932626005+930303950+929304794+926999161
983+921474681+914388698+909056073+906709700+905949604+904883674+902998885
973+900892259+898901272+896387362+892937122+889402428+886484209+883368242
963+879356743+875901983+874841089+875556095+875421116+872915274+869542566
953+868336335+870763502+875598552+880716149+885182709+889366609+893400309
943+896353317+897392583+897428115+898613003+901950407+906617806+911923138
933+918146546+925173250+932186965+938442873+943377999+946507241+947874257
923+948019135+948121614+949792976+953022923+955532656+955922488+955889130
913+957535545+960551608+963015223+963137671+960031832+954552440+949203050
903+945976078+945070132+945937685+947969297+950112315+951775724+953054222
893+953299920+952001967+950043309+949329217+951717876+957770886+965873304
883+971845236+972115766+968030455+964589771+965231080+968851660+972054313
873+973315989+973351236+972585876+971446306+971631580+974473870+978961430
863+982341805+982876114+980995560+978314742+977161553+979031008+982902206
853+986248365+987704127+988464794+990399134+993778251+998246929+1003916287
843+1009423372+1010832100+1006004660+998683852+995108017+998399245+1005713531
833+1009763138+1006638302+1001024332+999129930+1001731557+1005918832+1009147234
823+1010500574+1010644651+1012333981+1018360499+1027562320+1034313801
814+1032787316+1023151090+1011969611+1005938058+1008450308+1018291722
805+1027927262+1029219836+1024712020+1023652213+1027529591+1028981347
797+1024971222+1020943243+1022596067+1031289213+1044315656+1054684284
788+1054782243+1045185154+1033847353+1026256242+1021453292+1015915766
780+1008274761+999937402+993510810+990628468+990094616+989170188+986265416
770+981631261+976492551+972739795+971417811+970778333+969179638+968084813
760+970532177+978227655+989372285+998661308+1001432760+998738439+995390678
750+993924388+993626964+993845884+995116142+996634616+996339824+994958447
740+997686870+1008309321+1021978790+1027389862+1019958965+1006492966+995542766
730+990687975+992002407+999931223+1013820870+1027669319+1034009168+1032712016
720+1029614646+1028345303+1029205073+1031636073+1034868824+1038629018
711+1038952419+1029350409+1013215952+999498763+992320429+992058252+999717224
701+1014994657+1031690088+1042108610+1044110584+1037330951+1021993896
693+1005495527+996399103+994636534+993209267+990476265+994260262+1006955981
683+1014012324+1001394309+979758374+967035190+967042285+974612110+984136417
673+991565483+994589385+988232028+971639820+960168814+958752132+963181157
663+974798644+990304037+997657002+990327725+977299909+968613172+966063042
653+968903843+975400929+977056614+968527687+953389009+936100448+925720720
643+930623174+947681543+961441132+960540851+950346969+940574390+936565981
633+940602828+950322651+956011521+951047042+940939160+935313975+936203728
623+939840329+945488631+955429777+970303874+989112168+997233354+975014473
613+937451328+904648505+886140210+884018363+891987461+898686587+900419574
603+900591688+900389992+904633056
##END=
