##TITLE=<SNM>
##JCAMP-DX=4.24
##DATA TYPE=INFRARED SPECTRUM
##DATE=29/4/2025
##SAMPLING PROCEDURE=Instrument type and / or accessory
##ORIGIN=Admin
##XUNITS=1/CM
##YUNITS=ABSORBANCE
##RESOLUTION=4
##FIRSTX=4497.3318
##LASTX=599.83466
##DELTAX=-1.4281778
##MAXY=2.1586075
##MINY=0.48366493
##XFACTOR=1
##YFACTOR=2.0103599e-09
##NPOINTS=2730
##FIRSTY=0.49856222
##XYDATA=(X++(Y..Y))
4497+247996501+248756339+249231668+249389399+249485995+249265201+248277557
4487+246689214+245282945+244891329+245891381+247806705+249427083+249765642
4477+248968298+248025943+247659262+247788278+248017685+248231082+248550458
4467+248892546+248903486+248528163+248310763+248567314+248610141+247726342
4457+246468879+245859450+245897622+245934446+245905242+246145293+246465974
4447+246320191+245712036+245337187+245795631+246934765+248009651+248454070
4437+248448081+248450112+248415216+247939057+247183088+246968238+247420100
4427+247523218+246778279+246181227+246686561+247738350+248033206+247003832
4417+245184081+243746680+243750312+245234558+247044154+247895755+247500137
4407+246513738+245808928+245847308+246266690+246212032+245526509+245087174
4397+245506214+246295108+246689748+246541400+246187498+246115051+246660677
4387+247495527+247760201+246983330+245409011+243593248+242218673+241804376
4377+242075173+242182442+241875296+241769702+242282714+242996389+243346763
4367+243462260+243858070+244506963+244745606+244156589+243121566+242311651
4357+242021909+242276354+243121907+244393171+245555387+246182888+246332169
4347+246212225+245885066+245362878+244621392+243662700+242788922+242450719
4337+242639937+242792035+242500113+242002489+241766174+241941042+242442165
4327+243238575+244157478+244648032+244310807+243477381+242814390+242658393
4317+243002378+243666643+244174971+243958550+242950671+241675878+240779567
4307+240586243+240957119+241532779+242102924+242625483+243085217+243578171
4297+244300682+245217465+245831683+245536753+244414503+243516932+243889039
4287+245298999+246442685+246478589+245756316+244960514+244297998+243705009
4277+243200758+242804146+242488639+242344635+242608465+243299962+243912669
4267+243907880+243531682+243617219+244486016+245500062+245854380+245545158
4257+245360550+245974605+247224048+248343258+248766450+248521595+247858412
4247+246869197+245734717+245037868+245372647+246505896+247341398+247023385
4237+245701718+244140445+243050098+242773519+243153794+243712302+244122078
4227+244274413+243958417+243071801+242173577+242206502+243533461+245509061
4217+246994922+247264548+246469828+245341753+244532209+244228695+244231897
4207+244283115+244432011+245034117+246079058+246730945+246214745+245054605
4197+244612394+245442188+246771400+247477026+247070912+245822240+244317507
4187+243012399+242175297+242161732+243250657+245007300+246385522+246743901
4177+246356911+245829638+245472341+245358045+245650811+246596458+247999778
4167+249024423+249204421+249244328+249850081+250423370+249992929+248754679
4157+247635009+246985405+246569063+246260360+246139675+246137332+245970899
4147+245524626+245100516+245155722+245856692+246892664+247563659+247232231
4137+246069096+245141135+245274257+246050239+246462223+246323630+246301661
4127+246669676+246884955+246549020+246012437+245726979+245686998+245799011
4117+246127904+246532832+246677799+246587371+246641583+246902225+246919229
4107+246373811+245579047+245103955+245148932+245537123+246051455+246474513
4097+246552029+246249405+245870612+245749453+245940791+246289742+246680809
4087+247068555+247299889+247168694+246782341+246610289+246976273+247741581
4077+248623128+249439417+249938346+249930785+249662612+249473127+249176907
4067+248459748+247655541+247394869+247795720+248560094+249401615+249934491
4057+249683218+248633030+247387768+246604863+246522662+246945439+247503028
4047+248011311+248535412+249030620+249219275+248908556+248131922+247116186
4037+246269521+245867722+245789775+245929717+246524664+247593101+248500812
4027+248577202+247926931+247357556+247487936+248023259+248178737+247794786
4017+247455768+247462275+247503250+247385396+247301135+247345637+247368052
4007+247240992+246988815+246789961+246964784+247719508+248767191+249419997
3997+249264934+248641302+248244261+248358379+248701119+248881338+248865595
3987+249059854+249804571+250706960+250915213+250268751+249601269+249670884
3977+250368519+251148785+251737817+252169681+252360322+251995613+251016789
3967+249979024+249571798+249936893+250728603+251560369+252112607+252157021
3957+251806246+251517052+251626338+252091438+252818069+253824555+254793328
3947+255003122+254246368+253267663+252844931+252861831+252679639+252032021
3937+251224123+250884882+251542017+253060121+254515044+254990314+254532270
3927+254070728+254464227+255565559+256291419+256016961+255537600+256096775
3917+257643817+258614428+257802141+255709533+253713313+252757111+253048380
3907+254551483+257268701+260800489+263983638+265632760+265418370+263645256
3897+261022884+258801956+258232611+259474568+260982592+260886144+259645018
3887+259387045+260846445+262476799+263032358+263373822+263995408+263648043
3878+262011611+260821006+261399898+263263440+265458485+267445870+268232036
3868+267297507+265917269+265338882+264976752+263560372+261400758+260029711
3858+260579221+263660526+269416058+275105978+275509498+271082644+266292652
3848+263585455+263218196+264442541+266260365+268016667+269811958+271955028
3838+273787617+273996315+272471539+270397699+268832452+268110683+268062237
3828+268251871+268198266+268129125+269254295+272041306+274425362+274495807
3818+273528813+272936639+271999205+270022079+268032855+267326504+268358191
3808+270471583+272067130+272672202+273887445+276473467+278435651+278326721
3798+277610793+277381846+276940435+276080621+275942251+277273420+279694714
3788+282687192+286046009+289242262+291725078+294092589+297507176+301790619
3778+305536648+308458947+311878159+316993546+323845133+331372771+338260085
3768+344250317+349818618+354631529+358005496+360535068+363618330+367557936
3758+371198031+373865499+376606733+381279790+388926586+397931117+404902990
3748+409180977+412920306+417543316+421832748+424352328+426132498+429150207
3738+434627130+442145310+449481447+454401211+456641174+457304594+457618812
3728+458476906+460019352+461476528+461996182+461365761+459769561+457583115
3718+455175755+452864072+451581853+452760895+456089114+458097639+456269023
3708+452436389+449803729+450020698+452636607+455366604+455984069+455053335
3698+454952826+456539182+458417875+459463705+460890610+464644674+469985569
3688+473478577+473593970+471982768+470882503+471562853+473799525+476612775
3678+479418495+481131362+479977997+477199939+476504350+478914882+480682006
3668+478235036+473473714+469650035+467211959+464839704+462370468+461250753
3658+462279950+464205932+465387613+466311408+468863335+473686830+477719919
3648+476714352+472017516+467954690+466245973+466022718+465939050+465521655
3638+465041641+464712570+464301431+463668934+463788597+466256084+470726699
3628+473603042+472610580+469651428+467279973+467137956+469997577+474716619
3618+478421111+479568073+479138137+478861306+480095524+483544918+488417867
3608+492141809+492745813+491309628+490440831+491276243+492913358+494536597
3598+496815755+499966764+502008080+501133027+498528445+496812197+497330487
3588+499407945+501022200+500868205+499716826+499395908+501301077+505404996
3578+509780380+511877969+511250365+510097562+510592222+513007705+516508747
3568+519982335+521956230+521654405+519981979+518150517+516357064+514430193
3558+512986773+513013576+514317764+515374386+515164118+514413352+514202965
3548+514542739+515128243+515913223+516579726+516641929+516208999+515797059
3538+515307024+514082235+512114981+510461174+510278242+511735003+513787408
3528+514764097+513606313+510970006+508755186+508320417+509169023+509628401
3518+508749078+507053585+505604058+504788006+504312974+504092387+504331830
3508+504937198+505805669+507339043+509722624+511900206+512339837+511037072
3498+509609485+509144237+509014553+508333640+507468312+507053763+506626880
3488+505432036+503869488+503096901+503453042+503920840+503264594+501282754
3478+498572147+495818698+493805785+493415578+494921201+497400191+499500568
3468+500645543+500728204+499289646+496168671+492521016+490185525+490042737
3458+491442573+492828385+492852371+491719789+491219851+492563770+494715913
3448+495566802+494207348+491361543+488349645+486277347+485701568+486524706
3438+487842296+488218924+486864718+484575183+483043973+483193225+484377070
3428+485149034+484730038+483624644+482662690+481750487+480157105+477965410
3418+476363429+476303835+477521687+479099919+480509658+481563819+481825973
3408+481054720+479941944+479522651+480047108+480758203+480632196+479512482
3398+478332284+477883787+477918862+477794278+477421059+477210108+477530789
3388+478424729+479529589+480321299+480586418+480499874+480230456+479701492
3378+478926089+478350755+478517351+479442096+480730333+482199962+483846713
3368+485438406+486718253+487618656+488079901+488152333+488270424+488998330
3358+490599659+492886348+495266253+497120455+498168805+498240259+497155915
3348+495347312+494003453+493996931+494912958+495613143+495779176+496176647
3338+497112272+497643192+497051641+496143114+496009428+496416920+496372507
3328+495636358+494908659+494767086+494901988+494460163+493156656+491723702
3318+490863859+490309546+489578556+488909532+488700183+488869299+489273826
3308+489864518+490182472+489643754+488484043+487669829+487823499+488750496
3298+489882841+490924342+491936046+492667629+492464980+491342330+490372728
3288+490511632+491693609+493204953+494352805+495017500+495941266+497892005
3278+500402305+502053206+501918363+500101488+497357883+494918858+494021984
3268+494842098+496228888+496996109+496997443+496463172+495279328+493721108
3258+492811722+492882672+492795504+491687353+490547922+490936350+492817385
3248+494528711+494663553+493609155+492849702+493000466+493322570+492957564
3238+491832958+490370000+488999042+488025763+487579312+487539583+487577385
3228+487445388+487269364+487356679+487865155+488766655+489727630+489990822
3218+488938381+486807347+484422877+482422713+480955960+479712818+478462175
3208+477864545+478805685+480696000+481786955+481387172+480327407+479410460
3198+478818464+478538076+478357900+478024737+477628245+477198575+476316258
3188+474847519+473449462+472654134+472099643+471296696+470543529+470399407
3178+470679528+470597282+469734356+468424474+467312142+466782734+466602262
3168+466070364+464734065+462848465+461068739+459921718+459520008+459509245
3158+459379324+458919057+458176149+457139925+455886020+454878793+454648393
3148+455222215+456126057+456857936+457154838+456776194+455475889+453447411
3138+451356612+449719615+448609744+447974639+447791617+447885841+447953321
3128+447788059+447441673+447231760+447497294+448227987+448969117+449161893
3118+448612857+447581111+446366965+445023877+443682271+442823911+442760107
3108+443103024+443204897+442854152+442196158+441316094+440276283+439325389
3098+438711719+438330140+437849622+437266432+437005997+437320718+437947552
3088+438452648+438520959+437982567+436992032+436071943+435617932+435501620
3078+435367103+435109723+434906332+434897527+434949234+434782549+434313950
3068+433771853+433446784+433351967+433204079+432676598+431691430+430630687
3058+430104748+430217117+430268053+429596657+428491797+427861376+428191811
3048+429183502+430205435+430679845+430166654+428643776+426779345+425465520
3038+424984499+424916573+424794569+424526544+424220125+423938610+423725554
3028+423624481+423581520+423474073+423204625+422672015+421805501+420746152
3018+419833178+419306824+419078943+418825002+418274069+417420126+416515276
3008+415861373+415580777+415597825+415786925+416035737+416210012+416244672
2998+416230559+416209419+416005258+415504965+414965299+414740176+414772878
2988+414596617+413846978+412694650+411705835+411209070+410907275+410290641
2978+409284985+408238770+407490791+407209840+407375843+407696287+407799731
2968+407635477+407508610+407672360+407945069+407769460+406799234+405397916
2958+404320214+403977504+404167908+404355081+404207400+404039974+404461312
2948+405386294+405910217+405441025+404392764+403487292+402928235+402455338
2938+401828593+401101309+400499736+400148339+399997961+399952895+399928879
2928+399825939+399564348+399104110+398461266+397783674+397253999+396837494
2918+396373847+395921555+395629011+395408839+395187067+395124656+395164652
2908+394871634+394133113+393457003+393222867+393234222+393210237+393099172
2898+392850034+392461606+392168261+392123136+392127109+391963033+391666427
2888+391278532+390684371+389847713+388995460+388489534+388560839+389126270
2878+389837129+390321945+390376232+389947363+389072043+387966649+387112557
2868+386967427+387426804+387772865+387363623+386239254+384955671+384040592
2858+383688039+383792284+384154206+384623634+385055824+385213526+384872358
2848+384049902+383010506+382046299+381369210+381131131+381302619+381575981
2838+381632076+381433874+381068780+380554878+380053873+379888789+380025322
2828+379945270+379362405+378665215+378286986+378051812+377597475+377054310
2818+376774337+376718508+376605369+376363494+376040560+375583792+374992210
2808+374383373+373828645+373379763+373127897+373012534+372821151+372534626
2798+372373515+372412681+372442952+372258092+371891485+371541393+371307761
2788+371011778+370396892+369561717+368956645+368845729+369002630+369034888
2778+368839651+368620666+368483688+368190196+367504094+366651278+366093585
2768+365899356+365717075+365372142+365115235+365202047+365493405+365578586
2758+365194309+364450066+363641900+362934867+362299138+361666138+361068597
2748+360669169+360623984+360837248+360945940+360675514+360124996+359599591
2738+359279117+359128858+359030275+358893239+358683326+358424611+358149915
2728+357840709+357497584+357246726+357213460+357287967+357203854+356862597
2718+356433816+356127663+355940699+355678100+355258244+354889888+354810755
2708+354925911+354882980+354495945+353936681+353494677+353249690+353058248
2698+352827551+352621373+352448758+352188294+351817122+351497745+351362488
2688+351371620+351404441+351362073+351163070+350738411+350119642+349478844
2678+348963756+348567056+348284770+348235613+348445318+348686629+348709400
2668+348472358+348061278+347576106+347160935+346953512+346922055+346838801
2658+346473973+345819685+345116713+344660330+344569605+344722088+344878011
2648+344835939+344499248+343921602+343338411+343027870+343059950+343273777
2638+343493533+343634632+343665111+343607207+343528548+343482830+343490509
2628+343522797+343489768+343334349+343114178+342921846+342801354+342753352
2618+342693106+342457932+342002201+341494407+341112235+340879315+340772935
2608+340834575+341079918+341385834+341550355+341459807+341154396+340746874
2598+340354799+340080607+339914070+339690489+339332065+339058437+339117557
2588+339379622+339454307+339171992+338705498+338260589+337911357+337726675
2578+337770703+337903707+337836761+337512581+337228665+337288585+337696522
2568+338175349+338316922+337850814+336986612+336359156+336451986+337127088
2558+337770851+337897036+337629812+337519341+337850221+338327003+338510054
2548+338315795+337999651+337827392+337805896+337714252+337472763+337337861
2538+337529837+337882123+338084387+338054056+337916753+337836316+337918888
2528+338122663+338303076+338421582+338556543+338670127+338614625+338426859
2518+338338921+338432937+338550050+338560901+338466707+338268950+338011125
2508+337887401+338076441+338510172+338935158+339166092+339228235+339248397
2498+339234106+339062588+338715223+338385618+338275206+338364983+338459206
2488+338461637+338537716+338843365+339170450+339147324+338754626+338362848
2478+338287125+338494429+338716291+338751335+338641576+338562147+338603121
2468+338731797+338898867+339085625+339247626+339273183+339110382+338926737
2458+338940316+339078331+339068784+338877520+338761446+338880663+339091436
2448+339162178+339068132+339005544+339170183+339595880+340129528+340465448
2438+340368230+340006900+339870042+340212010+340763536+341059401+340915812
2428+340569989+340421923+340617724+340915456+341018931+340934402+340910268
2418+341148644+341656764+342261984+342707249+342844078+342781904+342768740
2408+342927005+343197609+343507498+343872978+344341932+344909676+345496899
2398+345990728+346293857+346363117+346309245+346444621+347001009+347747505
2388+348147526+347921544+347176797+346007599+344287052+341881620+338851726
2378+335384276+331656124+327842436+324166051+320811147+317796374+315001239
2368+312350345+309969343+308071349+306731018+306051736+306453773+308283278
2358+311263185+314896638+319294585+325025242+331913238+338312178+342093638
2348+342221602+339417691+335753106+333144965+332019796+331931798+332606870
2338+333833469+335164401+336097150+336480212+336693357+337263413+338303076
2328+339487099+340507519+341404157+342495823+344031688+345962503+348075509
2318+350151010+351936991+353276877+354330683+355414552+356621671+357796117
2308+358790150+359566473+360148033+360610435+361029490+361361556+361497881
2298+361486200+361582825+362033782+362840020+363730165+364382556+364724168
2288+364973811+365367546+365917115+366440386+366747073+366790805+366674611
2278+366534284+366457523+366468908+366473266+366265458+365762823+365180107
2268+364839057+364855868+365086595+365309850+365382756+365236647+364850502
2258+364327142+363895990+363726251+363800758+364032404+364407876+364943658
2248+365532838+365928145+365987650+365888534+365914032+366100552+366306759
2238+366506414+366788996+367162303+367491078+367578838+367299518+366697559
2228+365963278+365335822+364970490+364760281+364376092+363666924+362890661
2218+362386810+362185287+362060377+361848626+361626527+361598509+361844771
2208+362231213+362560374+362730468+362766699+362761244+362781879+362876637
2198+363162836+363739652+364465513+365034680+365344331+365601356+366039891
2188+366683861+367372424+367896584+368134812+368173503+368286850+368683936
2178+369274687+369795942+370129075+370327425+370413229+370396448+370421086
2168+370626611+370924047+371134049+371262339+371444116+371706507+371958847
2158+372140120+372264496+372387212+372564126+372792481+373029108+373298971
2148+373645149+373943683+373983115+373786811+373650545+373791555+374110012
2138+374357549+374456220+374565743+374843967+375251874+375650442+375981796
2128+376268648+376527363+376791089+377189716+377889011+378859919+379762990
2118+380242202+380366935+380596327+381253047+382199612+383100519+383853834
2108+384596802+385351808+385951691+386391381+386935525+387706689+388454993
2098+388923206+389175814+389383859+389555406+389672015+389849729+390154133
2088+390440688+390584158+390701034+390952930+391297833+391625393+391981504
2078+392457010+392948883+393234993+393286523+393325630+393514996+393766121
2068+393939240+394046657+394189772+394474400+394979348+395635682+396239538
2058+396720411+397221208+397821891+398405705+398863837+399262968+399772245
2048+400498580+401378495+402215627+402857760+403343821+403869761+404621060
2038+405630155+406783432+407937212+408975600+409822220+410523887+411274445
2028+412251490+413481201+414884921+416360628+417843391+419378751+421046256
2018+422753016+424290007+425655509+427087870+428729283+430522647+432463632
2008+434636440+436905844+438886884+440375725+441585216+442819967+444108442
1998+445326858+446549216+448001886+449663757+451198050+452407719+453496421
1988+454722040+456087039+457491826+458939337+460507044+462229755+463996049
1978+465605501+467069793+468702105+470686584+472812548+474917994+477274476
1968+480132941+483163547+485825470+488089626+490273464+492413154+494331606
1958+496108277+498005500+500125089+502459394+505007169+507675912+510375193
1948+513209554+516305476+519558654+522706224+525498306+527821818+529829453
1938+531848533+534077881+536453279+538765288+540883632+542966930+545314340
1928+547954501+550695706+553511091+556407002+559103378+561445747+563748921
1918+566094907+567858237+568658041+569120680+570123163+571866095+573898872
1908+575752155+577299464+578615512+579762682+580759176+581640396+582539879
1898+583701577+585230503+586793822+587900550+588553416+589200648+590080622
1888+591044562+591933254+592705959+593309726+593707197+593882244+593817076
1878+593654778+593690950+594074664+594829936+596191584+598350724+600583986
1868+601288678+599822310+597450707+595681982+594831063+594294242+593455539
1858+592185505+590843366+589867922+589214760+588451839+587438919+586541808
1848+586259433+586768324+587414904+586782615+584343531+581347229+579068664
1838+577620145+576537254+575690308+575390619+575719008+576029727+575496998
1828+574196901+572743045+571105841+568939764+566534183+564542618+563244833
1818+562421487+561624410+560727477+560213427+560441603+560824606+560491117
1808+559630651+559247767+559846079+561065057+562269982+563014936+563121020
1798+562805083+562795002+563915784+566188834+568219062+568315954+566724528
1788+565149172+564727626+565580976+567370633+569717331+572154933+574149463
1778+575545741+576871988+579043403+582604573+586722131+589463751+590093312
1768+589429417+588334015+587646342+588269321+590134642+591981107+593264423
1758+594849267+597047010+599113468+600931944+603208730+605837803+607691798
1748+608502513+609203054+610228663+611129273+611694616+612417215+613694898
1738+615576644+618554861+623082876+627428611+628574179+627001373+625278069
1728+624635047+625190842+626644402+628363436+630040665+632429287+636455764
1718+641327468+644152874+643442846+641142282+639543740+639457699+640655805
1708+642663914+644999346+647068650+648861036+651400925+655361760+659504342
1698+662340185+663984089+664105886+662392307+660453872+659862617+660558888
1688+662121140+665227142+670426583+675116777+675466098+672570009+670080226
1678+670266361+673252998+676923571+679034681+680149236+681982833+684347261
1668+685695034+686033385+686843567+688792260+690891510+691658285+691142042
1658+690931832+692848208+698126752+705496244+708879165+706320182+703612540
1648+703605484+704590119+703684646+701125070+699056952+698561936+699827345
1638+702631938+705829792+707150525+705744937+703521756+702130696+701799579
1628+702203928+703320085+705453668+708174889+709899912+709766849+709036185
1618+709511217+711258418+712171184+711237664+709927486+709632481+710304499
1608+711159747+711915019+712910683+714373315+715998540+717272547+718163669
1598+719181629+720699171+722640096+724801371+727036471+729157423+730951054
1588+732283409+733306528+734669421+737068598+740535188+744714594+749576395
1578+754853515+758430399+757564774+753940334+751791867+752397650+753662703
1568+753252246+751757771+750528179+749542358+749251622+751478955+756199805
1558+757860906+753721170+748689186+745732791+744601869+744583190+745436125
1548+746975607+748907934+751154538+754120243+758593764+764293497+767832609
1538+766862442+764493389+763931545+765475652+767642204+769684173+772575755
1528+776898601+781516571+785033624+787958650+791776519+796643775+801600452
1518+806154914+809909513+812553765+814997118+818539195+823697424+831124315
1508+841997103+854048131+859676886+857847617+854984675+855359732+859825189
1498+866353901+871115667+872275763+871901359+872931060+876668936+881803328
1488+885130688+885699173+885871195+887277791+889231761+891024621+893599436
1478+898016210+903683804+909426647+915441310+922321953+928393542+931653362
1468+933202034+935432035+938570236+940272785+939557124+938269835+938066029
1458+938685866+937933321+934279885+928983018+923918360+920742683+920211674
1448+921040060+920793739+918538655+915612205+913750857+913482062+914261231
1438+915571883+916915268+917303192+916696638+916698951+918720520+922118029
1428+924658274+925226344+924468404+923134566+921562353+920474837+920954198
1418+922534713+922735672+920553762+917884663+917047976+918415376+920676389
1408+923024806+925772711+928608436+929958462+929132685+927616804+927507815
1398+929611690+932820633+935074412+935393314+934968447+935508706+936994998
1388+937980819+937705263+937019429+937435697+939577937+942599381+945371895
1378+948391323+953393422+960189566+965787664+968123985+968393136+968338642
1368+968181741+967987363+968404343+969676097+971359315+973181052+975203986
1358+977205395+979060636+981256540+984328446+988163274+991829697+993779873
1348+993169109+991652753+992047378+995168501+999543589+1003388556+1006035122
1338+1008217388+1011364068+1016003148+1021157167+1025400258+1027837978
1330+1028425260+1027938783+1027474840+1027929414+1029531158+1032374947
1321+1036737107+1042540197+1048847196+1053765685+1055477841+1054532758
1312+1053236040+1052187305+1050567060+1049607034+1052383461+1059174565
1304+1065913250+1069218966+1069891874+1069313012+1066531604+1061317932
1295+1057475218+1058582658+1062940311+1065383012+1062585712+1055239465
1287+1046009456+1037598819+1031919661+1029130307+1027487648+1024872155
1278+1020525412+1015579052+1012312828+1012400233+1014812810+1016243184
1270+1014962951+1012309152+1010015169+1008173152+1006304451+1004424839
1261+1002044045+998100999+992712103+987079316+981891735+977382220+973678736
1251+970504482+967576669+964545381+960674442+955734486+950100276+943591428
1241+935443716+925876423+916435255+908116232+900495319+893193723+886677819
1231+881148684+876063450+871007924+866301957+862664767+860385846+858887755
1221+857255354+855044981+852347894+849693264+848087251+848054875+848753933
1211+849278419+850217573+852480246+855500504+858088958+860273300+863036622
1201+866926478+871522211+875527638+877786101+879004012+881042245+884285284
1191+887354225+889288213+890562456+892061615+894371490+898013660+903575705
1181+911088875+918904936+924087833+925495792+925638462+928062899+933985235
1171+942270162+951638394+961464047+970622900+977522874+981493849+982881766
1161+982451622+981422336+980773443+980280800+979711603+980349763+983160523
1151+986480293+987957512+988216286+990412902+996181184+1003246124+1007394102
1141+1007103900+1004819760+1003524941+1003743393+1003695599+1002389749
1133+1001908372+1005189302+1011636125+1016817065+1018131453+1018065159
1124+1019673781+1023074966+1026995835+1030564476+1033170838+1034587099
1115+1034998268+1033514170+1029179168+1024142796+1022796268+1026904635
1107+1034597061+1044133283+1054279913+1061235153+1061533893+1058002728
1098+1057193673+1059528452+1057238976+1046707031+1036261660+1034824882
1090+1040750717+1045618448+1045973877+1044776779+1043676099+1041067603
1081+1037622538+1036383339+1037267939+1037162863+1034744356+1031216867
1073+1027832404+1025412592+1024354725+1023681105+1021524693+1017061134
1064+1011063786+1005155740+1000809353+999427010+1002846933+1010596640
1055+1016863673+1016279474+1011200882+1006781440+1003922945+1000440997
1047+996365955+993628901+993229414+995551326+999511212+1001906594+1000519270
1037+997194222+995503651+996355637+997759564+997915280+997088791+996828831
1027+998183423+999983457+999957129+997905555+995331570+992754797+989980268
1017+987002229+983714065+980959875+981168602+985265169+989282751+988013667
1007+982099869+977155526+976499814+977251173+973775866+964999007+955813708
997+950638935+948434017+944415367+936123503+926213470+918166978+912095271
987+906443154+901266898+897540229+895308509+893990918+892989740+891971424
977+891067019+889714621+886175272+880017703+873562638+869409204+867927894
967+867571931+866367540+863281817+859306573+856653900+856262121+857097030
957+858014777+859056753+860654405+862678347+864791413+867146412+870272635
947+874500605+879577893+884596892+888520607+891262345+894035510+898050721
937+903554002+910121495+916764118+922329069+926424746+928934750+929554646
927+929450934+932137170+939735016+948836706+952960135+950361185+945593371
917+942827262+942583727+944021987+945951172+946253530+943526972+939256189
907+936528445+936723771+938121117+937790355+935283020+933288490+934677474
897+939775339+945824275+949402286+950243065+951144090+954075046+958711042
887+963338381+965422569+963514257+959867758+958660995+961183629+965156857
877+968697985+972596913+977629787+981018698+979654618+975832184+974492654
867+976160573+976490860+973363807+970341652+971329192+975434001+978263914
857+977602036+975797851+976261023+979651298+984014348+987905330+991832366
847+996060929+997949316+994470451+987726963+983636089+985349668+990722317
837+996715217+1003175797+1009086333+1010138271+1004467415+996332155+991445924
827+991070749+993073343+996780326+1003106182+1010244413+1013336540+1010689619
817+1007281674+1009060598+1015866052+1021756902+1024979364+1032958316
808+1050068369+1068020920+1073741823+1066105967+1054503939+1043930367
800+1034408969+1028372129+1028123910+1032090794+1037482121+1042505448
791+1044757448+1041184893+1031114757+1018046895+1007155370+1001635841
783+1001443362+1003294985+1003653142+1002815268+1001753369+998506238+993737534
773+992057340+994917080+996686636+992103059+984065877+977419103+974284875
763+975914904+981402946+986143661+985935705+982509437+981738332+987299606
753+997918363+1009074237+1016131942+1016298094+1010275841+1003022809+999921669
743+1004006318+1015755877+1030972561+1041811193+1043388151+1037035967
734+1027953608+1021475832+1020908948+1024403230+1026108507+1023550295
726+1018947031+1013881128+1010648111+1012729334+1018314445+1021671632
717+1022878454+1025378318+1026696145+1022197364+1015656376+1016425228
708+1026835139+1039434787+1047519407+1052753952+1055299237+1049485000
700+1036763198+1023083861+1010616327+999786353+992555024+991221008+995425853
690+1002224784+1008429554+1012192217+1012618329+1008896107+1001430079+993694129
680+990345422+992892605+998426543+999918586+991445509+975684177+959852282
670+949498763+948368671+955132617+959625232+956123122+950962403+952748977
660+960757458+967089184+969908306+971422941+972395835+971992968+967620075
650+957562035+945489719+938112578+938345320+945279213+956700027+967871437
640+972767037+970414587+967734341+972073079+982674165+987719670+979260942
630+965202457+961967779+976762206+999062567+1011547416+1014313644+1018477158
620+1016889171+989453172+950500297+926107149+926456411+946961542+968425690
610+975166154+969324640+957540688+947943330+942183765+933699955+916734114
600+894008648
##END=
