##TITLE=<SNM>
##JCAMP-DX=4.24
##DATA TYPE=INFRARED SPECTRUM
##DATE=29/4/2025
##SAMPLING PROCEDURE=Instrument type and / or accessory
##ORIGIN=Admin
##XUNITS=1/CM
##YUNITS=ABSORBANCE
##RESOLUTION=4
##FIRSTX=4497.3318
##LASTX=599.83466
##DELTAX=-1.4281778
##MAXY=2.1180346
##MINY=0.37906373
##XFACTOR=1
##YFACTOR=1.9725734e-09
##NPOINTS=2730
##FIRSTY=0.3925741
##XYDATA=(X++(Y..Y))
4497+199016216+199462562+200200680+200438939+199976140+199226026+198691145
4487+198592230+198829628+199190249+199602782+200152213+200771776+201107936
4477+200902070+200388447+200110740+200464351+201489180+202753386+203335481
4467+202504824+200734760+199531365+199867299+200975844+201079517+199521832
4457+197681424+197284497+198393767+199623012+199910388+199401418+198753935
4447+198295336+198028251+197951198+198048375+198170043+198156052+198111936
4437+198382330+199144592+200095269+200634395+200485805+199999331+199628028
4427+199449599+199307913+199076725+198726241+198237381+197642293+197184858
4417+197219063+197810630+198590825+199170669+199407356+199058111+197782514
4407+195904546+194569558+194651294+195805330+196848455+196959592+196381064
4397+195882367+195740953+195514509+194735070+193620587+193016284+193610208
4387+195150806+196528853+196753560+195766199+194246239+192904633+192167104
4377+192247163+193108414+194246979+194865757+194641398+194107378+193969741
4367+194282590+194557335+194437722+193978897+193427231+193045095+193045020
4357+193399598+193835821+194263312+194908680+195755034+196386215+196645777
4347+196748755+196596811+195833129+194675256+193892628+193876447+194258144
4337+194419260+194070166+193382812+192784265+192732156+193500506+194905628
4327+196359338+197335125+197526850+196729175+195294366+194360549+194676026
4317+195642265+196276423+196489390+196787221+197390769+198108899+198576941
4307+198457540+197764233+196916685+196277979+195908233+195856472+196288600
4297+197119560+197873254+198277916+198703141+199552638+200578298+201260259
4287+201446499+201159531+200284139+198936882+197647762+196819659+196464175
4277+196473194+196686600+196897104+197131238+197570257+198093323+198418061
4267+198594391+198840022+199106579+199232190+199240817+199217912+199158114
4257+199085896+199169883+199551474+200041423+200198852+199953402+199868357
4247+200391045+201129103+201373073+201096001+200884574+201031987+201182798
4237+200845716+199997745+199159458+198870269+199076634+199373921+199803920
4227+200666470+201547106+201600076+200912510+200412680+200452204+200592092
4217+200582226+200635725+200947591+201485781+202002607+202106613+201655931
4207+201004082+200666425+200992675+202054701+203445862+204398534+204429234
4197+203715969+202748325+201914677+201479662+201566293+202015359+202478037
4187+202802337+203199445+203872613+204660211+205214052+205319750+204947299
4177+204308715+203869742+203937533+204381673+205042799+205976782+206996157
4167+207629227+207824442+207966461+208032333+207539182+206485631+205543807
4157+205177641+205233195+205429361+205720046+206082163+206334261+206372016
4147+206371488+206507251+206650524+206652216+206629825+206625066+206462833
4137+206291776+206508671+206835102+206437360+205268246+204266744+204040980
4127+204268784+204394681+204206069+203819008+203547043+203642543+204035481
4117+204471477+204834077+205221727+205788275+206447075+206771647+206509397
4107+206066813+206061570+206567065+207168347+207576333+207879860+208296805
4097+208796800+208950286+208350968+207323057+206810506+207291949+208215673
4087+208831776+209139155+209523738+209852088+209560708+208561382+207520341
4077+207155490+207574157+208285942+208742939+208853260+208873218+208858473
4067+208600890+208152052+207914669+208122862+208548676+208804929+208790712
4057+208764514+208932428+209075610+208867432+208433445+208165166+208161661
4047+208292861+208508412+208689788+208646563+208562470+208901335+209680926
4037+210341326+210499314+210491639+210981105+212068573+212932332+212679162
4027+211535928+210678560+210865420+211734815+212540059+213125402+213782434
4017+214373789+214272035+213348703+212309113+211725780+211449448+211246528
4007+211253372+211513462+211754380+211821295+211857781+212047693+212476891
3997+213083159+213537452+213478469+213021305+212677681+212678119+212722961
3987+212475970+211985402+211497326+211139561+210920263+210866538+211100068
3977+211791018+212922784+214078890+214708152+214670442+214289757+213923153
3967+213721577+213661401+213632362+213642349+213937355+214613317+215191937
3957+215096527+214428149+213783929+213534188+213682024+214097337+214490245
3947+214531339+214347833+214482962+215109128+215706995+215843227+215757155
3937+215771206+215781389+215760146+216181412+217335448+218574272+218959641
3927+218381701+217442083+216588794+215793657+214979800+214403900+214427862
3917+215035021+215755599+216220150+216544134+216883799+216963118+216517422
3907+216040300+216523103+218348780+220730173+222571971+223480783+223430291
3897+222375547+220717980+219426866+219313599+220055207+220223394+219252939
3887+218428175+218996127+220378738+221285284+221855926+222628098+222926579
3878+222169107+221090205+220532405+220671326+221733775+223723030+225168718
3868+224694558+223368422+222974487+223444448+223503778+222813735+221813351
3858+220876799+220999993+224112252+230012212+233501998+231790026+227649962
3848+223923171+221909651+221832644+223066709+224695117+226408327+228400438
3838+230283633+231101342+230668473+229810425+229322078+229214325+228977003
3828+228317886+227410524+226873483+227627480+229831969+231638021+231348862
3818+230310949+230407401+230883646+229816302+227473647+225935512+226936138
3808+230158189+232910310+233472325+233477281+234704441+236177641+236361676
3798+235931753+235813590+235610746+234989793+234635396+235128774+236186555
3788+237371049+238620026+239801151+240731584+241854874+243795450+246115473
3778+247712757+248602624+249950243+252673628+256786709+261433825+265470020
3768+268717952+272008821+275714204+279603968+284046577+289803341+296480505
3758+302450628+306951767+311057521+316714297+325445319+336016690+344276664
3748+348966537+353211831+359589034+366247131+370135687+372313283+375180182
3738+379682197+385302351+390783931+395184811+398227964+399916775+400561267
3728+400753717+400970038+401427156+402168523+402947358+403462069+404000591
3718+405101869+406751882+408906301+412161757+416704263+421155574+423995913
3708+425277494+426207443+428222836+432016632+436488491+439502939+440444491
3698+440490178+440665677+441136332+442096467+444508817+449296199+455338208
3688+459489105+460312812+459272572+458199970+458033718+459016335+461119839
3678+464150120+466931325+467459634+466104234+465424751+466063834+465866338
3668+463512760+460740136+459510498+460200768+462168056+464765665+467971565
3658+471944516+475739612+477652480+477781626+478221037+480610452+484079993
3648+485800139+484778331+482755716+481796729+482611915+484365450+485856674
3638+486702077+487107162+487278218+487654930+489148450+492385142+496360933
3628+498750197+499176736+499631648+501550378+505030435+509247053+512443798
3618+513481076+513879635+515949841+519853958+523686160+525909081+526368314
3608+525310791+523380367+521930389+522531338+526013510+531017092+534752117
3598+536424067+537830775+539897113+541012472+540443552+540950286+545296897
3588+551658900+554858365+553393157+550671056+549051139+548193167+547760343
3578+548320500+549736817+550582219+549781839+548162285+547952521+550592251
3568+554548946+556071444+553952589+550605486+548058098+547140115+548566887
3558+552099460+555805900+557815612+558106357+558144792+559567394+562953296
3548+566817950+568179514+565543470+560859460+557473559+557194236+559550594
3538+562584350+564228923+564151448+564250075+566408333+570115014+573013641
3528+573458612+571504257+567991929+564238653+561735019+561070191+561625514
3518+562671313+564021879+565546130+566912831+567728137+567873540+567995736
3508+568893112+570239930+570971234+570605733+569647381+568829657+568483071
3498+569052233+570939990+573080360+573407123+571594424+569672400+569562411
3488+571045507+572406104+572866486+573255919+573923345+573803626+572551084
3478+571521843+571598775+572258345+573063015+573824053+573716542+572596228
3468+572103333+573191013+573863999+571651412+567295434+563851577+563397239
3458+565828595+569405405+571736382+571554719+569896004+568737617+568797143
3448+569170924+568816784+567929804+567469241+567376717+566100787+562606952
3438+558188607+555194858+554671384+556007385+558306633+561231307+564521421
3428+567349220+568612761+568009576+566451784+565096445+564079593+562734768
3418+561024081+559863820+559624866+559389962+558602575+558260522+559266073
3408+560733094+561372660+561415085+561634941+561955540+562226403+562832973
3398+563747028+564282226+564072884+563209473+561792431+560298215+559597309
3388+559904371+560643713+561586897+563026722+564805639+566094865+566369353
3378+566319073+567353873+570018502+573097946+574804826+574597842+573328439
3368+572411181+572850592+574479755+576314090+577691487+578668756+579305361
3358+579432392+579209695+579106475+579453120+580180013+580873124+580999248
3348+580487317+580052076+580160675+580143088+579247707+577930683+577119485
3338+576961694+577160761+577824259+579085746+580603409+582029879+583320434
3328+584436820+585210126+585328696+584587239+583486626+582999956+583200474
3318+582844400+580939540+578027920+575562963+574570949+575000147+575913054
3308+576223439+575662376+575322015+576784201+580211922+583729991+585425389
3298+585409193+585070283+585202632+585446299+584926089+583253232+581053819
3288+579262272+578254243+577976068+578301502+579297988+581304678+584088482
3278+586353586+587296165+587799817+588654889+588927927+587571620+585385926
3268+583957039+583551290+583208149+582466450+581832201+581639963+581621833
3258+581741068+582317663+583161071+583662970+583771207+583800154+583432054
3248+582221151+580904549+580851247+582186764+583388119+583201864+582140956
3238+581381912+581299844+581529974+581273072+579764836+577586514+576577881
3228+577330277+578030700+577165475+576101243+577089631+579788465+581411646
3218+580301666+578055296+577137555+577828067+578645851+578831986+579096322
3208+579990252+580582802+579432210+576624355+573845386+572438074+572364466
3198+572837538+573056670+572495908+571203722+569795986+568851352+568241458
3188+567124468+565129441+563478462+563753736+565498387+566418969+565295331
3178+563298128+561952035+561228225+560247512+558916043+558038188+558061213
3168+558422423+558321500+557631230+556828191+556247607+555505908+554012176
3158+552193131+551256414+551298173+550905054+549199503+547092070+546025965
3148+546351761+547203872+547475943+546776910+545513913+544180148+542962959
3138+541929065+541045650+540114976+539001551+537915140+537451012+538124542
3128+539633805+540827425+540789412+539727960+538480071+537604875+537209459
3118+537041515+536574184+535534850+534389396+533915961+534355553+535103718
3108+535105048+533703537+531369479+529312387+528338926+528552740+529805947
3098+531503883+532252834+530935205+528167598+525707355+524528057+524133065
3088+523629292+523028645+523087628+523868246+524116748+522724423+520442156
3078+519139454+519484348+520183743+519699974+518154753+516919192+516747320
3068+517093724+517218579+517286446+517835000+518569386+518518924+517376673
3058+515851576+514524096+513226350+511908962+511157171+511169560+511129432
3048+510378124+509451499+509190246+509417777+509241312+508340008+507338265
3038+507038213+507627015+508498223+508734880+507985264+506861415+506215896
3028+506144131+506077987+505744153+505390950+504949635+503807656+501876144
3018+500111822+499397771+499608019+500047521+499961252+498617062+496021721
3008+493536972+492690240+493403595+494214641+494236790+493929245+493675455
2998+492837909+491032250+489324976+489033808+489965359+490774411+490715367
2988+490274989+490260636+490828075+491343814+491049685+489949857+488897742
2978+488644950+488925814+488654256+487124295+484835289+482837483+481608449
2968+480980546+480739538+480754253+480765675+480470670+479687302+478463798
2958+477328466+477041982+477734457+478758682+479562507+480062986+480141066
2948+479622034+478764907+477983050+477153390+475901634+474453499+473486837
2938+473094261+472508118+471197620+469812457+469472942+470368293+471578078
2928+472130077+471796968+471030975+470447098+470212012+469975143+469495604
2918+468837515+467867438+466437645+465072213+464413852+464197379+463670007
2908+462650103+461575749+460940836+461002659+461626120+462279677+462427588
2898+461867703+460679794+459241781+458250764+458204231+458743840+458881417
2888+458079466+456867837+456161492+456239874+456707538+457129604+457221252
2878+456655746+455352561+453881733+452956226+452644057+452565766+452582476
2868+452725672+452742533+452358781+451785812+451417320+451239555+450928927
2858+450331392+449577063+448860111+448275932+447920191+448008514+448481829
2848+448617048+447771555+446393644+445467019+445167934+444767351+443728834
2838+442416492+441661559+441813488+442355545+442558360+442321340+442016303
2828+441740847+441241184+440456789+439697625+439242048+438987532+438568246
2818+437763605+436745121+435946676+435749119+436095704+436277065+435476897
2808+433753790+432086493+431313883+431407343+431779733+431924229+431695036
2798+431224532+430725020+430351058+430109385+429835410+429404943+428981275
2788+428824511+428779880+428306294+427212329+425997981+425208509+424782393
2778+424305544+423635458+422947757+422321123+421658410+420984729+420476636
2768+420194200+420051336+419977667+419863207+419493807+418789154+417962123
2758+417242664+416634069+416095940+415712279+415489673+415205243+414630552
2748+413766203+412783375+411885667+411252235+410945838+410872804+410930608
2738+411063260+411067248+410604147+409619567+408510795+407725735+407376189
2728+407268224+407086622+406530786+405534239+404456319+403845368+403859570
2718+404064107+403949827+403510356+403078831+402756661+402377894+401963593
2708+401760900+401738902+401454231+400625447+399576475+398847376+398493660
2698+398091143+397450338+396900152+396651801+396354922+395651024+394746427
2688+394062865+393700718+393508630+393333676+393058825+392660267+392225237
2678+391749656+391119880+390459978+390155454+390239456+390081967+389137061
2668+387824780+387140221+387447132+388145258+388519975+388470783+388270083
2658+388021823+387613324+387008355+386351444+385773520+385270805+384830094
2648+384486289+384163907+383663670+382945660+382271617+381941983+381979572
2638+382149088+382242760+382263337+382325977+382479417+382658209+382710786
2628+382430436+381675502+380536393+379366131+378612103+378493503+378758594
2618+378892393+378659120+378295644+378089989+377973594+377693758+377202374
2608+376644815+376104843+375594664+375205806+375088112+375291621+375663982
2598+375875287+375659419+375131050+374698407+374579081+374621234+374659428
2588+374739079+374860580+374801386+374367988+373630579+372809320+372121376
2578+371800415+372010904+372596594+373123634+373339230+373411750+373561927
2568+373671916+373501766+373138349+372908310+372885708+372801433+372497484
2558+372183653+372096961+372157757+372208461+372374200+372786688+373084654
2548+372745986+371917444+371328430+371331180+371562579+371577174+371355111
2538+371158642+371229924+371657127+372315760+372862864+372937378+372532082
2528+372090314+372070915+372498420+373065648+373498079+373647501+373442722
2518+372976509+372506579+372229734+372132224+372125305+372203838+372346340
2508+372398041+372276479+372148118+372152621+372153436+371996823+371769866
2498+371621290+371568713+371572188+371611923+371674683+371742761+371779747
2488+371766481+371762553+371818364+371847281+371705625+371372969+371030645
2478+370984776+371377713+371936601+372224476+372162773+372058224+372161232
2468+372437443+372687728+372747406+372653915+372604481+372648205+372596625
2458+372398675+372305426+372444091+372572995+372463822+372192567+371919831
2448+371710037+371625309+371730675+371995494+372344255+372739519+373111306
2438+373290762+373153216+372860900+372807537+373148109+373531318+373516179
2428+373093961+372617353+372427109+372658901+373182708+373691738+373989977
2418+374122296+374188682+374206902+374187533+374221860+374422257+374735392
2408+374927450+374943978+375090408+375556712+376034891+376179206+376174523
2398+376465570+377151036+377950962+378571432+378883933+378905840+378762159
2388+378555507+378183177+377356751+375791617+373287469+369733049+365213871
2378+360029956+354460626+348612820+342614202+336807249+331589159+327123222
2368+323324652+320102948+317476513+315465350+314191415+314146301+315948304
2358+319691819+324865099+331103546+338636991+347255516+355034351+359200538
2348+358240402+353084498+346886540+342901533+341869028+342361198+343024545
2338+343471148+343773224+343857921+343594764+343307041+343681214+345030480
2328+347005866+349015367+350653504+351953850+353469942+355793243+358796178
2318+361644313+363653541+364908833+366032471+367567630+369654244+372142045
2308+374772891+377212950+379158935+380585737+381762012+382908826+383953357
2298+384689405+385100866+385477003+386178907+387250451+388337587+389088895
2288+389536918+389928345+390261756+390246739+389777685+389206106+388929472
2278+388853900+388566026+387971029+387384009+386998082+386672104+386286539
2268+385955213+385833258+385958778+386270554+386641102+386970766+387320433
2258+387837803+388522332+389188369+389685524+390063897+390496419+391063224
2248+391623925+391928781+391838282+391404854+390801940+390227974+389792340
2238+389432671+389052484+388739288+388636914+388609991+388351880+387871223
2228+387515693+387465262+387575794+387765102+388181972+388931527+389910517
2218+390952147+391963772+392921309+393850683+394846565+396056019+397605047
2208+399543508+401830791+404333821+406885711+409391038+411840947+414253175
2198+416633193+418897753+420860478+422493721+424132040+426150726+428523311
2188+430883657+432906423+434530600+435935193+437339816+438807290+440273887
2178+441656240+442813147+443593553+444060462+444444909+444759706+444732481
2168+444253637+443552912+442773412+441785145+440577505+439381981+438295963
2158+437198523+436016718+434746801+433376142+431960066+430560308+429107520
2148+427463249+425591566+423900761+423506161+425550713+430033088+435822394
2138+441798410+447438446+452621999+457547139+462559574+467750832+472970464
2128+478058803+482812191+487072624+490969973+494755913+498442047+501747179
2118+504337445+506178729+507577037+508744549+509725323+510975750+513441976
2108+517817111+524198998+532451237+542322728+553055395+563218477+571201183
2098+575866399+576892981+574899042+571051127+566095892+560061981+552962811
2088+545071117+536515684+527223266+517122611+506320838+495461533+485572214
2078+477186085+470102053+464018889+458760248+454122771+450078237+446786884
2068+444225626+442197270+440548678+439097310+437697129+436453500+435556850
2058+435054195+434875645+434805875+434611793+434436415+434721419+435706000
2048+437343472+439523033+442186936+445524884+450026294+456116620+463988945
2038+473816954+485662592+499139086+513449832+527674582+540970773+552688746
2028+562306477+569365217+573700044+575559579+575407045+573797825+571241916
2018+568054357+564524322+560937238+557225419+553070141+548375373+543214362
2008+537571334+531536034+525449425+519592644+513955116+508431505+503150684
1998+498518073+494867503+492127272+489927286+487963170+486167906+484614043
1988+483400571+482670958+482585778+483104508+483898784+484690461+485549884
1978+486656057+487955737+489247259+490417914+491493145+492590676+493867089
1968+495405874+497155239+499031001+501021223+503099014+505124711+507052475
1958+509151508+511686809+514435743+516885470+518870224+520712898+522819727
1948+525353759+528217757+531184613+534020390+536569712+538850830+541063055
1938+543410166+545969158+548712652+551483643+553978696+555979464+557597387
1928+559194520+561102644+563376813+565757102+567990962+570156109+572352500
1918+574244669+575394837+575926168+576325270+576835267+577469213+578317577
1908+579459406+580719804+581833350+582729456+583442086+583916428+584148130
1898+584383699+584906025+585685676+586559422+587675747+589210936+590631846
1888+590998737+590247852+589344917+589076049+589358938+589692047+589812249
1878+589739608+589416108+588662685+587677318+587241775+587914096+588978691
1868+588780167+586722169+583991245+581869308+580568902+579551385+578251403
1858+576594742+575059976+574025598+573099033+571611164+569651309+567981474
1848+567137643+567041614+567037505+566158803+564208618+562150922+560750378
1838+559810095+558763570+557455248+556221440+555403353+554856491+553948721
1828+552332491+550406237+548632517+547021484+545470340+544094937+543058202
1818+542411142+542134599+542119611+542180226+542234012+542319525+542359169
1808+542210141+542036999+542260240+543067146+544210123+545293814+546123384
1798+546800781+547655914+549095195+551201480+553219169+554060825+553914637
1788+554099261+555389091+557476822+559793657+562258856+564900641+567414307
1778+569553044+571452042+573387422+575445118+577248752+578217802+578422187
1768+578385142+578340300+578548493+579650133+581876197+584336319+586079399
1758+587249208+588349761+589605385+591296553+593695698+596448801+598633831
1748+599876462+600739390+601801144+603132008+604689256+606604088+608719860
1738+610621880+612680906+615857466+619672565+621781570+621529683+620378125
1728+619477184+619391248+620354919+621996229+623759856+626020428+629857162
1718+635069179+638905973+639388715+638317473+638017724+638969731+640696977
1708+642986677+645774772+648551686+651149959+654577257+659459549+663991690
1698+666284956+667419955+668441279+668774086+668560031+669015215+670739380
1688+673550983+677695444+683425072+688496340+689977743+689294363+689305241
1678+691118182+694522878+698504229+701858343+704593799+707757064+711375936
1668+713655544+713630282+712855889+713362200+715705988+718737266+721313722
1658+723515250+726236686+730713048+737018244+741233714+740751698+739193362
1648+739473532+741369629+742664898+741984055+739907262+737578038+736169880
1638+736673230+739154020+741669862+741682916+739686015+737906675+737508238
1628+738196393+739106640+739877045+740656032+741526756+742607003+744495969
1618+747654822+750765207+751180747+748975412+746625762+745291816+744182259
1608+742373186+740260435+738827317+738424952+738835718+740052363+742568809
1598+746676405+751489743+755182344+756528498+755951963+754913899+754428135
1588+754265207+753726141+752933678+752556695+752549866+752446525+752606492
1578+753749710+755310402+755639402+754838357+754512379+755024492+755393740
1568+755046973+754721177+755112543+756317766+758865275+764022600+771480019
1558+775857270+773810633+769871585+767602130+767222608+767562244+767753092
1548+768098348+769651788+773249992+778894833+785679810+791722000+794312598
1538+793210776+791424063+790742012+790980301+791718978+793536452+797423467
1528+803432902+810155210+815584303+818945064+821088334+823353015+826503649
1518+830365342+833687728+835429237+836676219+839690999+845520222+853724175
1508+863455884+872322549+876356719+876148103+875617619+876810272+879842456
1498+883908354+887968390+891435393+894521726+897789117+901401522+904922734
1488+907235882+907203430+905556982+904837644+906732230+910237427+913139680
1478+915136218+918137521+923540870+930050392+933868452+932689276+929018733
1468+926488267+926464879+928356746+930582991+931829188+932102045+932383725
1458+933343588+934092116+933399972+932135525+931272475+929959621+927067944
1448+923929759+923485453+926197340+929705559+932294223+934377664+936730033
1438+939208044+941360681+942901490+943617989+943531508+943347791+944434746
1428+947875158+953544716+959707773+963611226+963781043+961270520+958343550
1418+956884386+957172955+958013160+958021561+956488849+954053625+952560196
1408+953366860+955828856+958278886+960254635+962499977+964900209+966339672
1398+966723787+967424995+969019711+970069742+969138523+966621715+963737592
1388+961429580+960561757+961783720+964764355+968489227+972210655+975264716
1378+976950324+977801045+979712915+983360372+986532642+987192272+986582378
1368+987111533+989347326+992505938+995915166+998645305+999956347+1001178310
1358+1004437724+1008916079+1010692881+1008100652+1005054205+1006163581
1350+1011265246+1016484817+1019080310+1019721146+1020664632+1022931367
1341+1025516103+1027018477+1027884245+1030716033+1037122697+1045045997
1332+1050813880+1053278595+1054089611+1054710988+1055077456+1054551081
1324+1053323074+1052731432+1053929221+1056480961+1059171576+1062000221
1315+1065925369+1070273068+1071695307+1068125144+1063569676+1063554809
1307+1067628503+1070588772+1069903457+1068527389+1069583402+1072305321
1298+1073741823+1072504752+1070077143+1067816934+1063349819+1053332623
1290+1040189691+1030704430+1027739447+1027222863+1023855635+1017450422
1281+1011745268+1009526094+1010454593+1011571281+1009721052+1003757063
1273+994570403+984487334+976288579+971530356+968780697+964220878+955573283
1263+944622694+934935282+928107096+923006639+918270837+914084254+910751474
1253+907383098+903294236+899170805+895305547+890085673+882025733+872007449
1243+861857542+852112719+842382339+832907170+824902527+819534773+816733927
1233+814978700+812545350+809157334+805905897+803627195+802187854+801344083
1223+801394121+802496849+803944531+804694389+804509221+804280903+805128179
1213+807232107+809805603+812296425+815034239+818426727+822387168+826787202
1203+831385276+835299607+838003215+840720542+845084558+850636875+855336054
1193+858366063+860758440+863522904+866871820+870533117+873743157+876136077
1183+878726191+882675755+887499668+891711090+895081399+899004614+904759624
1173+912347580+920920478+929575446+937431483+943909338+948593227+951289040
1163+952987158+955259755+958888538+963246268+967095694+969169888+968675120
1153+967050731+967487604+970924511+974010965+973004628+968639888+964826360
1143+963864804+964996298+966985584+970309662+975883191+982512250+987497461
1133+990180582+992213319+993892703+994096544+993701914+994952583+998025681
1123+1001057503+1002705703+1003065644+1003148680+1003613775+1004237085
1114+1003944164+1001443310+997726536+995235472+995158601+996806559+997830058
1104+996005756+992136448+989607069+990029861+991670507+992855787+994348491
1094+997262226+1000462053+1002562839+1004191579+1006044104+1007598027
1085+1006969218+1002580848+995994817+990899558+989669195+991095423+990965370
1075+985207156+974044747+962203309+954166696+950820862+950783515+952660696
1065+954561387+953466455+948117677+941621451+937794386+937297503+938685960
1055+941101240+944875184+949066240+950349905+947044138+942791743+941727693
1045+943852168+947084387+950197613+953413999+956749257+959015629+959285223
1035+958554402+958445863+958826956+958594107+957328027+955199382+952248178
1025+949177074+948389023+951778490+957475726+960939345+960658753+959653806
1015+960892509+963687916+964201116+959041857+948293357+935893393+926442579
1005+921575818+919423181+916764475+911585152+904271020+896623901+889469615
995+882000895+873605973+864983821+857484944+852541010+850894926+851225859
985+850952458+849021007+846012331+842617063+839713480+838096222+836934451
975+833891147+827855604+820617739+814907510+811643563+809781187+808095700
965+806007183+803017785+799109437+795703774+794593130+796131038+799437168
955+803552983+807686989+811257877+814295682+817194792+820188300+823744865
945+828818066+835569805+842385905+847594538+851875215+857361116+864826090
935+873104859+880718801+887259990+893636437+900977341+908731306+914622413
925+917113840+916830347+915103161+912453278+908911096+905081674+902433120
915+902074327+902927768+902097776+898312530+894117547+893242593+896267223
905+899981036+900926516+898947323+896806410+896891137+899095928+901832352
895+904747236+909195435+915363447+920639040+922381758+921126798+919325883
885+918559830+918913727+919683588+920014340+919543625+919150143+920664906
875+924635862+928859370+930840679+930945350+931113536+932253007+934492124
865+937534220+939810383+939597053+937803028+937008087+938014303+940952574
855+946991924+955422865+961982425+962830064+959229866+955312090+952521397
845+949821476+947604175+947229367+948260179+950115000+953743240+958617132
835+962269363+964789072+968304120+972043315+973754486+974314462+976101779
825+979534818+983705870+987218560+987768444+985730509+985659983+991261433
815+1001056899+1008464340+1007665290+1000237845+992489862+987528402+983620598
805+979817767+978416740+980574031+983635526+983598782+979723370+975753441
795+975278011+977271528+977281499+972282087+964380059+958445138+955620119
785+951505633+942625008+931645047+924421143+923657929+926208158+928052766
776+928781955+929519061+929799049+928685564+927359897+928356021+932242552
766+936389189+938660155+940508328+944664393+951074501+956521785+958675873
756+958843152+959218202+958603232+953905080+946056113+939702268+938823929
746+945148585+957828113+971703014+978794630+976292084+970627058+969080810
736+971490833+972453839+968974205+964010630+961940061+963357768+966211856
726+969723881+974726980+979922921+982077492+980519036+977889761+975893405
716+973453709+969336503+964288805+960672592+960915232+965034613+968323035
706+964843765+956377893+951862432+956343326+965753589+972011587+971569215
696+966172997+957686881+947932147+940728850+939211065+942316253+945214880
686+944467078+941752470+938651452+933862650+926999170+920381896+916721688
676+916416862+917556394+917083805+912576018+904409594+899176426+906976563
666+925545566+940807776+942447696+933017731+922019580+913980973+907572617
656+901567593+897531489+896562077+895975511+892932207+889230178+886557452
646+883257064+878112430+874330146+876642025+885987202+899494728+911545085
636+916791005+916540750+916675879+918812320+921495683+925270957+927330950
626+919243875+898967205+877316945+864878667+863105854+868149986+877514925
616+890316227+899021112+894213938+881592909+874994732+880758747+891339908
606+891600436+878105299+860138937+846369915+841125325
##END=
