##TITLE=<SNM>
##JCAMP-DX=4.24
##DATA TYPE=INFRARED SPECTRUM
##DATE=29/4/2025
##SAMPLING PROCEDURE=Instrument type and / or accessory
##ORIGIN=Admin
##XUNITS=1/CM
##YUNITS=ABSORBANCE
##RESOLUTION=4
##FIRSTX=4497.3318
##LASTX=599.83466
##DELTAX=-1.4281778
##MAXY=2.0515668
##MINY=0.41872752
##XFACTOR=1
##YFACTOR=1.9106705e-09
##NPOINTS=2730
##FIRSTY=0.43632373
##XYDATA=(X++(Y..Y))
4497+228361577+229070842+229666820+230001659+230075717+229847162+229275455
4487+228697461+228626319+229010463+229292253+229173647+228759931+228165060
4477+227486929+227068314+227326770+228224363+229159843+229560240+229386651
4467+228905178+228404050+228292307+228785714+229364861+229276032+228536570
4457+227781432+227329422+226921227+226195350+225259137+224848961+225673681
4447+227509826+229214732+229719166+228899874+227517859+226466752+226150116
4437+226520955+227475932+228826596+229871807+229644406+228041167+226220759
4427+225397973+225718899+226588915+227355938+227406974+226559731+225634717
4417+225709727+226627083+227018152+226006819+224186333+222661240+221827941
4407+221562435+222037342+223445031+225111425+225914106+225568707+224629452
4397+223501043+222346585+221553637+221507203+222202024+223359243+224477748
4387+224805474+224043816+222988872+222590940+222614836+222131506+221069668
4377+220265631+220150565+220271839+220012603+219381811+219152132+220048743
4367+221652200+222688583+222623571+222084135+221558098+220876411+220108966
4357+219816241+220152016+220566965+220767054+221245627+222348612+223432802
4347+223667035+223264876+223060716+223229188+223326472+223162211+222854996
4337+222440234+221968337+221621316+221476288+221457586+221506704+221568892
4327+221551189+221449834+221372905+221341944+221268509+221164627+221189038
4317+221514924+222256601+223403275+224552695+224843657+223740641+221931277
4307+220822520+221118536+222358673+223689745+224579508+224851721+224517148
4297+223708915+222764123+222295330+222783636+223922481+224806160+224963168
4287+224739979+224543477+224183573+223258138+221994167+221244613+221413226
4277+221784595+221480640+220840473+221015606+222336727+223971692+225164349
4267+225902080+226301057+226304223+226065592+225844492+225568489+225019975
4257+224236824+223478551+223098821+223376915+224127701+224823287+225316787
4247+225797122+226018221+225563965+224834190+224753829+225572388+226686838
4237+227387446+227264317+226333531+225243570+224857274+225360398+226231194
4227+226971046+227314292+227039770+226236061+225501839+225402668+225973892
4217+226886350+227716654+228084513+227911814+227451537+226872764+226086992
4207+225159748+224594856+224887129+225810957+226464007+226262031+225669266
4197+225613348+226336152+227158423+227335146+226878535+226394597+226212539
4187+225977901+225298334+224491739+224214924+224578962+225181662+225809195
4177+226553648+227388600+228078991+228414938+228362030+228177336+228275431
4167+228692626+228958241+228758480+228382323+228339007+228837748+229586132
4157+229929347+229530183+228912649+228787274+228990279+228753863+227869435
4147+226937511+226618473+227047304+227771246+228135440+227940140+227644623
4137+227766598+228251784+228563569+228294148+227664151+227419749+228039903
4127+229041783+229451913+228986458+228230883+227648834+227137990+226723165
4117+226905956+227915713+229139909+229739007+229517127+228804010+227901940
4107+227138972+227011132+227706749+228713355+229342182+229503635+229707109
4097+230476176+231841626+233138118+233409411+232411742+231037604+230383696
4087+230694109+231480645+232226081+232596904+232327561+231360651+230097460
4077+229246131+229242652+229855600+230551201+231137742+231634908+231752484
4067+231189824+230314333+229892661+230298969+231351854+232556100+233260966
4057+233052907+232211778+231463191+231248144+231442368+231681155+231736278
4047+231616814+231475747+231447531+231489130+231413855+231150283+230856077
4037+230705339+230733524+230940991+231322296+231771014+232080179+232013389
4027+231547809+231169718+231502950+232412335+233055746+233076491+233052751
4017+233482674+233977593+233816109+232846844+231544019+230473680+229987184
4007+230239104+231150845+232388813+233612557+234671416+235430922+235671066
3997+235429892+235173900+235225139+235232642+234629614+233456657+232389235
3987+232049171+232537118+233522074+234483057+234906585+234605656+233982881
3977+233709607+233940486+234055707+233571176+233041224+233313781+234213620
3967+234902108+235225389+235678802+236266357+236380268+235823613+235261669
3957+235437956+236268260+236960196+237067696+237133519+237916608+239167414
3947+239757340+239154671+238027509+237148524+236541441+236023343+235801230
3937+236092379+236804248+237797831+238901487+239652475+239673221+239298670
3927+239273136+239865838+240470348+240273456+239387468+238806075+239249646
3917+240324383+240854538+240185765+238894873+238016060+237955166+238508483
3907+239755312+242147989+245455073+248354351+249611350+248951702+246724409
3897+243770319+241429958+240998491+242889120+245588122+246355286+244867643
3887+243628535+244170326+245300904+245643931+245789553+246084570+245525871
3878+244156288+243539643+244458511+246327662+248704788+251332680+252820573
3868+252302928+251198367+250919790+250795178+249531208+247447368+245726444
3858+245247824+247148841+252704291+259568602+261020807+256263186+250108375
3848+245797180+244189823+244870341+246955226+249713562+252916749+256224363
3838+258247652+257709745+255448184+253274751+251936316+251171757+250830632
3828+250922675+251072695+251366667+253044199+256357975+258447554+257305153
3818+255442662+255190321+255164210+253396429+250745733+249230981+250034644
3808+252878722+255998678+258215287+260494177+263270077+264373093+262671806
3798+260241321+258828204+258117722+257298290+256452950+255978386+256062021
3788+256984992+258910030+261238849+263289200+265588477+268957203+272502716
3778+274533928+275444967+277239591+280990589+286275978+292061870+297505982
3768+302454645+307165253+311685256+316237047+321710421+328702462+336213100
3758+342443125+347253185+352434193+360145950+371446861+384213970+393827695
3748+399249689+403756153+409556489+414704336+416981776+418169675+420916828
3738+426016884+432381985+437907487+440877190+441222651+440399865+440096550
3728+441130842+442939754+444006552+443541893+442267363+441104887+440158411
3718+439153099+438295842+438546499+440975800+445449976+450050245+452881159
3708+453685601+453480396+454039267+456451971+459477202+460943399+460969509
3698+461421472+463246325+466208104+470074683+474852923+479923499+483502172
3688+484015497+482107570+479493404+477564451+477315478+478686185+480921760
3678+483903411+487308824+489110717+488508266+487876554+488141873+486718508
3668+482253285+477359464+474767697+474916874+476380575+477595054+478378252
3658+479357796+480539707+481638730+483328132+486931512+492679876+497639644
3648+497580185+493135114+488801568+487386626+488423008+489510240+489143784
3638+488606875+490054947+493373449+496820508+500447535+506126706+513221444
3628+517072861+516362723+514915868+515234781+517224659+519907955+522382957
3618+524321206+526034222+527565431+528348442+528415138+529073367+530959395
3608+532567469+532584689+532115381+533275112+536992325+542000790+545843909
3598+547235298+546729492+545447162+544503431+545335731+548827400+553584054
3588+556408821+556260205+555682524+556595933+557971724+557691400+555187948
3578+552113365+550809448+552361682+555784534+558917639+560215566+559880213
3568+559559147+560594282+562360082+563219709+562605217+561291131+560243892
3558+559854508+560192419+561214265+562373995+562755955+562261066+562033775
3548+563237241+565801588+568574196+570314228+570478318+569674468+569107954
3538+568944239+567872044+565268766+562856841+562656628+564341880+565655467
3528+564941960+562866949+561390894+561898635+564409949+567278204+568083988
3518+565822426+561948112+558800469+557338951+556730449+555751029+554530343
3508+554857024+558437912+564820921+571009206+573548283+571849367+568935193
3498+568345969+570655197+573013964+572468040+569456784+566958697+566957574
3488+568764864+570452488+571158196+571250161+570893407+570032220+569068149
3478+568182067+567181622+566458257+566780757+568043496+569255822+569463460
3468+568237657+566088151+564356105+564150588+565486761+567284068+568008057
3458+566773645+564303322+562222072+561427144+561732799+562580572+563297449
3448+563246974+562324893+560864436+559130394+557487880+556649278+557116402
3438+558513967+559613615+559342212+557964425+556627628+555787903+555091615
3428+554378670+553472498+551804341+549597871+548269996+548655887+550110603
3418+551914337+554074824+556210043+557279056+557185843+557222092+558030060
3408+558417885+557395166+556068851+555971333+556795460+556988624+555920360
3398+554700047+554786709+556309869+558112479+559308958+560085231+560765109
3388+560995583+560267788+558808392+557780744+558121900+559239080+559822813
3378+559946722+560943361+562840058+563915061+563470086+562874498+563211848
3368+563976516+564564118+565368342+566833478+568511992+569454538+569145888
3358+568231855+568060778+569186006+570866392+572074600+572473530+572321108
3348+571962296+571407699+570428030+569516493+570060046+572682853+576124671
3338+578382863+578403265+576607455+574489519+573568873+574209320+575414221
3328+575783266+574674447+572676052+570985310+570339310+570744729+571745299
3318+572418813+571925048+570854974+571062612+573310635+575854891+576459401
3308+575383774+574771154+575391136+575714136+574504805+572598625+571423297
3298+571464974+572702444+574886702+576914608+577444310+576584932+576070890
3288+577306738+579651529+581223791+581274827+580863730+581172505+582166087
3278+582844530+582185865+580319303+578870826+579485194+581934927+584249521
3268+585041704+584680520+583952975+582961327+581816820+581120283+580991695
3258+580984270+581243257+582133207+582945480+582648247+581748377+581824744
3248+583053791+583633968+582189359+579938903+579416376+581295853+583543251
3238+583957405+582722618+581750124+582214939+583352333+583583119+582591409
3228+581498188+580992880+580500113+579608853+578964475+579036849+579267822
3218+579010333+578266691+577033775+574913593+572016701+569596416+569131538
3208+570784160+572987635+573752178+572436220+570161307+568666099+568937626
3198+570639162+572556261+573625961+573612983+573015773+572439589+571761021
3188+570090306+567212256+564593816+563897778+564791098+565065183+563132798
3178+560107817+558741322+560139948+562181330+562022232+559484777+556548016
3168+554600720+553810971+554074449+555018992+555809740+555874689+555341493
3158+554574953+553675956+552601328+551601631+550949517+550289292+548997853
3148+547133787+545253313+543548407+541975147+540808990+540156564+539401317
3138+538081241+536754427+536240509+536415704+536433049+536012282+535661019
3128+535619216+535678301+536013592+536980720+538011862+537911349+536506047
3118+534936468+534225269+534387112+534700005+534339383+533117948+531710961
3108+530821323+530450531+530320570+530373852+530475987+530300792+529864614
3098+529646119+529922950+530286504+530055594+529166580+528190529+527240497
3088+525755084+523891205+522955927+523592787+524547062+524126607+522344336
3078+520795471+520653032+521459346+521997409+521841649+521531627+521591335
3068+521866387+521604313+520186438+518030287+516227677+515129028+514283968
3058+513692467+513720918+514055242+514066909+513753548+513451699+513231426
3048+513009376+512686812+512137831+511380182+510583663+509880512+509431950
3038+509349125+509211615+508414784+507282350+506783500+506962126+506843895
3028+506087150+505530183+505759159+506116256+505591482+504163844+502773234
3018+502134846+502018112+501792474+501285419+500719779+500170236+499649144
3008+499364078+499229749+498577417+497070073+495379174+494331156+493994399
2998+494002354+494118464+494123018+493695700+492834294+492099418+492060205
2988+492522493+492708669+492288807+491623871+490925275+490003194+489061521
2978+488836569+489489463+490087079+489748419+488722736+487730121+486834743
2968+485691703+484456884+483613697+483159893+482670870+481982163+481343588
2958+481060581+481250906+481764043+482187431+482111625+481570256+481067069
2948+480909874+480744943+480031872+478693266+477038118+475460116+474483192
2938+474553819+475404775+476089426+475858453+474740557+473374779+472488947
2928+472299495+472302833+472002606+471710958+471997989+472526818+472224844
2918+470628843+468411954+466672171+466161592+466869920+467965793+468422030
2908+467986133+467251475+466775772+466548886+466270371+465766155+465068215
2898+464269512+463367614+462295544+461210901+460542316+460471190+460561314
2888+460226210+459432623+458615858+458075050+457838837+457890403+458080322
2878+458072087+457749617+457323734+456800458+455877409+454647364+453819244
2868+453845760+454347542+454681929+454710535+454767124+455042207+455245478
2858+454988021+454318593+453589799+452899533+452061180+451104690+450419321
2848+450294445+450548284+450769773+450786588+450666984+450350660+449614286
2838+448443044+447119131+445927738+445029645+444458110+444060302+443672696
2828+443383887+443332882+443323586+442986173+442273259+441553606+441206180
2818+441173892+440939581+440050661+438705036+437660230+437426918+437672147
2808+437650279+437172174+436737026+436623723+436386667+435560699+434434879
2798+433698567+433538159+433472898+433094401+432576958+432187855+431663206
2788+430541254+428884826+427231144+426017133+425387137+425324152+425673950
2778+426196383+426682817+426906615+426602925+425743204+424727941+424007383
2768+423585368+423213485+422926921+422927108+423032643+422768229+421997790
2758+421044325+420211837+419549990+419022347+418618269+418313737+418060709
2748+417801691+417468678+417053713+416678772+416465487+416284802+415773286
2738+414771282+413658875+413016088+412973600+413104310+412966987+412568431
2728+412186097+411896039+411506686+410948408+410477167+410307961+410224450
2718+409843427+409199142+408734701+408601121+408295934+407326466+405975132
2708+404930857+404398347+404104921+403892946+403723897+403385424+402761199
2698+402139937+401853935+401867006+401953200+402021705+402075580+402022080
2688+401692466+401082809+400459925+400039938+399651895+398989892+398113699
2678+397402032+397043376+396816396+396422644+395901365+395563391+395553065
2668+395682496+395696315+395494448+395102818+394608928+394141461+393813470
2658+393679048+393717418+393795064+393716732+393411857+393036760+392779801
2648+392570042+392162033+391562265+391095204+390912865+390777538+390493533
2638+390180048+389963175+389769669+389515299+389159575+388587134+387775735
2628+387019770+386649759+386608892+386603028+386517520+386379604+386145761
2618+385875295+385829281+386059661+386192680+385895541+385297458+384742611
2608+384352229+383999967+383601131+383280408+383212682+383363545+383482837
2598+383359052+383044943+382827104+382941935+383307548+383612829+383668420
2588+383555523+383438851+383329354+383065844+382554142+381994055+381722808
2578+381804541+381934253+381771411+381258554+380639196+380249780+380244227
2568+380461068+380602073+380572187+380550600+380652641+380686613+380449120
2558+380080980+379816566+379570182+379160022+378787545+378851091+379335872
2548+379746095+379659121+379118563+378490625+378146755+378250138+378633033
2538+378907118+378851060+378605425+378401062+378285950+378197542+378107854
2528+378041189+378085955+378325007+378620368+378615501+378138332+377483847
2518+377142036+377313238+377764920+378127133+378249826+378253850+378321513
2508+378517173+378768672+378952539+379029998+379103370+379255449+379375896
2498+379290950+379018768+378728898+378490282+378210270+377830057+377475674
2488+377332486+377424108+377648903+377960049+378289413+378421308+378263209
2478+378055196+377992929+377934937+377744050+377538408+377387640+377165995
2468+376878714+376780322+377039371+377525400+377977331+378208835+378144883
2458+377835953+377481133+377287502+377259051+377228168+377103510+376963940
2448+376896589+376894031+376955018+377149086+377501941+377876788+378049518
2438+377916219+377604543+377390323+377510582+377972808+378505661+378806668
2428+378858983+378862321+378890616+378836148+378676021+378557602+378561002
2418+378567959+378464764+378351149+378449852+378869902+379497684+380062138
2408+380304279+380186671+379969487+380010260+380426441+380969121+381300762
2398+381379094+381446571+381681536+382025625+382345786+382616876+382892334
2388+383156967+383290203+383219857+382981865+382547903+381837764+381015353
2378+380426503+380133701+379943314+379949584+380491172+381526556+382651597
2368+383700583+384766258+385781926+386570522+387129610+387517061+387687295
2358+387675847+387741576+388231535+389388114+391101162+392783732+393745993
2348+393698794+392988906+392559872+393259216+394820934+396128438+396582647
2338+396663724+397079313+397799091+398237421+398099255+397670845+397308009
2328+396956309+396311712+395327926+394465085+394296379+394800594+395278200
2318+395128741+394475504+393843012+393494712+393291129+393025436+392742678
2308+392716380+393067051+393491000+393572390+393331372+393194766+393460522
2298+394066934+394846733+395726606+396589728+397151375+397221409+397068395
2288+397234699+397886033+398602161+398920138+398801158+398454668+398022888
2278+397587771+397239690+396999078+396848340+396873671+397146477+397458808
2268+397464860+397148661+396862503+396855578+397056509+397333683+397673747
2258+398099599+398644868+399361245+400172145+400844911+401296500+401780750
2248+402564479+403523808+404253943+404518763+404395384+404019382+403441514
2238+402745102+402037366+401305359+400515516+399791652+399294892+399053905
2228+399028637+399143874+399240892+399244448+399323467+399670020+400289659
2218+401146199+402204761+403277612+404211922+405199515+406502870+408004099
2208+409417075+410768597+412315746+414149490+416139867+418127686+419982549
2198+421609622+423078657+424635321+426420212+428324708+430296617+432519590
2188+434984079+437184216+438656776+439582882+440494045+441615155+442768927
2178+443736710+444495794+445112876+445531709+445638523+445500388+445279024
2168+444914596+444180437+443049563+441758187+440497102+439198239+437681974
2158+435946559+434191490+432548227+430917630+429071251+426880816+424483741
2148+422106101+419758908+417551284+416243280+416724723+418915907+421880993
2138+424910685+427824361+430530834+433048356+435710906+438845728+442379480
2128+445936972+449240562+452351893+455489834+458695470+461894960+465144082
2118+468495808+471837831+475149376+478696604+482764987+487348411+492190197
2108+497082676+502153813+507879684+514813764+523271971+533120693+543752551
2098+554305048+563944884+572018947+578203301+582659852+585794393+587727214
2088+588191094+586969658+584130541+579767702+574042984+567556157+560940803
2078+554121742+546818649+539498647+532999654+527662636+523381592+519966259
2068+517100032+514314914+511234810+507826808+504414470+501320514+498501892
2058+495759356+493106258+490569832+487954137+485182433+482581214+480558798
2048+479163510+478084483+477146928+476697367+477152730+478317421+479736699
2038+481619389+484794422+489859226+496796862+505319861+515296174+526646593
2028+538782520+550558760+561175332+570686206+579281236+586723587+592769682
2018+597558342+601375132+604245508+605838546+605869367+604567510+602482266
2008+599877303+596519838+591950609+585958232+578938022+571701874+564850744
1998+558426620+552186675+546029773+540143275+534882188+530494454+526877005
1988+523650000+520570707+517853252+515947852+514969056+514526514+514201300
1978+513971325+514029692+514400765+514929469+515563396+516502885+517978690
1968+519850617+521597949+522907013+524065526+525534530+527403026+529447091
1958+531457215+533364643+535244681+537268157+539541011+542046897+544751437
1948+547635975+550707439+554049805+557583214+560741713+562944688+564425297
1938+565959625+567964571+570318970+572801709+575360440+577979379+580452259
1928+582545613+584531966+587084583+590276649+593305561+595700952+597889827
1918+600019867+601425419+601894415+602296527+603525512+605616058+607846923
1908+609359040+609846628+609793658+609972846+610872903+612545116+614588245
1898+616256028+616946825+616741307+616397157+616734569+617889682+619141440
1888+619748882+619788313+619696286+619615364+619585105+619637264+619576245
1878+619315512+619180746+619366298+619629839+619869609+620363312+621097970
1868+621283023+620126225+617915824+615650145+613897573+612410038+610733396
1858+608837386+606974567+605262799+603649359+602130941+600826899+599923785
1848+599739481+600577396+601831961+601614216+598982736+595543913+593026235
1838+591452414+590108130+588894494+588249055+588326732+588579168+588047157
1828+586451124+584534025+582782825+580729152+577939011+574946411+572719664
1818+571665375+571406077+571472399+571885180+572753043+573680927+574112114
1808+574012288+573735021+573605933+573888691+574631147+575405486+575664785
1798+575503503+575773408+577432768+580587274+583626169+584330068+582920773
1788+581703330+582093214+583766487+585815294+587905092+590011486+591816280
1778+593217340+594963985+598082741+602566495+606548497+607896088+606983053
1768+605633653+604877158+605090661+606452477+608405762+609778247+610301149
1758+610712682+611331417+612206518+614072518+617668380+622207725+625466362
1748+626367792+626182989+626569004+628112690+630562237+633327546+635637023
1738+637425658+640012216+644376677+648582415+649541370+648195589+647039040
1728+646571168+646559500+647308945+649096582+651845856+655659527+660577337
1718+665405116+667778607+666926342+664655734+663101191+663479407+665879228
1708+669573232+673604149+677127201+680186747+684179605+690136980+696007818
1698+698592753+698136985+696496841+695136211+695407613+697775364+701214312
1688+704734245+709373602+716230847+721942961+721995120+718916856+717447790
1678+719396459+724110374+729493561+733860767+737871594+742751782+747183314
1668+748416417+746871420+745384884+745305023+745930683+746398993+747022345
1658+748430455+751088201+755834123+762680761+767710002+768334789+768170325
1648+769258929+769376662+765887863+760727351+757394094+757107093+759353494
1638+762958590+766145789+766416443+763043879+758388986+754732729+752963123
1628+753093396+754624230+756721390+757968718+757104785+755115811+754405611
1618+755608329+756525669+755023597+752336901+750359845+749311358+748888470
1608+749174659+750230008+751854491+753857253+755842546+757072466+757301380
1598+757386482+758435717+760485584+762361068+763132412+763467142+764839751
1588+767585594+770440247+772047448+772300133+772195378+773074909+775870540
1578+780164311+783294485+782151476+777962771+774370402+772573033+771422162
1568+769616619+767224722+764882551+763304550+763955978+768692042+776613308
1558+780202495+775438916+768170513+762845162+760509293+760586346+761702777
1548+762958153+764686830+767800719+772954743+780055563+786725884+788018071
1538+784042370+780824037+781014643+782904789+783912908+784096775+785294377
1528+788133120+791809655+795674985+800377483+806548860+813088470+818653341
1518+823501522+827518214+829921341+831729941+834906783+839691325+845373242
1508+852011556+858110808+859863381+858601890+859024654+862628565+867753140
1498+871768834+873752005+875446741+878779748+883762196+888844968+892372387
1488+894435357+896654742+900275249+905739856+912692809+919479739+924176497
1478+926937563+930110038+935934893+944298514+951654578+953810011+951366642
1468+948264607+947048600+947967187+949830006+951324840+952224273+953701825
1458+957427898+961916144+961522704+954802720+945906089+938892554+935017865
1448+932720367+930233261+928015249+927631230+929338756+932188792+935560982
1438+939264968+942225188+942693559+940757244+938318804+937172363+938042660
1428+940036749+941527341+941898694+942198547+944356164+949041129+953603995
1418+953931300+950128548+945983829+944234750+945265268+947806467+949935322
1408+950423410+949539948+948276648+946989390+945999614+946844518+950724760
1398+955744018+957940692+956252195+953789048+953489008+955272963+957728874
1388+959884120+961499931+963332988+966286282+970030948+973559053+976611300
1378+979312034+981006583+981243857+981055435+981434275+981864089+981622011
1368+981268751+982211734+985367800+990713926+997153523+1002469889+1005052392
1358+1005750863+1006601256+1008376540+1010277791+1011480945+1012200629
1350+1013362855+1015405860+1017580260+1018903643+1019803887+1021947716
1341+1025669297+1029126588+1031114813+1032818970+1035266270+1037959642
1332+1040575524+1043510787+1046236789+1046932639+1045060400+1042746118
1324+1042570923+1045159665+1049193078+1053153555+1057092445+1062034962
1315+1067400367+1070491733+1069688632+1066561703+1063470961+1061574888
1307+1061826575+1064876763+1069502706+1072988635+1073741823+1072575105
1298+1071216970+1070167298+1068358698+1064832839+1060074002+1055816667
1290+1053075191+1050209557+1044883957+1038443175+1034373887+1032650950
1281+1029776706+1024069084+1017678901+1013242939+1011509333+1011615024
1273+1011706241+1010306241+1007564641+1003914748+998752613+992090778+985642633
1263+980817350+977277515+974067231+970513982+965810112+959305815+951544208
1253+944303443+939145115+935692565+931711249+925471179+917320500+908490690
1243+899514012+890451233+881907301+874834869+869308868+864287738+858934436
1233+853651886+849386128+846516751+844693239+843235091+841540605+839429469
1223+837170591+835171697+833818866+833438777+834076230+835486149+837481299
1213+839975144+842824369+845934203+849213554+852230237+854633427+857111923
1203+860889469+866050979+871278874+875363323+878139426+880044795+881756626
1193+883913557+886230272+887827116+888854889+890763752+894717553+900215665
1183+905987300+911525904+916816003+921652642+926482356+932735028+941027336
1173+949812349+956825509+961723978+966550447+973249530+981091248+986942931
1163+988457606+986720818+984660843+984542362+987216829+991641249+995356715
1153+996403330+995289333+994708407+996556376+999269962+999939858+998279937
1143+996076462+994168098+991872970+989951816+991392432+997988881+1007846712
1133+1016810289+1021505050+1021017773+1017442251+1014470114+1014254490
1124+1016085052+1018152014+1019291218+1019014512+1018117075+1018425725
1115+1020598504+1024022790+1029271648+1037076992+1043901356+1044115608
1107+1038764802+1035414699+1037680066+1040662996+1038721004+1034456680
1098+1034429603+1039913988+1046044062+1048535099+1047980939+1045983792
1090+1041608412+1034395537+1027702319+1025225882+1026821104+1029534441
1081+1030348959+1028237200+1023942180+1018200181+1012269946+1008122420
1073+1006430991+1004990437+1001540570+997494055+995469207+995122685+994137277
1063+991175310+986747023+983136810+983150723+987501147+993195479+996020247
1053+994399757+989640358+984022954+979362072+976620284+976337402+978245516
1043+980731562+982701381+984851387+987252080+988712599+989750042+992227228
1033+995333194+995537775+991154284+984306211+977945851+973526610+971798308
1023+973400330+977471552+981002215+981669990+980821280+981711854+985190795
1013+987961283+986393264+981023366+974602861+967781616+959521814+950249151
1003+941990908+935789708+930394480+923863355+915909707+908419377+903352015
993+900391671+897606646+894123962+890769242+888388201+886672502+884642350
983+881942739+879369471+877488435+875162860+870859043+864880518+858869237
973+854077208+851071755+849826362+848996557+846308488+841058881+835293173
963+831804436+831769123+834019454+836320696+837499892+837995966+838928467
953+841398914+845917107+851627787+856828729+861018057+865244509+869816858
943+873745828+877111716+881561965+887974172+895636453+903466316+910386326
933+915448510+919195359+923704444+930528247+939326112+947828242+952386054
923+950161615+942303863+933626725+928350165+927164418+928338935+930505287
913+933271968+935723698+936090310+933864936+930648849+928024794+926628726
903+926956655+929141724+932024454+933921150+934339172+934210584+935353094
893+939546228+946458190+952886620+956023344+956517983+956309658+955912662
883+955500505+956122234+958046258+959783920+960168562+959344747+957566157
873+955133332+954003612+957123865+963880722+969941417+973164990+974611907
863+973739552+969085782+963333300+962081169+967281362+975654779+983817749
853+991327919+997092380+997909457+993713452+988761826+985972372+985316514
843+987134223+991456882+994970638+994811914+993857389+996751037+1003100104
833+1008582119+1011472211+1013529066+1015072939+1013475222+1008192173
824+1003660378+1003944509+1007808529+1011512016+1014504929+1018215404
815+1021711565+1023728677+1026027548+1030586670+1035721852+1038890583
807+1040638539+1042269386+1043881641+1045796556+1048070907+1048463598
798+1044348827+1036152165+1027331402+1021705014+1020128385+1018970339
790+1013777383+1004840635+996324031+990996871+988909943+988882428+988281038
780+984206822+976936546+969336283+963397189+959942144+958973518+958685707
770+957436820+956764241+958997539+962920394+965504706+968066806+974953625
760+985991838+995579827+998400913+994128292+986799494+980582197+976813448
750+975060127+976136065+982201814+993218876+1005218664+1013321490+1015385458
740+1012672058+1008069325+1003620074+999845273+997590699+998805209+1002326327
730+1002621750+997409577+992137260+993430071+1000750322+1006536182+1004983387
720+997560190+990004661+988092492+993714887+1003793147+1012821673+1016607954
710+1014385699+1008175827+1000591348+994037700+989769883+987132726+985304410
700+984744697+986663418+990676304+993523907+991835473+986045557+979400879
690+974175667+970593905+967830842+966084446+967052510+970300416+972695869
680+973032533+973087313+972847605+969123092+960917820+951958049+945099869
670+939417827+935330009+936583264+941048300+942101341+937873766+934256566
660+939144803+952161008+963688806+964737542+954785313+940108312+930289974
650+934070640+951714910+970531202+974829404+963149184+947276016+937073972
640+935324019+940422016+947979478+950888350+942671348+927067524+913032842
630+903295988+897760628+899244232+908993814+918724554+914996922+898868262
620+885194950+882621308+890462838+901013089+906610340+909875653+919339296
610+934348032+944114585+941021534+929205363+916757480+907892981+903603639
600+901737889
##END=
