##TITLE=<SNM>
##JCAMP-DX=4.24
##DATA TYPE=INFRARED SPECTRUM
##DATE=29/4/2025
##SAMPLING PROCEDURE=Instrument type and / or accessory
##ORIGIN=Admin
##XUNITS=1/CM
##YUNITS=ABSORBANCE
##RESOLUTION=4
##FIRSTX=4497.3318
##LASTX=599.83466
##DELTAX=-1.4281778
##MAXY=2.1876256
##MINY=0.63453817
##XFACTOR=1
##YFACTOR=2.0373852e-09
##NPOINTS=2730
##FIRSTY=0.63683563
##XYDATA=(X++(Y..Y))
4497+312574986+312620332+314947370+317403132+318816434+319255061+318515951
4487+316137657+313007557+311447334+312927836+316251315+318723431+318980411
4477+317827394+316682306+316464119+317492215+319082103+319676808+318408876
4467+316114487+314385372+314102765+314856561+315405071+315020128+314524189
4457+315433186+318096515+321177028+322932824+322850967+321939455+321253297
4447+320566232+319315825+318138234+318069571+318865905+319388905+319146816
4437+318446557+317695218+317234240+317108588+316920475+316540944+316571311
4427+317309807+317868908+317326073+316146727+315514399+315756313+316190639
4417+316151320+315618344+314983881+314569418+314560027+314962846+315325994
4407+315050671+314175523+313298678+312741420+312451469+312618576+313622156
4397+315376430+317294038+318870293+319915883+320353457+320118507+319182742
4387+317647415+315995183+315042830+315051402+315113219+314321303+313276532
4377+313397942+314951787+316599952+316941598+316067708+315261222+315362739
4367+315894866+315971545+315525282+315056083+314843952+315001317+315586602
4357+316398850+317221221+318163101+319281888+320145685+320168417+319260503
4347+318010885+317276924+317512576+318246655+318503576+318077675+317747995
4337+317843280+317693229+317030563+316599952+316742602+316728238+315985675
4327+314831021+313895665+313672680+314300239+315279390+315926960+316182243
4317+316397826+316597115+316427111+315693998+314718592+314071549+313982671
4307+314230611+314446809+314200273+313277322+312237027+312065531+313066419
4297+314562777+315662285+316138711+316656445+317844012+319174696+319569148
4287+318953847+318070069+317210689+316385949+315984856+316157083+316292887
4277+315858122+315055878+314406934+314183393+314186669+313986240+313609634
4267+313666010+314457984+315432513+315751953+315128256+313997123+313084060
4257+312923857+313648954+314895295+315862685+315974471+315600937+315537774
4247+315827871+315936000+315904170+316260794+316935893+317275490+316999640
4237+316287767+315155318+313598400+312202330+311888477+312903408+314443883
4227+315517208+315924502+316127067+316342416+316217028+315516506+314806154
4217+314970452+316040705+317081731+317463252+317472906+317407286+317008300
4207+316131426+315174568+314542445+314254834+314190472+314354947+314742611
4197+315054737+314860101+314164464+313458471+313057993+312847208+312747300
4187+312924823+313449461+314083485+314467112+314531065+314722629+315507583
4177+316648224+317467816+317721841+317666811+317554470+317602098+318126619
4167+319194268+320231608+320370923+319362780+317911855+316837624+316240959
4157+315912010+315867717+315867425+315326433+314366327+313904032+314203871
4147+314455878+314050778+313224691+312415222+311869695+311772596+312151425
4137+312882578+313998908+315498718+316872730+317515941+317513717+317352461
4127+317163910+316842714+316589771+316749682+317106423+316961082+316170014
4117+315467415+315451354+315769477+315783081+315641807+315885563+316414151
4107+316720251+316837448+317341578+318422831+319381298+319288997+318153622
4097+317107388+317103380+317686266+317599816+316477899+315273246+315064655
4087+316017856+317430661+318274740+317848692+316371584+314871364+314307553
4077+314860627+316080609+317420978+318393897+318521305+317614239+316110070
4067+314847492+314393593+314639163+315119363+315584086+315966542+316131134
4057+316256054+316761998+317254485+316716301+315325877+314590482+315176733
4047+316148219+316636405+316787099+316810387+316541441+316156498+316173876
4037+316635117+317012133+316953183+316687338+316600099+316704892+316726628
4027+316511396+316161969+315781033+315248321+314525038+314043317+314377298
4017+315454455+316436034+316614434+316145469+315627588+315324970+315229217
4007+315512995+316302453+317248312+317875110+318144290+318154002+317633343
3997+316448672+315289074+315016208+315438042+315455830+314455702+313083475
3987+312570568+313569906+315565391+317184389+317443680+316859536+316812142
3977+317793107+318953203+319476876+319549371+319586964+319471171+319132568
3967+319065281+319647757+320549293+321169568+321186975+320585044+319686023
3957+319146904+319356548+319847894+319800237+319118497+318494887+318413937
3947+318636132+318730481+318657050+318660063+318817546+318788670+318122085
3937+317111864+316978898+318447961+320505527+321452761+320953516+320047270
3927+319663204+320024948+320768154+321234456+321259762+321469319+322244794
3917+322825456+322091027+320116839+318216141+317510090+317987685+319027512
3907+320469192+322554638+324955429+326640632+326846005+325480009+322915534
3897+320213587+318852711+319684443+322167355+324340275+324529236+323615558
3887+323665790+324992847+325974807+325808694+325657005+326067137+325908338
3878+324713370+323539670+323075649+323084133+323487858+324325706+324973129
3868+325123356+325602589+326723220+327228286+325918929+323313818+320793811
3858+319512012+320473259+324298703+329035338+330314123+327864563+324904730
3848+323309605+323123335+323743317+324837208+326512200+328858518+331315011
3838+332625012+332087121+330509667+329024191+327900694+326861218+325838067
3828+325093340+324976113+326056956+329121758+333783090+337008504+336353504
3818+333515929+330924421+328794009+326621499+324989951+324835453+326374115
3808+328665022+330014050+330071010+330371347+331757207+333037865+333169193
3798+332693294+331997541+330881708+329846124+329805107+330755588+332010326
3788+333390832+335298464+337811830+340587150+343507284+346414340+348482029
3778+349321807+350214508+352616908+356597816+361505420+366865488+372107277
3768+376656560+380512489+383705196+385936920+387296128+388195909+388561193
3758+388320187+388503121+390660858+395659855+402891279+409652919+413406658
3748+415658539+419666537+426136470+431823323+434393122+436082508+439235340
3738+444008427+449346730+454280284+457946022+459408825+459015778+458544355
3728+459569817+462280102+465375564+467210320+467258329+466163355+464661321
3718+463018334+461552314+461020303+462091229+464504834+466853491+467942702
3708+467825241+467054155+466257236+466086940+466791528+467931321+469110112
3698+470471222+472131996+473967016+476318423+480198897+485406340+488595507
3688+486512168+481125301+476805322+475726468+477545602+480693695+483816218
3678+486466090+488355700+488948387+489166311+490657228+492978707+493769365
3668+491500955+487095287+482513853+479379452+478185683+478494913+480151035
3658+483282130+486827746+488812642+489025182+489167218+490550884+492367385
3648+492197528+489444881+485904473+483551281+482811615+482224487+480585830
3638+479157812+480067423+483176343+486548591+489445847+492393890+494347804
3628+493315086+490653776+489229444+489794630+491455843+493099766+494213990
3618+495266777+497015610+499345573+501463552+502628855+502476200+501317099
3608+500179003+500048933+501160699+503077693+504887494+505669844+505722913
3598+506610290+509235148+512578053+514912288+516053368+517444173+519813924
3588+521563517+520731434+518046601+515580541+514214604+513826501+514190146
3578+514883501+515050023+514059257+512562548+512449329+515085597+519474443
3568+522557852+522313686+520005605+517976739+517310943+518157362+520470592
3558+523824145+527051901+528897394+529113358+528382147+527356509+526429637
3548+525951486+525873666+525699772+525314302+525105008+524999688+524324121
3538+523053147+522170334+522105387+522093626+521570129+520870690+520353277
3528+520008356+520025909+520455203+520381948+518989622+517187953+516765095
3518+518331842+520949328+523167126+524062577+523591330+521933482+519057026
3508+515747239+514037784+515047097+517167241+518132612+518243022+519367602
3498+521682763+523438500+523446340+522348792+521496405+521447490+521455974
3488+520354448+518124304+516120597+515471477+515748760+515390264+513297562
3478+509940498+507026303+506202352+507647279+509749342+510549538+509605640
3468+508042111+506968201+506600636+506731817+507256836+508074584+508800880
3458+508833178+507924328+506685886+506029569+506299012+507366134+508969041
3448+510339425+510107312+507565598+503769058+500722453+499693947+500512398
3438+502042518+503041182+502956575+502049597+500705894+499253185+498282840
3428+498160669+498358202+498072317+497213084+496118462+494779147+493192799
3418+492008479+491895202+492633317+493232118+492802940+491331157+489655491
3408+488684766+488663643+489058007+489045661+488344817+487618317+487799700
3398+488958597+490238377+490904904+490936910+490727616+490443224+489864375
3388+488969597+488135231+487897238+488806001+490841654+492792935+493271145
3378+492628227+492501960+493500215+494971940+496562677+498212568+499171035
3368+498848289+498293254+499319361+502309795+505751818+507950717+508592757
3358+508297979+507546523+506801679+506726844+507401650+508217819+509105254
3348+510504484+511719815+511160216+508786604+506517667+505851169+506485018
3338+507331496+507872254+508190494+508301197+508080084+507571098+506853052
3328+505928228+504992463+504466333+504471072+504447843+503717978+502339577
3318+501059066+500458802+500448855+500688282+501171465+501955980+502491121
3308+502177385+501552137+501721995+502737978+503629275+503892867+503908665
3298+503958458+503921479+504015623+504841388+506409948+507792328+508203952
3288+508209745+509111164+511225983+513398610+514128476+512870549+510426782
3278+508309506+507501060+507793439+508513533+509344330+509854370+509266686
3268+507775242+506983180+507899929+509575741+510636485+510912306+510642336
3258+509593352+507996121+507099617+507696019+508839381+509114206+508658172
3248+508669465+509393655+509883918+509487623+508597204+507971078+507863243
3238+507813801+507257362+506380810+505928228+506104287+506327624+505953680
3228+504601961+502318514+500158817+499624144+500705543+501467004+500329493
3218+497926215+495895126+494927823+494814078+495318735+496119983+496536991
3208+496200670+495660204+495597890+495788636+495568693+495104877+495302703
3198+496328516+497064115+496459522+494730641+492831845+491440396+490681246
3188+490247271+489724242+489071962+488583747+488298974+487931438+487449395
3178+487079431+486638317+485534040+483553387+481122668+478798409+476926352
3168+475748205+475385730+475606901+475863472+475689607+475013981+474141934
3158+473478596+473133674+472810664+472216720+471501921+471120313+471238915
3148+471405115+471013560+470092568+469226460+468672274+468105245+467347762
3138+466705488+466346406+465954822+465312840+464795691+464895804+465466929
3128+465832593+465635499+465192337+464769098+463938243+462196812+459959003
3118+458295128+457740181+457949387+458484147+459268398+460149427+460633166
3108+460407284+459716768+458848027+457660372+456132096+454950526+454804600
3098+455296501+455344217+454574330+453543046+452770058+452343689+452255191
3088+452414985+452491019+452256303+451904974+451727715+451709401+451637550
3078+451465469+451356873+451364158+451252841+450818075+450197420+449633960
3068+449156979+448767267+448606889+448603495+448357632+447750786+447253999
3058+447287350+447593948+447568115+446998687+446169470+445315269+444349283
3048+443276573+442549106+442669083+443514361+444337844+444495326+443991167
3038+443246966+442530968+441789956+440932128+440019123+439182563+438621853
3028+438639523+439307309+440093666+440169116+439130401+437273995+435368090
3018+434190002+433985447+434362901+434808725+435103825+435121700+434635504
3008+433616244+432492863+431934640+432320344+433250726+433730077+433254705
2998+432484233+432341407+432781731+432970488+432476304+431703258+431148575
2988+430766761+430212634+429374553+428435160+427617060+427045730+426740478
2978+426681558+426886610+427295776+427621448+427641459+427558315+427617762
2968+427572358+427000033+425916498+424665037+423508130+422676163+422494575
2958+423085477+424041516+424691250+424766612+424552931+424274243+423735679
2948+422826244+421978479+421677353+421721558+421460043+420700835+419881009
2938+419318455+418846682+418264908+417629596+417053878+416642546+416567535
2928+416910643+417578633+418427276+419111210+418989566+417807996+416258041
2918+415250045+414927006+414828561+414607565+414246875+413919448+413801782
2908+413824163+413707726+413399549+413123202+412903932+412520744+411964012
2898+411498207+411315828+411423635+411680352+411811036+411653700+411365621
2888+411150243+410971784+410683442+410169687+409382569+408489195+407813072
2878+407514052+407555127+407854088+408175050+408193715+407932785+407708571
2868+407553459+407189901+406584577+406102710+406071114+406427416+406815548
2858+406919815+406706806+406408517+406281607+406313700+406180880+405607005
2848+404710501+403894332+403498037+403578578+403913494+404252360+404522125
2838+404596668+404107663+402905878+401487193+400534225+400207734+400141529
2828+400009528+399873637+399886363+399892828+399710625+399590590+399806613
2818+399990074+399555396+398631216+397920893+397757735+397827129+397787371
2808+397753640+398003130+398448896+398666937+398352733+397590716+396783733
2798+396358271+396378340+396505280+396441854+396182914+395773337+395204143
2788+394602475+394167476+393868982+393456978+392812304+392119857+391629126
2778+391363983+391178884+390993902+390841744+390761760+390734581+390662233
2768+390449955+390132914+389783896+389367795+388865742+388368195+387917222
2758+387486728+387132854+386942079+386896265+386886640+386743931+386330376
2748+385731605+385206147+384927314+384909497+385037665+385078447+384891651
2738+384589852+384260523+383764058+383023368+382240433+381703303+381560332
2728+381748708+382029940+382155885+382017565+381643973+381117726+380509154
2718+379914215+379541734+379552997+379723323+379591088+379085875+378643006
2708+378587977+378734020+378666557+378248672+377781608+377634804+377753933
2698+377730177+377356995+376854971+376540855+376514818+376666595+376810854
2688+376810971+376640382+376324745+375891033+375469871+375292495+375346091
2678+375250631+374816099+374419424+374435281+374657300+374670553+374465531
2668+374347222+374471089+374660138+374576204+374101622+373523212+373171708
2658+373047460+372994127+372954574+372853233+372568226+372209818+372089197
2648+372256246+372347728+372051721+371524918+371174818+371155422+371281776
2638+371374077+371446806+371517546+371433056+371048610+370513615+370183906
2628+370184638+370229486+370005302+369574544+369267479+369331958+369730213
2618+370119749+370085608+369564919+368936014+368563475+368444757+368389259
2608+368308046+368224668+368182013+368207700+368269634+368261530+368117154
2598+367927111+367844113+367883081+367906339+367820270+367697689+367642660
2588+367631630+367583769+367521308+367574553+367836214+368202902+368381068
2578+368169872+367693798+367223224+366891760+366709586+366658652+366650110
2568+366597216+366594495+366823741+367265996+367656468+367717993+367381321
2558+366822980+366308201+365998239+365926242+366061812+366283158+366376249
2548+366218592+365932619+365750299+365758813+365865976+365983114+366126817
2538+366312385+366454654+366458603+366357906+366287137+366323297+366414837
2528+366489614+366551226+366600551+366574104+366477619+366440026+366499620
2518+366510737+366392866+366296411+366407904+366718363+367044415+367190341
2508+367107724+366956765+366942108+367086045+367284514+367509957+367722235
2498+367701931+367326291+366885236+366752445+366915193+367139202+367329773
2488+367457999+367439159+367298674+367207748+367277873+367474529+367657346
2478+367660769+367495914+367387523+367437169+367462709+367321727+367130865
2468+367084495+367272169+367610771+367817227+367644093+367204384+366824033
2458+366642767+366628051+366785504+367056029+367221586+367183846+367123434
2448+367204325+367383661+367611912+367902039+368140822+368172710+368093633
2438+368136375+368319046+368508738+368649135+368628744+368240612+367589590
2428+367160354+367215442+367536111+367897680+368304360+368655513+368701883
2418+368478196+368371764+368649223+369184598+369682643+369948985+369928243
2408+369693497+369467381+369501201+369851652+370342120+370775978+371136113
2398+371538259+372040107+372613192+373365789+374685298+377030708+380683253
2388+385848071+392903757+402364388+414586648+429618806+447323686+467509077
2378+489836202+513673787+538082907+561780885+583171308+600906789+614786926
2368+625876794+635545549+644180416+650486606+652255567+648520932+640444844
2358+629457136+615490578+597462660+575042093+550975262+530985415+519803801
2348+518985819+527331817+540889266+554214252+564562377+572519512+578443392
2338+582110681+584435554+586904481+590017672+593098623+594842366+593983425
2328+590236210+584743907+579126097+573995157+568664753+562236626+554754366
2318+546985929+539551297+532848812+527070624+521621970+515200162+507046255
2308+497675555+488162263+479244409+471166654+463857557+457094630+450693593
2298+444647893+439072182+434034655+429487215+425327644+421423123+417620878
2288+413929102+410624112+407975469+406001808+404621477+403753847+403136586
2278+402365763+401272311+400061135+399038598+398327866+397844595+397448476
2268+397034131+396510604+395874649+395315723+395037797+395002778+395006523
2258+394867325+394426006+393612441+392614947+391758347+391202757+390917369
2248+390855055+390985564+391221129+391450784+391660809+391934874+392316132
2238+392737352+393057553+393100090+392762424+392213504+391830286+391779118
2228+391802669+391558210+391039745+390533187+390241802+390088065+389877894
2218+389533762+389095895+388619294+388191989+387952796+387955312+388069672
2208+388113906+388037491+387927139+387907685+388058496+388312522+388465820
2198+388458653+388556980+389013395+389662369+390118315+390265177+390317515
2188+390508056+390881590+391322324+391716365+392076588+392433475+392674570
2178+392698705+392685657+392971747+393611300+394224144+394400028+394188364
2168+394000486+394072220+394292397+394524422+394760338+394972908+395136797
2158+395332838+395585225+395758183+395832755+396064810+396616070+397226720
2148+397512399+397459183+397390375+397533317+397820898+398070944+398236296
2138+398471861+398961422+399686694+400435517+401054212+401562789+401986174
2128+402283351+402505634+402783210+403097091+403323441+403572259+404198384
2118+405326679+406594406+407556150+408180433+408727159+409289741+409740276
2108+410035141+410298353+410631836+411041734+411484486+411821100+411841227
2098+411523981+411185320+411192546+411576407+412072638+412483385+412789397
2088+412976193+413048805+413173082+413472219+413746577+413740053+413570459
2078+413541087+413663287+413716239+413653047+413623733+413708106+413916025
2068+414342803+415031740+415754028+416220565+416486176+416855672+417416148
2058+417952079+418327602+418667317+419100327+419574880+420012278+420444527
2048+420923118+421455479+422075753+422823933+423619769+424281996+424744144
2038+425214367+426029015+427284542+428694802+429910279+430861461+431696705
2028+432582238+433664457+434999237+436418010+437664673+438720034+439815944
2018+441112692+442529973+443922592+445265681+446600491+447938197+449286318
2008+450677005+452161193+453821119+455668689+457511081+459144794+460626261
1998+462082540+463478874+464877899+466530687+468380071+469912998+470811404
1988+471352718+472002043+472928769+473994750+475061901+476210442+477610198
1978+479302159+481237203+483376713+485641730+487932052+490199731+492329294
1968+494117388+495602161+497164345+499079641+501236003+503444790+505774461
1958+508387208+511175722+513802979+516102283+518216166+520334378+522534097
1948+524873422+527404487+530070830+532691301+535030333+536952417+538594936
1938+540255944+542076863+544009771+546116164+548617565+551514148+554435423
1928+557090532+559632129+562261961+564774889+566983793+569223825+571803689
1918+574358861+576422541+578245742+580314630+582538571+584458958+585899790
1908+587068078+588214190+589457547+590834543+592343774+593878223+595149021
1898+595905217+596328251+596948408+598073573+599561798+601120471+602496589
1888+603456461+603880665+603855857+603585595+603302577+603222944+603462546
1878+604015650+604780154+605552322+606183246+606862850+607909376+608994345
1868+609112946+608059457+607018665+606974781+607576391+607853206+607448661
1858+606684509+605823111+604874766+603923320+603174438+602683181+602362833
1848+602357099+602950283+603671079+603003294+600210567+596607114+593834222
1838+592406088+591902543+591751468+591811032+592150102+592336869+591537376
1828+589800187+588201200+587198030+586105573+584464868+582764248+581402757
1818+580135586+578936522+578426892+578839628+579281853+578693584+577206588
1808+575881023+575415627+575817889+576840192+578073720+578887607+578814936
1798+578024629+577281540+577534424+579231709+581465305+582501475+582078558
1788+581463843+581479699+582074229+582979451+583966179+584851450+585748305
1778+587000380+588825921+591411402+594866121+598383330+600387797+600558005
1768+599970263+599497027+599660214+601012869+603472786+605818781+607086596
1758+607682998+608255000+608966376+610160175+612458835+615717484+618557429
1748+619936941+620403916+621029632+622353325+624392255+626669266+628247130
1738+628966171+630293667+633580635+637512862+639062992+638311243+637429484
1728+637342361+637974630+639080370+640310503+641629105+643749015+647358788
1718+651759746+654759893+655283859+654595887+653987432+653751282+654025991
1708+655345295+657840961+660433288+662268717+664197764+667091246+669728451
1698+670635136+670431576+669720318+668590881+668110506+669466380+672446342
1688+675908901+679643185+684080888+687628113+687955832+686423899+685670045
1678+686642613+688824778+691041289+692693520+694550423+697340517+700060924
1668+701003710+700716831+701213238+703040417+704842378+705476110+705779255
1658+707248172+710592597+715767304+721158325+723002823+721517114+720952893
1648+722848003+725610070+726715400+726379430+726759868+728736367+731516104
1638+733931201+735441953+735831695+735180351+734680024+735850125+738957992
1628+742352854+744121698+744669887+745998904+749071254+753523058+759449395
1618+767165816+774820859+779230067+780809159+782163044+784032234+785812078
1608+787202765+788295340+789146966+789841081+790323094+790382366+790172136
1598+790205370+790833310+792052736+793517030+794598663+794839962+794587722
1588+794725456+795690711+797150851+798493911+799390591+800187334+801905800
1578+805266902+809256762+811635757+812310681+813014392+814124695+814446271
1568+813305659+811771444+811279309+812628571+816363030+823262463+832671839
1558+839050291+838950588+836634550+835302198+835085707+835054989+834409906
1548+833559391+834427167+838479926+844537211+849749247+852471234+852592761
1538+851190664+850228276+850099728+848826062+844915075+840691697+839601990
1528+842463525+847318586+851501006+854401451+857107874+860119431+862940126
1518+864917736+865770358+866252897+867768038+870706164+874357128+878138923
1508+881715872+884067309+884664237+885311544+887990466+893412791+900680374
1498+906760244+908615158+907259284+906414562+907965335+911379799+914677884
1488+916044173+915562335+914378308+913803790+915289792+919659446+925976519
1478+931703920+934515545+934407944+933933830+935557215+938899593+942096806
1468+944817681+947793312+950791705+952325627+951507820+949067505+946224459
1458+943710537+941683660+940168754+939216313+938737109+938784795+939558368
1448+940370617+939392080+936177314+932813931+931146486+931284865+932937915
1438+935824961+938229468+938110340+936615853+936055962+936421948+936308437
1428+935744977+936311070+938529512+940826709+941354712+940331473+939589379
1418+939966891+940301866+940166999+940563878+941676346+942534292+942324296
1408+940976556+938600076+935391454+932468248+931487488+933027144+936160521
1398+939523554+942220322+943383988+942420781+940504431+940028971+942435058
1388+946736781+949486502+948029580+944235790+942492925+944882101+950141356
1378+956528818+963395192+969458094+972371587+971865175+970675824+970892314
1368+972235842+973898664+975756561+977456069+978298568+978807613+980311286
1358+982682207+984544844+986043074+989483517+995859920+1002390208+1005480755
1348+1005027178+1003303212+1001765077+1001085999+1002456208+1006344961
1340+1010873238+1013712306+1014658544+1015306260+1017239344+1021025937
1331+1025758886+1029666479+1032371088+1035785201+1040709480+1044613797
1322+1045750431+1045936027+1046794383+1047151065+1046093539+1045563079
1314+1047301789+1050064909+1052047142+1053986077+1057787415+1063171590
1305+1067914252+1071211577+1073171576+1072232241+1068271871+1065606698
1297+1067910156+1072632222+1073741823+1068753767+1061142314+1055923842
1288+1054625953+1055504202+1055942683+1053913056+1048697392+1041527112
1280+1035381593+1032862463+1033694137+1034806898+1033280348+1028575485
1271+1022124070+1016404276+1014179925+1016072987+1018838448+1018530446
1263+1014892003+1009999787+1005232785+1001529629+999548098+998309656+996053825
1253+992864161+989707965+985797562+979901475+973104671+967613537+963863572
1243+960304762+955212966+948205463+940175600+931838085+923278639+914815034
1233+907289300+901202526+895863228+890271281+884901441+881513892+880848272
1223+881331338+880478307+877118785+871864738+866091817+861199952+858229177
1213+857559754+858911180+861216803+862745460+862506443+861662481+862462735
1203+865817459+870821138+876014450+879992374+881628105+881196587+880703106
1193+882106783+885867280+891200025+896979851+902259058+906173614+907986224
1183+908077384+909020756+913543709+921167448+928883869+934756084+938693927
1173+940621979+941021785+941923672+944566259+948492108+953995236+962009068
1163+971415519+979541984+985537891+990132286+991889252+988754237+983603520
1153+982837495+989119462+998063091+1003141722+1003662352+1003874279+1005449978
1143+1005948257+1004083280+1002238196+1002428357+1003476170+1003123232
1134+1000865881+998050452+996979936+999056489+1002219356+1001736406+995919484
1124+989668294+989140058+994970905+1002930731+1010070820+1017171120+1025135042
1114+1031306658+1032878261+1032108842+1033691680+1038882886+1043160503
1105+1041165866+1033505264+1025713949+1022843521+1026221122+1032584770
1097+1036413491+1035093719+1030793517+1027085329+1025903642+1027790268
1088+1032253950+1037149793+1040196340+1042143466+1046036783+1051892790
1080+1054912305+1051432309+1041663325+1027842694+1014238904+1005783490
1071+1005400361+1012101617+1021382503+1027685534+1026972636+1019369727
1063+1009289465+1001897077+999406267+999759790+999660790+998408656+996763563
1053+994136071+989782976+984657302+981227450+981574653+985434210+990812534
1043+995780579+1000420496+1005757745+1011461039+1015818816+1016861012
1034+1014292968+1009833499+1005598479+1002038908+998380922+994571978+991664453
1024+990064881+988404809+985125857+981407020+981072922+986132830+993597420
1014+997794643+995813346+990675384+987910743+989591996+993145832+993987688
1004+988824099+977832763+964528666+953513165+947135591+943824633+940224281
994+934968771+929908863+927100105+925724220+923168639+918663824+914109334
984+910990760+908427221+904812767+900319830+896822047+895598817+896071059
974+896737499+896643062+895892776+895261502+894917516+893237785+888253707
964+880288849+871778961+865184839+861648907+860424156+860008904+860266527
954+862172111+865630692+868998990+871192975+873242378+876765028+881591361
944+885791860+887896381+888836827+891181009+896258938+902355484+906575233
934+909038484+912696821+918270221+923614960+928374122+934749062+942956390
924+949637050+951817694+950039254+946900670+944949682+945261252+946602030
914+946738536+944696446+941555755+939601081+940066418+941661485+942114827
904+941119849+940130722+939676736+939149962+938934817+940467511+943611127
894+946850994+950175409+954480526+958446631+959145602+956507286+953938364
884+954086748+956736298+960231623+963589097+966936917+970620121+973663976
874+973582997+969652526+965233313+964715842+969559786+977698831+984593525
864+985594413+979935060+972531849+968466744+967313084+966560399+967521324
854+973056458+981084039+985419348+983737510+979521037+975849184+973047622
844+972359885+976985934+987519071+999356884+1006537813+1008130012+1008423854
834+1010007628+1011323305+1011468880+1012288969+1014708044+1016938715
825+1018130114+1019363174+1020271614+1018495223+1013198346+1007799777
817+1006545068+1009383667+1012228937+1012619439+1012482289+1014202393
808+1017532718+1019950272+1020935245+1023838323+1029934459+1035316294
800+1035187570+1030355153+1026712731+1028204994+1032918049+1035291486
791+1031973331+1025314437+1019109821+1013822540+1008785101+1006608845
783+1010810749+1018761798+1022201305+1016634107+1005992608+995572515+986081692
773+977064690+971621594+973329528+979888135+982924091+976558453+965557814
763+959623461+962268857+969797165+976892960+979732320+978227712+977128467
753+981234646+989197281+993710463+991391441+988483565+991586282+999552311
743+1006837038+1011145080+1013999360+1014272723+1008687855+998670668+990139541
733+987824966+992290052+1001423607+1012246607+1020921788+1024535773+1024177804
723+1023749972+1025408405+1027550958+1026388463+1018885959+1007075060+997765855
713+994945863+996482945+999100021+1001092669+999373033+993803378+989537698
703+990777193+995231162+996446434+990754140+980660128+973934355+976637385
693+984360885+985543508+976317622+964361383+958929053+962823072+972579710
683+981743809+984529397+980818400+974708279+971356481+972195937+974043186
673+973274703+967618160+956970985+946569674+945462296+955914336+971942000
663+985676679+989024791+979165174+965724395+960701466+965321079+971972367
653+976218212+980673000+985968297+985824946+979302382+972400492+969218901
643+967197232+960918191+951522389+943683798+939449128+940586112+947995468
633+956927804+957881298+946123294+929605309+920533599+925519140+942987050
623+963019201+972672860+970865808+962586220+943238530+923721742+920827090
613+933146799+944316418+941691969+932556834+927379611+924858025+919392285
603+907293923+894349375+891707782
##END=
