##TITLE=<SNM>
##JCAMP-DX=4.24
##DATA TYPE=INFRARED SPECTRUM
##DATE=29/4/2025
##SAMPLING PROCEDURE=Instrument type and / or accessory
##ORIGIN=Admin
##XUNITS=1/CM
##YUNITS=ABSORBANCE
##RESOLUTION=4
##FIRSTX=4497.3318
##LASTX=599.83466
##DELTAX=-1.4281778
##MAXY=2.0483179
##MINY=0.43749672
##XFACTOR=1
##YFACTOR=1.9076447e-09
##NPOINTS=2730
##FIRSTY=0.44365743
##XYDATA=(X++(Y..Y))
4497+232568164+232686974+233778835+234868619+235498756+235651498+235193460
4487+234054277+232869039+232663649+233649762+235012441+236145640+237306663
4477+238786808+240193059+240819274+240377046+239216366+237992681+237220411
4467+237140970+237756171+238603868+238812257+237968498+236607303+235396225
4457+234357293+233235826+232138168+231470991+231497549+232076522+232811736
4447+233419985+233873258+234274368+234608425+234653434+234324532+234034655
4437+234323345+235094475+235631282+235497678+235062636+234941233+235216159
4427+235449373+235259840+234655246+233920314+233436779+233435154+233650168
4417+233620032+233457198+233645153+234116846+234409753+234369666+233841951
4407+232508361+230780129+229911670+230539448+231891191+232874757+233100191
4397+232577506+231397861+230076863+229434354+229801953+230883707+232506517
4387+234659543+236533705+236755217+235032235+232478428+230319560+229338681
4377+229962740+231648916+232803752+232394957+231187722+230660257+231189597
4367+231832278+231736309+231184457+230845713+230663288+230365662+230424528
4357+231362695+232617828+233117579+232639216+231916515+231744511+232351870
4347+233297957+233820938+233585631+233160244+233415986+234436780+235403677
4337+235541249+234805989+233639763+232483255+231652369+231262117+231022138
4327+230506953+229818138+229529183+229793720+230087252+230106343+230224387
4317+230736698+231443229+232163227+232896754+233484975+233734858+233648121
4307+233153042+232136309+230936121+230188643+230127684+230526762+231154102
4297+231782958+232030076+231699080+231146322+231058617+231902439+233479304
4287+234840546+234913378+233571868+231890144+231070412+231265538+231629232
4277+231393096+230608578+229875520+229755616+230508374+231892878+233186974
4267+233821969+233894130+233700676+233205362+232458400+231946932+232020687
4257+232518000+233158682+233704144+233747028+233128468+232596003+233257541
4247+235218831+237224144+237937862+237363795+236654717+236737923+237419224
4237+237622379+236457326+234247856+232310970+231636184+232082396+232875960
4227+233520188+234075868+234683523+234998349+234504910+233397629+232486677
4217+232210345+232424874+232969899+233727734+234323704+234402895+234123766
4207+234130953+234974384+236324628+236955389+236065762+234409425+233553480
4197+234184663+235418628+235790664+234859027+233547606+232908674+233135920
4187+233943544+235190710+236637735+237583229+237414521+236403959+235476244
4177+235246045+235646983+236322488+236967997+237423270+237702430+237803070
4167+237581901+237154608+237016145+237271512+237362357+236990728+236614833
4157+236725737+237255030+237774247+237847860+237355983+236710552+236502241
4147+236921066+237673418+238228738+238120693+237333049+236349561+235636672
4137+235362402+235657263+236607771+237842845+238608836+238520553+237945204
4127+237471950+237288119+237135627+236745562+236339032+236509068+237349281
4117+238119740+238228114+237939705+237775028+237907351+238324427+238878638
4107+239127411+238746908+238050688+237754000+238346330+239695636+241078952
4097+241728976+241470267+240589450+239261906+237663748+236449983+236364840
4087+237248750+238034722+238027082+237628097+237535346+237840752+238160827
4077+238262577+238342846+238695682+239144003+239124115+238471888+237630238
4067+236964216+236507756+236364309+236693805+237417427+238422599+239740457
4057+241124930+241876219+241522087+240427694+239385949+238791917+238549814
4047+238624974+239190027+240191137+241207651+241804262+241762627+241140943
4037+240367469+239999589+240166735+240463892+240443348+240055346+239646284
4027+239602588+240010743+240619133+241037865+240976796+240462392+239872296
4017+239603384+239676607+239795214+239769437+239747175+240033661+240775109
4007+241749754+242470596+242677751+242683719+242976173+243502404+243646726
3997+242996608+241844896+240841458+240422929+240709385+241670048+243023119
3987+244077518+244245476+243852959+243846351+244508357+245058007+244774394
3977+243938883+243335789+243363941+243958521+244890423+245722403+245865959
3967+245212248+244413981+244120652+244250179+244368035+244379237+244415669
3957+244408826+244185408+243810622+243630666+244028448+245076660+246255571
3947+246763523+246387988+245699204+245209249+244847539+244504014+244482190
3937+245037353+246052993+247330482+248570008+249098207+248537841+247648104
3927+247534278+248321531+249100051+249120829+248732186+248796114+249464901
3917+249814065+248832702+246764585+245035151+244837931+246038448+247622936
3907+249213830+251462997+254608024+257416401+258508294+257931086+256332475
3897+253974779+251408693+249875930+250287164+251892367+252723332+252355296
3887+252380620+253575669+254603025+254449549+254137488+254151064+253270685
3878+251364840+250238874+251018941+253042580+255449940+257858988+259264457
3868+259061317+258425353+258367987+258082375+256489669+254244674+252827269
3858+253291494+256724899+263882475+271204838+271575625+265520908+258562988
3848+253828458+252078573+252910116+255221616+257858535+260530292+263494566
3838+266107723+266983306+265938937+264134967+262533091+261203438+259983861
3828+259030744+258497280+258646382+260443587+264342560+268007085+268884761
3818+268150844+267525316+266160715+263107220+259840556+258467612+259946992
3808+263383740+266307317+267763591+269711258+273135476+275281268+273836430
3798+270537754+267507006+264987428+262777240+261331012+261125450+262117936
3788+264059448+266590086+268907882+270366375+271552347+273509543+275906265
3778+277378349+277726732+278177881+279985788+283724864+289013918+294467415
3768+298822020+301902636+304134102+306371036+309956448+315717741+322811390
3758+329315380+334497857+339481521+346097150+355553995+366291797+374397382
3748+379227757+383882066+390343438+396314886+398975786+400051806+402525016
3738+407590730+414762335+422268982+427741258+430183285+430812375+431358665
3728+432703519+434887742+437286151+438820538+438768452+437659812+436924083
3718+437365139+438750486+441155332+445570334+452027301+457816871+460323888
3708+460461772+461041745+464041123+469209290+473750241+474766271+472810981
3698+470871938+471120024+473947367+478759713+484925756+491339542+494969885
3688+493115860+488079985+484008086+482074480+481297038+481355717+483456109
3678+488242241+493247683+494564510+493047245+492455150+493115766+492181317
3668+488453834+483948658+480698412+479470259+480229673+482729472+486707355
3658+491210281+494365603+495555794+496693211+499846784+505329745+510751247
3648+512455045+510048825+506397642+504239633+504180736+504893657+505367114
3638+506402235+508835138+511646171+513495353+515350721+519514325+525848123
3628+530676811+532004167+531890185+532715494+535456319+539575429+543091821
3618+544457671+544512913+544716506+545179497+545677170+546865548+549113386
3608+550979846+550703014+549193749+549164878+551405030+553821968+554844559
3598+555807472+558296898+561616320+564451068+567061288+570126874+572728720
3588+572907942+570707659+568974491+569874226+572801272+575529973+576520819
3578+576140691+575698134+575851236+576225303+576304353+576775967+579221775
3568+583596283+586863151+586392412+583518545+581312950+581206092+582358975
3558+582914202+582004780+580630744+580171815+580599249+580949632+581122292
3548+582050461+584249494+587049060+589378073+590885214+591723647+591492370
3538+589522051+586553012+584932201+586212127+589279589+591480247+591577419
3528+590888089+590905274+591170545+590469966+588964263+588014223+588243374
3518+588858466+589138923+589508803+590638565+592297558+593652910+594319869
3508+594702372+595487063+596858537+597870255+597011138+594105777+590839159
3498+589085681+589482870+591698588+595266222+599355899+602608645+604111599
3488+603981244+603235297+603094007+603401646+602363120+599163242+595638789
3478+593939553+593976235+594246005+594076844+593887686+593848942+593562611
3468+593078186+593248160+594640819+596763489+598813734+600096847+599598424
3458+596913779+593897747+593094121+594573017+596360239+597034885+596394672
3448+594584578+591938238+589402882+588325174+589507116+592357236+595294717
3438+597103999+597423574+596224073+593776453+591346580+590779106+592531021
3428+594784297+595428884+594619260+594086155+594246880+593570548+591161546
3418+588329924+587218596+588849343+592247815+595060754+595499811+593862252
3408+591664906+589988729+589049749+588346858+587258277+586238498+586746169
3398+588849405+589966419+587898615+584184942+582218185+583307078+586291177
3388+589515677+591727146+592247065+591578857+591270280+592273936+593640662
3378+593573172+591880185+590490838+591231223+594127649+597884190+601013892
3368+602725064+603548686+604679323+606553782+608482170+609601497+609853582
3358+609732664+609148192+607659485+605906008+605364529+606407492+607783904
3348+608458236+608671453+608839865+609018587+609605496+610957848+612275894
3338+612233775+611020964+610277892+610526103+610402310+609149254+607950815
3328+607660798+607203994+605676293+604430549+605527629+608913853+612220090
3318+613238182+611867020+609543943+608013618+608624211+611206560+613750602
3308+614392065+613094079+610729946+608189591+606672576+606864734+608004807
3298+608983467+609412463+609043646+607542754+605467138+604432361+605797025
3288+609224992+612679769+614494862+615232372+616309330+617578758+617871838
3278+617052277+616167415+616046684+616546044+617077274+617279930+617092334
3268+616785069+616845560+617087335+616642279+615931639+616921673+619889774
3258+621910336+620364451+616350074+612874863+611694422+613003218+615986318
3248+619001037+620869997+621611445+621315553+620033127+619081150+620156296
3238+622649846+623841161+622383950+619820473+618158106+617645685+617243623
3228+616263087+615011407+614046244+613413155+612892798+612370879+611787532
3218+611392094+611796781+612977347+613777973+613417529+612754007+612960788
3208+613817342+614229278+613748478+612894985+612164849+611387469+610180469
3198+608304448+605554250+602350872+600114782+599916750+601262229+602924096
3188+604184400+604825425+604933346+605028081+605614428+606347502+606305133
3178+605168810+603212926+600653948+597800328+595269659+593407260+591817820
3168+590330613+589670715+589883182+589523051+587810567+586043528+585599160
3158+586097957+586560573+586825032+586931703+586425032+584919890+582572380
3148+579736133+576709165+574123441+573092851+574349906+577353940+580521948
3138+582282737+582019341+580334852+578470392+577309634+577024491+577323195
3128+577710697+577738255+577014867+575195650+572567745+570295473+569249448
3118+569083661+569018234+568731466+568220545+567684878+567428606+567307624
3108+566801765+565737618+564547553+564015323+564650537+565858099+566203296
3098+565130400+563724618+563236069+563727430+564459816+564646975+563734429
3088+561811977+559755547+558560545+558601226+559581699+560918616+561896777
3078+561638504+559656250+556884555+555376601+556095427+557445030+557140890
3068+555465588+554874992+556248279+557659372+557382602+556045810+554890739
3058+554029435+553257118+552859555+552854493+552639526+551796157+550475987
3048+549072018+548060612+547772782+547813213+547276796+546061610+545147377
3038+544962780+544637081+543608491+542685196+542637454+542849796+542310255
3028+541264542+540914409+541732782+542679572+542203396+539966431+537198486
3018+535235353+534371737+534206513+534276939+534152833+533504872+532332241
3008+531007134+530067093+529821818+529989667+529795697+528635940+526712488
2998+524918329+523993504+523878053+524019125+524121547+524137857+523654963
2988+522133043+520038087+518941726+519867582+521923982+523202096+522962758
2978+522148916+521735667+521587065+521073926+520040899+518956974+518493046
2968+518950131+519827120+520097515+519182220+517482296+515815867+514631489
2958+513866420+513219708+512403210+511447264+510794616+510677384+510569182
2948+509819642+508597488+507567367+506975583+506655133+506513061+506519560
2938+506633512+506969428+507542183+507778990+506988050+505441509+504123589
2928+503311308+502452598+501390325+500472499+499645471+498722739+498097024
2918+498042189+498070872+497757108+497230534+496633033+496143421+496121643
2908+496281993+495727111+494559261+494063869+494692803+495258715+494594880
2898+492952604+491388565+490564975+490367349+490190751+489552757+488645335
2888+488144819+488315386+488497670+487843772+486496106+485501229+485430834
2878+485640645+485200714+484130661+483191213+482774278+482667357+482691134
2868+482801461+482604179+481566121+479807426+478088505+476996112+476599767
2858+476839918+477600643+478392520+478630452+478271820+477766524+477477287
2848+477357494+477025576+476175614+475007171+473980205+473207263+472536429
2838+472101653+472143115+472385640+472186078+471289310+470157049+469572421
2828+469925741+470716587+470910932+470060376+468800884+467913709+467251094
2818+466041156+464044654+461897675+460305391+459401468+459012622+459081955
2808+459532354+459980160+459998626+459639119+459281581+458963224+458374003
2798+457551193+456990186+456957785+457144162+457033961+456353223+455259705
2788+454273514+453812617+453719725+453470858+452769435+451714599+450580463
2778+449657856+449141780+449006551+449032734+448981242+448692662+448094474
2768+447239013+446289941+445341557+444354023+443411982+442794390+442518214
2758+442105528+441193357+440098277+439382045+439103275+438820038+438184387
2748+437285995+436452812+435899773+435626534+435533986+435504990+435414723
2738+435189133+434822190+434290085+433583257+432880210+432443715+432247246
2728+431990942+431531107+430978162+430438402+429983410+429661335+429249118
2718+428396000+427276080+426543725+426435648+426521135+426434836+426247365
2708+426071423+425815588+425370438+424760846+424129631+423602213+423069952
2698+422288261+421379558+420910537+421172934+421699790+421740877+420957592
2688+419547030+418011425+416900316+416544340+416904346+417586865+417980398
2678+417623391+416614923+415491441+414684785+414298095+414199735+414054695
2668+413541056+412786673+412302998+412321152+412501155+412417293+412047850
2658+411626978+411208731+410612042+409755300+408899589+408509618+408798511
2648+409395450+409657346+409338333+408703838+408100932+407744737+407688933
2638+407679247+407328677+406620224+405887432+405347640+405034720+404995664
2628+405213161+405480995+405470465+404911521+403896366+402928110+402380070
2618+402145950+402069930+402250934+402670212+402988007+402895427+402393068
2608+401712705+401093707+400569851+399989660+399287644+398605156+398149883
2598+398046243+398238494+398488955+398610592+398673145+398828559+399038245
2588+399108640+398916201+398550164+398261897+398211717+398269270+398161693
2578+397765286+397177877+396587125+396110668+395709262+395281734+394876703
2568+394699856+394843615+395108667+395164034+394872235+394460237+394335256
2558+394648426+395087014+395219900+394986499+394694263+394608901+394701324
2548+394759440+394656675+394459737+394249082+393972094+393597652+393241895
2538+392997495+392855954+392904197+393283169+393823710+394043583+393682576
2528+393051018+392721288+392967218+393578249+394156159+394456487+394428898
2518+394132819+393713665+393297480+392853580+392310570+391809429+391646330
2508+391915132+392353532+392623584+392668827+392680919+392762406+392800838
2498+392695136+392508165+392328380+392154501+391976872+391831676+391744190
2488+391718631+391787558+391998744+392335379+392651705+392737567+392533848
2478+392217772+391948877+391660984+391284511+391016709+391128598+391584058
2468+392044049+392232864+392182059+392095166+392067046+392038331+391976872
2458+391929973+391890479+391791182+391653141+391552469+391420958+391106351
2448+390702695+390548250+390753781+391014240+391065326+391049547+391216803
2438+391526880+391771998+391909133+392067171+392280919+392368124+392162156
2428+391779309+391494103+391418834+391496947+391719631+392117132+392586934
2418+392900760+392871233+392524193+392172123+392207586+392683294+393217586
2408+393442145+393395090+393364001+393542723+393964720+394578187+395233460
2398+395676235+395657457+395130070+394382999+393874109+393837958+394138380
2388+394533413+394926914+395303418+395600060+395775939+395926759+396208497
2378+396666332+397258927+398069864+399335199+401214001+403663714+406437190
2368+409009103+410809792+411756770+412204451+412394265+412387985+412311528
2358+412217293+411952646+411447756+411003887+411080563+411711371+412346960
2348+412399764+411943304+411938617+413347242+415834919+418176149+419737782
2338+420725316+421282292+421155905+420363591+419509754+419045389+418649232
2328+417764525+416393394+414934059+413584705+412313934+411190421+410370861
2318+409870719+409589232+409391731+409039286+408333989+407463281+406869154
2308+406669060+406531800+406218099+405948641+406084557+406634003+407241784
2298+407635535+407937957+408450565+409227007+409979109+410389045+410447536
2288+410435976+410578703+410816666+410983797+411044975+411027040+410873376
2278+410551458+410203137+409981734+409805417+409491716+409077468+408751987
2268+408521085+408238473+407952486+407894807+408128584+408530802+409079717
2258+409826445+410621853+411191358+411500248+411808481+412323464+412957240
2248+413478066+413821387+414157304+414614577+415006985+414929153+414169240
2238+412968895+411847631+411223166+411192858+411545178+411870597+411790921
2228+411289093+410762831+410607699+410855660+411312558+411826666+412305529
2218+412725308+413226574+413990424+415032574+416292098+417781648+419487008
2208+421308163+423207274+425218681+427302420+429379722+431455181+433555605
2198+435652749+437756391+439967329+442331556+444710030+446914063+448939124
2188+450905068+452780871+454401588+455769563+457077079+458393781+459554163
2178+460408624+461020092+461503330+461774975+461657462+461257243+461019155
2168+461204626+461409657+460874240+459357850+457425962+455731319+454382154
2158+453111476+451591243+449517221+446866352+444067505+441581422+439442754
2148+437313678+434827877+432151855+430329387+430478646+432577039+435632408
2138+438876342+442091593+445085347+447651230+449891101+452113881+454539973
2128+457209371+460042650+462922516+465714301+468325239+470839005+473422479
2118+476083691+478725500+481302194+483787183+486262424+488974909+491922170
2108+494684835+497044750+499382200+502340772+506477911+512043172+518683766
2098+525501176+531573296+536405796+540009049+542654576+544498415+545479200
2088+545518507+544585464+542590774+539389333+535022386+530019912+525195724
2078+521005218+517473922+514686386+512720004+511190867+509494692+507396987
2068+505037259+502577516+500040379+497363607+494571446+491821998+489252928
2058+486967564+485088606+483578965+482229956+480927814+479629922+478246387
2048+476855446+475714624+474932932+474482971+474407858+474743181+475523185
2038+476917718+479022766+481718598+485051830+489423058+495119549+501875844
2028+509008830+515941629+522561726+528920896+534742179+539616360+543475136
2018+546433177+548460675+549592562+550122417+550246960+549719042+548103918
2008+545353782+541891445+538131653+534267878+530488090+526926518+523387911
1998+519581314+515701323+512453952+510420392+509518814+509094130+508481600
1988+507486567+506484472+506153024+506863601+508202112+509308065+509784835
1978+510118783+511128876+513053890+515280732+517117603+518679610+520616497
1968+523080990+525473618+527257716+528569200+529871998+531410447+533217166
1958+535401702+538060352+540964526+543696914+546083169+548308886+550760193
1948+553757540+557204380+560603040+563529711+565860911+567682879+569371616
1938+571476040+574133815+576864891+579176907+581102858+582998064+585080553
1928+587352138+589819005+592451534+594957895+597134057+599371022+602030672
1918+604434486+605508382+605498383+605794525+607253798+609594935+611949882
1908+613522138+614061429+614022748+614054243+614320327+614618030+615023842
1898+615903706+617200879+618221408+618542171+618755701+619656811+621015037
1888+621881528+621857032+621204570+620251968+619477338+619462841+620210662
1878+621036097+621330176+621101524+620957234+621687495+623276811+624177234
1868+622576170+618954607+615698363+614223904+613926513+613321169+611664739
1858+609445521+607497511+606071170+604913599+603910505+603190617+602684070
1848+602116471+601359776+600225514+598303500+595822635+593773578+592544832
1838+591557298+590296743+589072496+588573573+589040876+589818505+589687963
1828+588258372+586360042+584521702+582383534+579789437+577243582+575184714
1818+573733877+573023675+573172214+574024019+575149844+575940409+575845674
1808+574898321+573848796+573605397+574624176+576619866+578613807+579589343
1798+579531477+579607840+581141789+584298674+587261402+587651841+585785568
1788+584162945+584401096+586418908+589333518+592287434+594555770+595799826
1778+596699687+598661070+602596584+607892074+612176534+613430590+612462865
1768+610998842+609618619+608789685+609419962+611545007+613813593+615258681
1758+616168290+616772446+617270993+618758950+622244471+626988298+630890754
1748+632998927+634097944+635051921+636337659+638274608+640505512+641939602
1738+642573503+644352040+648835844+654235630+656718495+656327993+655559362
1728+655253410+655199981+655529555+656599888+658727558+662479476+668395995
1718+675615937+680998851+682234222+680843813+679437781+679320362+680718582
1708+683539207+687440601+691579021+695668511+700798715+707400628+713058499
1698+715624601+715990044+714671374+712029597+710317050+711404131+714965141
1688+719922434+726616707+735421903+742821254+744604790+743012162+742105615
1678+743458343+746675219+750176300+753001424+756257544+760928444+765448304
1668+767470491+767874615+769284646+772236438+774878091+775835629+776226319
1658+777708026+781250414+787936939+797187128+802413316+800083303+796475051
1648+795638056+796560162+796101484+793251551+789577434+786812925+786079539
1638+787602428+790159344+790719632+787393210+782588519+779639102+779800389
1628+782090721+784590958+786156465+786007738+783405454+779568925+777265845
1618+777641662+778633445+777317337+774182574+771346576+769446059+768239184
1608+767794128+768303986+769335763+769956105+769520297+768245370+767067241
1598+766965381+768389473+770881773+773043875+773611662+772826159+772171261
1588+772902085+775155548+778084718+780598828+782283316+783738215+785853262
1578+788595961+790094666+788126659+784164149+781734651+781969740+782878224
1568+781528621+777629226+773161982+770188006+770429094+775077622+782782114
1558+786857544+783846761+778460160+773934800+770633500+768027092+765871114
1548+764938634+766387471+770388475+776127959+783169429+790571092+793752661
1538+790296322+785655418+784526905+786737437+788992275+789372403+789626864
1528+791880201+796212154+801412534+807031037+813183457+818464887+821149845
1518+822203119+823476672+825280829+827556101+831344888+838011790+848132719
1508+860671960+870440944+870953177+865566950+861522641+861688053+865895212
1498+872097437+877144778+879518722+881223958+885135663+891785506+898398667
1488+901408574+901086187+900622696+902002482+905176552+909325845+913733661
1478+917877705+921658056+925996320+932331149+940165433+946069704+947717386
1468+946545693+945323070+945556346+946731664+948094952+950430965+954682992
1458+959328521+959722085+954463214+947968097+943015866+939290131+935863101
1448+932874315+931428414+931861285+932995234+933355865+932831009+932763707
1438+934032323+935922092+937651761+939760558+942375153+944405525+945288950
1428+945514353+945134724+944183372+944087762+946341599+950302797+953383944
1418+953333202+950649743+947661894+945956097+945692763+946090013+946523446
1408+947335445+949060240+951014062+951747135+951323763+951514234+953584912
1398+956980635+959844816+960250690+957554109+953825000+952450526+954465588
1388+957006756+956421660+953981101+954430406+959098744+965113748+970273259
1378+975556377+982281333+989001852+992351832+990892746+986826502+983438841
1368+983004846+986443562+992911808+999679570+1003513100+1003951719+1003629082
1358+1004216178+1005009430+1005044049+1004457391+1004257047+1006140754
1350+1011706828+1020085527+1027422201+1031065073+1032020362+1031656418
1341+1030341498+1029193738+1029392332+1030322126+1030466041+1029609299
1332+1029235669+1031402458+1036974655+1043827029+1047952389+1047699491
1324+1045645934+1045158697+1046843811+1049052780+1050604915+1052216289
1315+1055201701+1059435294+1063294070+1065008304+1064029706+1061919783
1307+1061063916+1062233609+1064173933+1065482355+1066333348+1068108073
1298+1071187220+1073741823+1073649212+1070270862+1064267169+1057036041
1290+1050192479+1044673835+1039450396+1032433485+1023496123+1015158917
1281+1010021714+1008693483+1009806373+1011003374+1010364973+1007822681
1273+1004833645+1001736688+997066413+990503869+984100238+979516262+976004120
1263+971958373+966920092+961271594+955196975+948758787+942708288+938528437
1253+936874256+935869662+932094498+924294522+914937662+906973648+900416416
1243+893161417+884371281+875502221+867971265+861480647+855179250+849383525
1233+845174366+842755054+841083001+839105433+836744737+834474277+832618628
1223+831409815+830956386+830925140+830889458+831003691+831561729+832349482
1213+833494492+836076028+840562519+845586115+849444078+852006868+854307198
1203+857218246+861026593+865409600+869680499+873407171+876662416+879834423
1193+883423679+887350694+890495831+892151949+893625657+896827535+901717401
1183+906410610+909515941+911874325+915917822+923181944+932766519+942676731
1173+951850619+959530365+964358115+966323185+967703846+970105473+972372121
1163+972737877+971640672+970824799+971248233+973128941+976778750+982460555
1153+989537144+996112873+999588334+998938310+996361460+995190579+996207109
1143+997395112+997734997+998596175+1000792334+1003456733+1005744753+1007590404
1133+1008490577+1008346474+1008559566+1010373722+1013741574+1017431439
1124+1019621537+1019388385+1018237189+1019304336+1023991921+1029709283
1115+1031765027+1028094034+1021526491+1016855216+1016533516+1019470560
1107+1023024321+1025086813+1024424978+1021124553+1017538485+1015935296
1098+1015960355+1016313238+1017245843+1019319084+1020425412+1018464341
1090+1016545264+1018512834+1022246629+1022071344+1016917706+1011835058
1081+1010142321+1010370535+1010790345+1011600469+1011942541+1007731757
1073+996649852+983065149+973965749+972997899+979300483+988085682+992047942
1063+987446281+978919917+973391588+972322129+973202180+974754064+976502980
1053+976969532+975703354+974137035+973023020+972253952+972512974+974031551
1043+976277577+979244679+983199253+987298054+989399915+988087682+984357448
1033+979840462+974683075+969237233+966046103+967176740+970371307+971420081
1023+970069229+969794146+972273199+974477669+972634393+968239325+966482973
1013+969389084+973548813+974308383+970198958+962607387+953486928+944243425
1003+935487284+927460718+920308078+913848081+907898379+902844039+898949081
993+895290212+890631497+885333382+881085167+878605114+876929749+874942245
983+872547429+870184359+867728365+864689212+861047652+857384033+854431804
973+852319132+850408179+847648482+843371896+837983607+832752982+829095424
963+827645337+827636713+827452242+826474831+826216246+828593127+833450436
953+838685811+842590580+845501878+848623643+852273889+856368003+861452964
943+867762922+873853414+877808425+880102569+883756314+891113735+901300091
933+911246235+918982471+925085774+930854253+936062320+938904566+938413830
923+936058258+933487845+930468563+926513427+922600347+919957320+918982346
913+920526982+924980978+929139020+928511680+923726547+919974130+920347134
903+923463338+926645532+928648033+929723179+930743521+932250037+933856600
893+934890439+935769365+937599831+940256606+942621489+944882388+948624620
883+954059651+958901712+960866407+960305182+959335707+959272655+959949487
873+961119180+963164738+965626856+966797237+965927559+964123714+962326743
863+960767423+960361735+962445600+966826982+971299350+973140814+971075885
853+966700189+963427885+963564363+966413109+969402395+971680229+975221866
843+981612499+988663780+991831850+989626630+985656059+984829312+988859687
833+995053788+999173086+999718564+999298941+1000851325+1003762873+1005504853
823+1005385621+1004828270+1005224771+1006996684+1009615590+1011744009
814+1012229059+1011587346+1012347853+1016893148+1024207200+1030292818
805+1032164340+1030840358+1030384491+1033745657+1039828587+1042646962
797+1036701198+1024579329+1012027090+1001948655+995618263+993294186+993397232
787+994020386+995165020+996924310+997218764+993323556+984847310+974153095
777+964516216+958119521+954628500+952616813+952551385+956365043+964021167
767+972368997+977870580+979335728+977903013+976003807+976267329+979457896
757+984551980+989996698+994487251+996354461+993878158+988645095+985231875
747+985281867+985397162+983221499+982140417+985355356+989987699+991306057
737+989385855+987258748+986695898+989052344+995399109+1003603273+1008674236
727+1008136319+1003927598+998520125+993798983+992311401+994540117+996247040
717+993771799+989548392+988228097+991520774+998162805+1006073202+1011913108
707+1012408156+1007879859+1000706160+992543990+985556949+983288427+987730237
697+995738681+1000472447+997932466+990794386+984708144+982285520+980340197
687+976122102+971672355+966729497+957522489+944889512+934965303+931271189
677+932021760+934697032+938357901+941387681+940683665+935417295+929108962
667+926799133+930673594+939734250+950942135+957818068+955949983+950831965
657+949604280+949136790+941625331+930236724+926283963+931731992+936963805
647+935816296+933815169+936368210+940300037+940301162+935464350+927859968
637+920504673+918113169+923767416+934570927+942789026+942355968+935649072
627+930129491+928390261+925730986+917386844+905031637+893924986+888563693
617+890662992+895709022+895607537+890435528+888936760+895591790+906964212
607+918629901+927360421+926381760+910565778+888034088+873471411
##END=
