##TITLE=<SNM>
##JCAMP-DX=4.24
##DATA TYPE=INFRARED SPECTRUM
##DATE=29/4/2025
##SAMPLING PROCEDURE=Instrument type and / or accessory
##ORIGIN=Admin
##XUNITS=1/CM
##YUNITS=ABSORBANCE
##RESOLUTION=4
##FIRSTX=4497.3318
##LASTX=599.83466
##DELTAX=-1.4281778
##MAXY=2.1118741
##MINY=0.37574932
##XFACTOR=1
##YFACTOR=1.966836e-09
##NPOINTS=2730
##FIRSTY=0.39124054
##XYDATA=(X++(Y..Y))
4497+198918736+199960465+200475390+200137248+199003893+197641569+196782639
4487+196674511+196952467+197434254+198448693+199849322+200614746+200275817
4477+199748634+199955343+200663643+201181113+201193281+200591003+199497180
4467+198680176+199019227+200413401+201758254+202128337+201613988+200825698
4457+200138582+199543501+198781940+197555685+195970363+194821568+195052415
4447+196756410+198846171+199868975+199298016+197955361+197086506+197246076
4437+198028819+198471209+197849642+196527109+195722334+196079900+196965347
4427+197547397+197850597+198180707+198298578+197809397+196884888+196110720
4417+195918072+196366917+197199361+197990257+198396341+198290062+197663313
4407+196667526+195752638+195306051+195203575+195232698+195617464+196447074
4397+197142145+197251849+197085324+196877402+196285337+195278443+194463758
4387+194168014+194164301+194304385+194488518+194252503+193267369+191953427
4377+191068329+191042524+191770265+192619906+192931682+192822782+192972033
4367+193521899+193888770+193723063+193407105+193422757+193632179+193476215
4357+192909848+192678288+193265687+194234427+195113828+196071824+197172359
4347+197911858+198007970+197867992+197934253+198075337+197763304+196720105
4337+195363918+194472486+194376344+194750503+195181710+195552035+195831855
4327+195880919+195496093+194500064+193087358+192149287+192584116+194091479
4317+195377192+195753987+195722682+195863312+196107175+196318005+196783563
4307+197738908+198797229+199254590+198925934+198363021+198120370+198175768
4297+198248317+198204224+197925753+197291200+196556595+196320157+196823520
4287+197577414+197914373+197655661+197021699+196224348+195475864+195151118
4277+195593402+196776245+198176980+199020273+198990574+198656569+198702481
4267+199025106+199109596+198820791+198334171+197786441+197367492+197268244
4257+197409964+197654282+198134402+198972709+199945813+200772316+201387641
4247+201695387+201521816+201099699+201037105+201460585+201730995+201337092
4237+200545257+199885900+199542955+199455192+199549213+199686312+199660508
4227+199451268+199327988+199452101+199502316+199180449+198908478+199251089
4217+199948676+200439554+200849730+201551681+202310605+202665793+202643185
4207+202560150+202529300+202454326+202253465+201938871+201620261+201495087
4197+201798862+202557029+203301922+203436687+203005252+202572863+202352304
4187+202137564+202016951+202346941+203008586+203393760+203193839+202671702
4177+202161551+201796862+201784149+202476191+203868198+205233340+205672018
4167+205062678+204147427+203679202+203746933+203981068+204205627+204629228
4157+205325588+205807207+205450080+204278313+203113304+202941415+204035011
4147+205511372+206006856+205104499+203735932+203001737+203173217+203909852
4137+204728052+205092347+204656805+203630532+202678900+202427764+203008556
4127+203945596+204570997+204673473+204623243+204809951+205115348+205095407
4117+204671700+204353893+204579877+205175655+205745416+206186760+206464898
4107+206328860+205700065+205021448+204862393+205334497+206042115+206562268
4097+206878135+207208276+207491005+207464640+207231686+207181850+207409848
4087+207737095+208099874+208439546+208564372+208504671+208530536+208600768
4077+208440092+208173167+208158938+208308069+208196062+207704548+207113316
4067+206691215+206457716+206329254+206414941+206957337+207830707+208450607
4057+208464745+208150393+207890680+207640544+207122468+206369665+205909638
4047+206284630+207311282+208037174+207768521+206964413+206664516+207125210
4037+207477246+206938563+205973611+205742325+206646788+207909393+208476503
4027+208049477+207252127+206920304+207316040+208079722+208770460+209182969
4017+209275672+209100525+208778157+208468093+208374891+208586843+208882936
4007+209014277+209094661+209316659+209522808+209447167+209111707+208776627
3997+208737428+209113965+209635481+209890420+209863358+209845372+209938908
3987+210068128+210232638+210376359+210307885+210044445+209935741+210264412
3977+210937665+211665708+212258137+212625720+212668283+212364053+211855477
3967+211314702+210915224+210933074+211472363+212097476+212203013+211725378
3957+211117024+210825113+211074415+211890479+213118901+214441419+215371747
3947+215537515+215263665+215332851+215762377+215543788+214185601+212651843
3937+212190255+213120840+214966526+216998405+218317317+218179824+216972403
3927+216151112+216608169+217561166+217721190+217324652+217667854+218935066
3917+219698687+218760404+216687038+214943782+214339913+214672872+215520332
3907+217170400+220400441+225154103+229795395+232386822+232169006+229345520
3897+224867783+220566678+218383609+219133653+221554025+223061933+223109845
3887+223727033+225875525+227806807+228112370+227867462+227695164+226580340
3878+224875329+224527732+226063112+228346157+230797591+233188552+233932248
3868+232368003+230667507+230441191+230331700+228478635+225621040+223842419
3858+224608980+229123082+237959654+246581017+246290605+238238535+229889673
3848+224993942+223874845+225560370+228900720+232983555+237183366+240594690
3838+241760411+240340569+237953911+235923351+234063149+232053999+230570532
3828+230280030+230813031+231900642+234495645+238737519+241696347+241278792
3818+239784612+238862799+236671168+232285089+228184375+226943301+229270303
3808+233798527+237483005+238979488+240374495+242995106+244605141+243389235
3798+241007775+239036097+237345027+235993067+235787146+236933002+238761414
3788+240798748+243103840+245652749+248405141+251707640+255444742+258234757
3778+259050533+259058897+260299486+263897609+269748837+276311622+281290525
3768+284225367+286883737+290572594+295483614+302113221+310823225+320063291
3758+327428639+333148344+340067029+350638507+364466453+376952743+383627686
3748+386569376+390304478+395666191+399162218+399225222+399398626+403273827
3738+411543653+421494610+428619307+430519572+428402900+425038033+422535338
3728+421862117+423091159+425244621+426615157+426118582+424119675+421844994
3718+420361027+420414879+422981850+428895536+436629482+441231271+439761062
3708+435338011+432280556+432645244+436135998+440197300+441801911+440724908
3698+439350068+439931860+443221662+448633955+455098855+461763677+467547294
3688+470424648+469170967+465425259+462362864+461826862+463179943+465668607
3678+470474408+477078317+480065556+477662685+475570894+476320211+475024861
3668+468317007+460474964+456245378+456173465+457948055+459571213+461178793
3658+463492356+465635908+466647544+468293521+473064987+480077193+484193650
3648+482036703+476690567+472384613+470698149+471141599+472355702+473256271
3638+473586563+473705328+474396187+476883063+482381663+490604548+497412408
3628+497345980+492300497+488431085+488622551+492186975+496625634+499623176
3618+500872554+501734393+502957314+504243330+505694447+507940460+510746203
3608+512835236+513520853+513354661+513117920+513458183+514974212+517614673
3598+520326895+521779042+521381443+519938872+519692978+522958809+529663633
3588+536112988+538135835+535917521+532575080+530377918+529953893+530447862
3578+530506290+529765518+528667877+527427924+526640726+527915953+532289002
3568+538210870+542170379+542499126+540546161+537883093+535089230+532286638
3558+529881222+529053961+530947649+534721935+537107229+535875458+532955284
3548+531797276+533046259+534488103+534650355+534713995+536495071+539896425
3538+542798416+543229472+541141893+537995766+535697387+535800787+538170262
3528+540463186+540357544+537877335+534568653+531650903+529867039+529804066
3518+531271608+533206269+534778484+535896429+536241844+534916310+531975347
3508+529402466+529288520+531392646+533436040+533876672+533369551+533002257
3498+532662903+532008319+531920010+533553987+536049650+536862608+535053530
3488+532750363+532421677+534089291+535887883+536308817+535252573+533184449
3478+530379009+527656302+526473080+527105966+527926075+527705153+527257429
3468+527732064+528811522+529304945+528595570+527247732+526433501+526652424
3458+527256217+527381497+526792856+525933714+525646182+526341617+527324827
3448+527603632+527129725+526245005+524736673+522755464+521320591+520814742
3438+520333320+519361928+518838867+519738739+521542058+522786920+522690369
3428+521496116+519729344+517980088+516900933+516775350+517300290+518049305
3418+518820866+519228466+518582912+516789654+514933119+514325810+515327809
3408+517377871+519487633+520593517+520337987+519630672+519642006+520483753
3398+521403565+521593880+520786619+519716737+519442903+519834987+519837048
3388+519216526+518566851+517999362+517293866+516798139+517108521+518269015
3378+519758740+521126821+522450900+523905411+525113726+525663940+525989960
3368+526720064+527522839+527691334+527404044+527477927+528179545+528852797
3358+528775217+528330402+528888496+530991955+533184995+533487437+531922313
3348+530727818+531911283+535195963+538516646+540091225+539598832+537493191
3338+534199480+530391859+527280340+526022204+526932258+529344705+532043472
3328+533796304+534013044+533209421+532453133+532457739+533123173+533619687
3318+533080686+531446043+529587023+528448531+528269429+528623026+528742851
3308+527892013+526126695+524690610+525061783+527596722+531306640+534805697
3298+537016920+537250874+535598472+533253181+531652176+531296882+531782426
3288+532553624+533335125+534351852+536099047+538455067+540334330+540587618
3278+539151290+537381245+537099471+538722234+540613498+541082193+540537494
3268+540508159+541269052+541705200+540834057+538697990+536182870+534490345
3258+534521923+536245541+538440096+539448398+538836483+537956006+538187414
3248+539179352+539534040+538633804+536888610+534894188+533314821+532777274
3238+533097232+533160690+532153842+530486046+529079902+528374951+528515929
3228+529955651+532949405+536405793+538310028+537903458+536469675+535419977
3218+534796485+534063471+533306820+533083049+533473133+533523076+531855037
3208+528422832+525237370+524314527+525284766+525956746+525182033+524039298
3198+523809163+524137728+523921412+522851167+521362472+519969177+519060577
3188+518864202+519321865+519999057+520066334+518838321+516703588+514810263
3178+513617162+512639891+511693411+511298842+511626195+511987307+511687592
3168+510687896+509256599+507667595+506321333+505490859+504892520+504027287
3158+502893371+502054836+502066837+502872036+503686782+503533439+502210512
3148+500500471+499204848+498445591+497936833+497477988+497086085+496889892
3138+496945713+497097116+496958593+496133574+494701458+493304011+492400170
3128+491796437+491291013+491140398+491361259+491283346+490357078+488901416
3118+487755560+487547305+488179494+488757286+488368899+487098369+485835384
3108+485168284+484944362+484681134+484016670+482878905+481442547+480055373
3098+479198474+479158562+479507825+479374060+478651199+478341514+479198110
3088+480553706+480993641+480040675+478612893+477746842+477515525+477272813
3078+476484827+475204751+473981254+473250119+472731361+471837671+470655177
3068+469845280+469689877+469922678+470292458+470711968+471044866+471073626
3058+470585900+469601538+468560385+467959137+467799825+467693667+467488442
3048+467494837+467903982+468146118+467320432+465428804+463552086+462552209
3038+462201491+461811710+461206462+460780649+460773042+460836773+460529331
3028+459935174+459389293+458846806+457987815+456767137+455592854+455022093
3018+455207589+455624644+455605946+455046792+454257593+453462606+452893603
3008+452972365+453872085+455037943+455507910+454785685+453227653+451580100
2998+450390605+449753234+449275145+448412366+447152200+446121472+445807574
2988+446038588+446337818+446390609+446060286+445302999+444289453+443533439
2978+443585533+444362215+445016648+444741783+443509498+441874491+440417101
2968+439487228+439101174+439007351+439038292+439299489+439872402+440443285
2958+440343461+439075355+436959198+435082359+434321223+434594512+435261430
2948+435813009+435848193+434981717+433379197+431982780+431632911+432168640
2938+432695884+432545390+431734826+430686400+429824591+429390596+429333289
2928+429314773+429039393+428613489+428357867+428355170+428484360+428663946
2918+428726677+428353928+427396234+426071580+424822748+424124827+424246259
2908+424976878+425695921+425795048+425005243+423487122+421828478+420767354
2898+420645832+421173954+421799446+422120980+421915999+421180046+420309842
2888+419835087+419808418+419804933+419501946+418909789+418205505+417674049
2878+417567406+417734689+417647047+417035465+416259722+415823241+415723569
2868+415513738+414886670+414002466+413354609+413453282+414342183+415267875
2858+415259238+414226874+413041106+412442131+412353580+412305789+412079594
2848+411701875+411084444+410078505+408922254+408213000+408237123+408667694
2838+409000198+408964136+408529291+407851433+407216062+406812795+406583933
2828+406342282+405953714+405431531+404928653+404574238+404331253+404123786
2818+403961201+403773402+403376106+402809920+402386865+402174852+401805345
2808+401045451+400167066+399526603+399215888+399219585+399426719+399469812
2798+399058484+398459570+398183463+398224162+398004937+397165493+396131643
2788+395640402+395800199+395998787+395756863+395172041+394454877+393673345
2778+393078795+393010063+393272230+393142647+392224744+390926697+389911030
2768+389373453+389044857+388648985+388104347+387450096+386811421+386353212
2758+386140775+386059043+385839484+385236115+384357154+383673204+383425825
2748+383259088+382752270+382042410+381613960+381736603+382282909+382850185
2738+382978496+382450707+381470103+380494408+379912737+379843854+380100536
2728+380310246+380132932+379442527+378387828+377322128+376573993+376177060
2718+375865526+375406378+374864982+374438926+374139060+373818435+373446776
2708+373128363+372876984+372610211+372347529+372170821+371985810+371575907
2698+370932232+370266617+369658429+369004814+368373534+368034423+368041969
2688+368105306+367935478+367477057+366866202+366383022+366242347+366290895
2678+366203011+365955814+365719134+365448299+365035850+364613401+364333990
2668+364154404+364057641+364150070+364400146+364527759+364232439+363490819
2658+362650981+362132950+361966880+361805991+361441212+361039703+360803628
2648+360636952+360286961+359709715+359152863+358862391+358833481+358908031
2638+358974701+358957973+358748536+358328693+357912032+357763993+357856665
2628+357861635+357542070+356982431+356404548+355991614+355902063+356152563
2618+356406912+356179625+355419914+354672020+354459947+354698143+354915035
2608+354893912+354799210+354763208+354698143+354561681+354501041+354570469
2598+354539800+354235661+353841274+353558287+353275028+352913128+352724177
2588+352883065+353165628+353297211+353277725+353231541+353187023+353033165
2578+352633505+352077836+351717269+351764120+352020529+352148931+352005255
2568+351631476+351187540+350950556+351088049+351348550+351261666+350763363
2558+350320731+350292850+350518500+350707936+350890795+351217360+351545834
2548+351524227+351062472+350509530+350253727+350295305+350381068+350421070
2538+350506439+350591747+350491620+350247029+350187480+350463073+350777788
2528+350823094+350726361+350789638+351049926+351339579+351506498+351432161
2518+351125082+350830670+350769758+350833580+350783577+350628446+350569352
2508+350653145+350699329+350591111+350467891+350505863+350638174+350660903
2498+350525682+350369855+350315215+350381644+350548653+350770909+350965678
2488+351092080+351209693+351367066+351480830+351443404+351328367+351345549
2478+351539591+351643385+351359702+350764242+350280516+350231604+350540350
2468+350894795+351079352+351076685+350952375+350785274+350707087+350848641
2458+351158205+351399098+351420311+351311426+351232300+351239179+351313881
2448+351439404+351628778+351907462+352224087+352417250+352367823+352126232
2438+351799940+351437646+351150750+351169266+351560441+352024923+352192630
2428+352035742+351817426+351746088+351841943+352022408+352186357+352265938
2418+352250179+352186327+352187266+352376914+352776211+353287574+353789241
2408+354209478+354565044+354922520+355258631+355475553+355632714+355930429
2398+356372152+356737113+356969370+357263842+357673775+357942549+357843816
2388+357484734+357163502+357026009+356884243+356290905+354809029+352320426
2378+349135903+345830251+342973172+340891775+339464205+338128156+336351716
2368+334223680+332396299+331367207+331053855+331203894+331922755+333498273
2358+335932449+339019966+342823981+347680604+353342608+358336633+360855328
2348+360163136+357124864+353812454+352018347+351750665+351916099+351935736
2338+351944919+352129020+352438796+352741299+352985193+353243117+353652445
2328+354243146+354855516+355388821+356064376+357191110+358678017+360045371
2318+360979215+361635223+362302203+363019427+363725257+364544821+365606278
2308+366743013+367658704+368221737+368454691+368485814+368583304+368976722
2298+369640064+370419565+371249190+372079543+372756098+373134970+373268493
2288+373403076+373755522+374259400+374606845+374600208+374323313+373902591
2278+373337951+372707883+372258917+372086271+371991386+371814315+371594272
2268+371296314+370793497+370223766+369943325+370061574+370359531+370645306
2258+370903776+371132214+371300193+371493357+371917473+372675579+373596421
2248+374355073+374753157+374822040+374684516+374410743+374023447+373577905
2238+373174790+372865741+372576724+372189913+371719279+371341893+371191854
2228+371167337+371077089+370978326+371158033+371717370+372421988+373078784
2218+373799312+374720003+375722457+376669301+377698484+379009805+380522652
2208+382022408+383526195+385262692+387352878+389651530+391901603+394021851
2198+396149038+398300621+400217372+401781738+403336164+405290341+407598691
2188+409813489+411550017+412825154+413940038+415054650+416037466+416802118
2178+417550223+418504341+419561889+420400635+420856723+420979034+420730019
2168+419977671+418852301+417746235+416903003+416259873+415591379+414648080
2158+413344639+411875339+410490196+409210605+407863918+406375193+404997111
2148+404059995+403509962+403267644+404028720+406763489+411412160+417019585
2138+422968243+429121004+435153121+440738060+446034860+451373482+456800623
2128+462153609+467297279+472205511+476883760+481272628+485286958+488821290
2118+491679915+493757281+495295827+496786613+498684938+501264456+504644839
2108+509008463+514813960+522641760+532676358+544135163+555175033+563784213
2098+568916761+570575405+569443277+566710327+563253333+558925984+553213825
2088+546044064+537648352+528360586+518548062+508356939+497820159+487169797
2078+476798846+467226912+459039272+452419968+447015677+442474769+438660300
2068+435420682+432661457+430387261+428460540+426749105+425363962+424330476
2058+423408087+422488608+421761171+421479306+421795567+422640799+423803626
2048+425295715+427392628+430350713+434434169+439990349+447202566+456088217
2038+466746125+479180806+493009115+507572104+522101243+535796060+547961027
2028+557956532+565259513+569865060+572126043+572340299+571159865+569659836
2018+568301149+566608381+564073078+560673361+556615482+552067757+547013637
2008+541331238+535163719+528923286+522857894+516943602+511129559+505441856
1998+500029109+495260431+491524208+488737467+486244712+483461728+480516825
1988+478011312+476381336+475703114+475785937+476239873+476652837+476842061
1978+476952279+477350424+478326573+479819450+481591010+483603130+485876448
1968+488091155+489806985+491074333+492408291+494139061+496106754+498065901
1958+500132449+502552199+505218934+507785632+510122044+512377088+514689771
1948+517046215+519485390+522323923+525760552+529165422+531491439+532630901
1938+533506165+534917159+537030133+539660593+542524946+545374934+548115521
1928+550816712+553706097+556946835+560187029+562771304+564625717+566204115
1918+567548680+568356000+568892032+569848999+571436851+573220169+574645345
1908+575460969+575800202+576087007+576706256+577616916+578467088+579153977
1898+579922205+580830562+581660854+582536906+583924080+585675457+586841830
1888+587017113+587055964+587657454+588223427+587833889+586676123+585758795
1878+585647455+586041176+586372711+586581329+587289250+589057234+591211181
1868+591772245+589578599+585751401+582093122+579386779+577456725+575916997
1858+574559097+573329570+572206472+571129135+570047132+568993311+568177990
1848+568180475+569605348+571767173+572182350+569362848+565039621+561519593
1838+559401164+558080297+557080540+556776947+557744580+559327523+559593175
1828+557752277+555114181+552671550+550076729+547188375+544705560+543079403
1818+542038129+541287781+541128620+542054917+543784415+545025640+544726349
1808+543350146+542228261+542240686+543558159+545805020+548027698+549216920
1798+549409356+549808046+551685673+555135031+558167272+558123512+555391955
1788+553003085+552979629+555104908+558012960+560698999+562855673+564520863
1778+566172234+568713173+572907423+578465694+583157913+584425019+582806801
1768+580694190+579400416+579475754+581347502+584258585+586243976+586762189
1758+587109421+587786371+588461805+589929650+593562776+598958794+603486155
1748+605267958+605214379+605180923+606200196+608393175+611156491+613373229
1738+614889320+617474504+622513289+627590865+628434066+625724329+622583900
1728+620202303+618925742+619083206+620404073+622597416+626525710+633325570
1718+641698190+646883166+646155365+642507451+639390841+637909116+638330475
1708+641069850+645610787+649959168+653484590+658411732+665765868+671684645
1698+672692099+670735315+667529427+663525128+660729567+660788359+663160318
1688+667051641+673815378+684282426+692619468+691781540+685946464+682079204
1678+682415224+686079806+690621289+693891544+696378541+699332717+701411568
1668+700492119+698374054+698585400+701700191+704933414+705773828+705309255
1658+706151305+710072387+718085592+728393358+733079274+730230619+728009093
1648+729613128+731414144+728774229+723089345+718326576+716291788+717768604
1638+723200382+730753438+734443295+730583186+724135286+720618713+721030071
1628+723374453+725879815+729075460+733624640+738113453+741533172+745483407
1618+751133441+755927787+756326417+753743597+751485826+750283693+749311151
1608+748026650+746571775+745478437+745367643+746544865+748991374+752727657
1598+757518246+762184403+764986146+765317681+764566242+764501086+765438415
1588+766579392+767423261+767813587+767266585+765861410+765349743+767830436
1578+773371009+778666476+779321788+776563684+775431496+777647688+780734296
1568+781990432+782572588+784651560+788372509+793788287+802467228+814286296
1558+822185192+821298957+816849298+812921367+810503222+809821545+810587712
1548+812728022+817096585+824162885+832434590+839471858+843398880+842290996
1538+837116566+832418286+830399863+829629757+827898138+826223311+827647457
1528+832784308+839025589+843932670+848505548+854637550+861150787+865469772
1518+867519955+868175206+867425100+866161389+866788335+871516375+881369507
1508+895441498+907321963+907721927+899614898+892249853+889687579+892311493
1498+898145174+903051345+904490583+904761568+907283779+912467482+917537118
1488+919617242+918614334+916203099+914427054+915048909+918218552+922176788
1478+925518563+929357580+935837906+943842868+947379321+943069003+936124408
1468+932374366+932604198+934016464+933962945+933357940+934778085+938879481
1458+943639280+945225011+941885115+936435214+931864032+928949313+926784881
1448+924114055+921176486+919535419+920026115+921904530+923902891+925787852
1438+928339944+931092774+931990828+931538074+932557043+935343694+937329873
1428+937429395+937447396+938796991+941303141+944786015+949221431+952509142
1418+951250824+946363806+942523456+942135190+943819169+944557395+942933541
1408+940320294+938766747+939023793+940896450+943972148+946786195+947016693
1398+944614489+942802442+943797956+946030816+946957296+946355987+945039363
1388+942742196+939091494+935770750+935664380+939873964+946519573+952317979
1378+955694847+957894372+960587866+963660534+966354149+969113768+972305473
1368+975002119+976732404+978574574+981481839+984889557+987567838+989179994
1358+990290000+991450312+992496253+993204295+994333999+996471944+998703047
1348+999913362+1000506367+1002160526+1006209979+1011905773+1016274579
1340+1017184876+1016888252+1019830367+1026998915+1034802775+1039448627
1331+1040510509+1039580150+1038225403+1038032543+1040456203+1045418195
1322+1050963011+1055468976+1058956457+1061618434+1062866266+1062514972
1314+1061542065+1060682499+1060075917+1060562007+1063057550+1067054879
1305+1071059118+1073566055+1073741823+1072327436+1070904199+1069825953
1297+1068495328+1067089426+1065881354+1063716619+1059131982+1052158355
1288+1044326615+1038151095+1035540152+1035007878+1032569672+1026705201
1280+1019821397+1014667029+1011600907+1009187854+1006393930+1003934935
1271+1003083490+1003069428+1000540793+993285633+983618875+975866292+971432452
1261+967829510+962563499+956102568+949906987+944071972+938166954+932448976
1251+926992045+921103876+914687978+908489488+902043770+893273429+881357870
1241+868735360+858895380+852862596+848646526+843724233+837240998+829884620
1231+823146946+818974818+818402602+819995546+820813958+819339931+816489276
1221+813766993+811984159+811625653+812803602+814689957+816150892+817188651
1211+818863357+821608975+824454478+826384290+827832134+830119240+833983592
1201+839154385+844639985+849133343+852165767+854969691+859020539+863988229
1191+868264302+871086410+873038102+874849361+876595162+877985245+879222288
1181+881251137+884836805+890140151+897328883+906103042+914603973+920989627
1171+926347582+933235690+941461574+947982508+950863104+951969352+954916619
1161+960690720+966804843+970374207+971221651+971040731+970984364+971487000
1151+972896539+975099216+977041271+977457902+976012785+973077338+969998003
1141+969491427+973202981+979349651+984627966+988501530+992416733+995230295
1131+994023071+989448071+986344128+988638568+995267569+1000844205+1000135193
1121+993405095+986546504+984992108+989218906+995290783+998998034+999947667
1111+1001088704+1004569215+1009450354+1013475564+1015801400+1016648359
1103+1015240033+1010788555+1005571820+1003492060+1005721223+1009502660
1094+1011587209+1011169911+1008919656+1005447994+1001770139+999808870
1085+1000010034+1000654860+1000265383+998616133+995365697+990032106+983780764
1075+979419594+978718825+979864591+979467052+977069576+975067274+974597489
1065+973472210+969030187+961728904+954723031+951173547+951438957+953145907
1055+954105237+954142997+954332523+954826977+954016262+950947352+947658065
1045+947249071+950239673+954029839+956073415+955907223+954757882+954118995
1035+954243063+954110813+952680970+951069844+952221731+956886312+960915461
1025+959390158+953149604+947445992+946161551+949113485+953331858+956497561
1015+959120506+962737630+966468944+967158136+963015162+955247002+946708675
1005+939623828+933708445+926992651+918826104+910271351+902261722+895501016
995+890433684+886442113+882276471+877775536+873877727+870465766+865800337
985+859328315+853287955+849598583+847048249+843754417+840520648+838836669
975+837748362+835445740+832311916+830160212+829661698+829661152+828329679
965+824786195+819842143+815042220+811310725+809059318+808877307+811172414
955+815410182+820086642+823581517+825468296+826986023+829715701+833840674
945+838531924+843680412+849464696+854442993+856951628+858365469+861637968
935+867402796+873834695+880093249+887723522+897488286+906741141+911929390
925+913178737+913700465+914735193+914194434+910272079+904241113+899628353
915+899265180+902100379+903875213+902224266+899321608+898525863+900822849
905+904949640+909135890+912559124+915475056+917599606+917654095+915576880
895+913529485+913568639+915580577+917830166+919200308+920264311+921661303
885+923181394+924562506+925918708+927483226+929487830+931504375+931850213
875+929790151+927956406+929902158+935817601+942210225+945812015+946528725
865+946340047+946907050+948213431+949411806+950938442+953767338+956596901
855+956659086+953468108+949563269+947291861+946787649+947630790+949394532
845+950491870+950238340+951055479+955519564+962059105+966234445+966230930
835+964093166+962282634+961382459+960632353+959974617+960803273+964100318
825+969138618+975013453+981110362+985880161+987732332+986164118+981716519
815+976234738+973403842+976872715+986227818+997040584+1005667220+1012169850
805+1018222756+1023888912+1026500583+1022747147+1012806312+1001381691+993123927
795+988651478+985875434+983242853+980434322+977120791+973592641+972165101
785+974650644+978703552+979171640+973810290+964922185+955204575+945728738
776+937194896+930651354+926616326+924662573+924338675+925774094+928879794
766+933021435+937935364+944129430+950645334+953974684+953053053+951445321
756+951873286+952986504+953035234+953520960+956108084+958791819+958420646
746+956282276+957317065+963540951+971945937+978987023+984372496+988646084
736+990466435+989600262+987442497+982758036+974704404+967804720+967565130
726+971969878+972380811+966374756+961949886+964601196+968822902+967228686
716+962634291+963035284+970718227+980009993+983834949+981909804+978594636
706+975891263+973136190+971239834+972480999+976095578+978092849+976429113
696+972677496+968597555+966631620+969721138+976920961+982194911+979109940
686+967615133+954690666+946424840+943110218+942741832+944462602+946831652
676+946950629+943777773+937890028+928369218+915743738+906827146+908391785
666+914416871+916681006+916213584+916749071+918346802+918931383+918176126
656+917162368+916787013+917117578+917112365+915744284+913518757+913069639
646+916480267+920753431+920659122+917692279+919157942+925913678+930086896
636+927847187+922724336+916520572+911182618+909983152+910782897+906955881
626+896623992+885004512+876313145+870249693+867138902+869055501+873875909
616+875438730+874369757+879438665+894937104+913723860+920836345+911121220
606+893697030+875464367+861956229+857243463+860326859
##END=
