##TITLE=<SNM>
##JCAMP-DX=4.24
##DATA TYPE=INFRARED SPECTRUM
##DATE=29/4/2025
##SAMPLING PROCEDURE=Instrument type and / or accessory
##ORIGIN=Admin
##XUNITS=1/CM
##YUNITS=ABSORBANCE
##RESOLUTION=4
##FIRSTX=4497.3318
##LASTX=599.83466
##DELTAX=-1.4281778
##MAXY=2.1828728
##MINY=0.51486003
##XFACTOR=1
##YFACTOR=2.0329587e-09
##NPOINTS=2730
##FIRSTY=0.52872527
##XYDATA=(X++(Y..Y))
4497+260076739+259596051+258703840+258036741+258079166+258480281+258431846
4487+257709715+256961812+256943371+257668990+258515317+259096365+259577463
4477+260059528+260300209+260223364+260146548+260233156+260267079+260167628
4467+260150007+260230459+260183666+260179385+260713492+261641473+262054228
4457+261443217+260357997+259583825+259186902+258754239+258276278+258294779
4447+259080708+260085153+260567365+260475069+260187888+259763082+259169868
4437+258948068+259660641+260827690+261452863+261415745+261300403+261199457
4427+260722610+259909502+259169750+258568004+257977633+257725313+258316563
4417+259455729+260034138+259494079+258522061+257891376+257431681+256706999
4407+256099096+256542255+258351394+260629522+261952461+261697385+260483395
4397+259322796+258811734+259085604+259860744+260417574+260159184+259348363
4387+258809095+258906376+259296497+259512198+259304765+258679827+258033545
4377+257857747+257982823+257713204+256993975+256703247+257448159+258699471
4367+259483964+259612235+259756016+260278484+260555843+259900912+258614357
4357+257566667+257262216+257627475+258106344+257945675+257046838+256286680
4347+256405247+257011362+257167633+256532199+255592695+255089725+255370896
4337+256133575+256791527+257102016+257232340+257196483+256699699+255868061
4327+255614479+256573773+257937378+258144899+256786190+255121566+254572887
4317+255326038+256441808+256861423+256416417+255916848+256008588+256364728
4307+256507776+256785575+257683503+258737058+259069801+258612393+257887066
4297+257023001+255902276+254952658+254876047+255639870+256452275+256692428
4287+256341800+255610433+254655157+253738903+253256515+253382705+253931882
4277+254715847+255665671+256508157+256834655+256664164+256371530+256013337
4267+255499636+255298038+255919457+256837997+256964979+256078895+254973211
4257+254478890+254891850+255920630+256885612+257400163+257852177+258741046
4247+259801021+260351225+260316833+260288188+260609908+261003928+261063592
4237+260588827+259579984+258335298+257344838+256726028+256143397+255584896
4227+255698156+256936334+258715391+259833683+259651904+258672409+257872026
4217+257618034+257693413+258108573+259088859+260253005+260634155+259853327
4207+258650332+258023606+258299411+259055552+259633316+259662400+259205637
4197+258598848+258215676+258243646+258627756+259146706+259516684+259559021
4187+259338336+259099736+259024826+258992018+258682085+258124376+257914773
4177+258495439+259553216+260548367+261309404+261687973+261306208+260116290
4167+258792295+258283784+259035586+260531801+261736907+262201586+262312530
4157+262284559+261744031+260679775+259862855+259767803+259870214+259548671
4147+259036055+258957011+259413099+260017426+260481636+260783594+261029523
4137+261383846+261861249+262046107+261364436+259918474+258759458+258854100
4127+259873058+260503186+260008806+258959561+258318879+258384554+258828563
4117+259362260+260055951+261077519+262326486+263434047+264029108+263938629
4107+263322810+262648293+262338155+262447838+262698693+262729126+262388672
4097+261864152+261334355+260582758+259352086+257911870+256911266+256855178
4087+257806703+259403776+261116455+262417903+262788145+262088590+261006068
4077+260398253+260239695+260034284+259921846+260335480+260962207+261086491
4067+260675612+260244063+259931667+259576202+259484052+260123210+261092706
4057+261470190+261144630+260677664+260128868+259297816+258755822+259367537
4047+260979915+262386913+262500906+261268680+259583385+258516226+258582253
4037+259469568+260339116+260602930+260556136+260947371+261871042+262609299
4027+262629001+262163882+261738959+261688208+262172296+263089957+263875212
4017+263914324+263274873+262539607+262015761+261668857+261630449+262137905
4007+263080047+264075345+264876872+265421739+265632309+265366091+264657828
3997+264019726+264094314+264818204+265494949+265850972+266273402+266922440
3987+267345487+267023738+265949748+264741681+264115307+264096454+264120672
3977+263972141+263976129+264279611+264688936+265118139+265552151+265846398
3967+266060985+266593685+267572505+268480343+268727005+268341195+267786564
3957+267344842+266985887+266705713+266680909+266993569+267440217+267762053
3947+268001591+268511041+269513111+270642250+271047295+270226270+268688304
3937+267612467+267990450+270014234+272888186+275034173+275155261+273529924
3927+271631977+270580651+270440271+270680219+270891522+271152902+271869609
3917+272989044+273585191+272938351+271581548+270602464+270578305+271558797
3907+273583549+276758873+280738186+284349779+286219052+285622026+282686064
3897+278582349+275284383+274324004+275683387+277571981+277944217+277124805
3887+277096600+278355154+279292048+279170491+279286126+279841900+279361886
3878+278116584+278313199+280719217+283987893+286945376+289008213+288997981
3868+286934234+285049833+284782618+285016790+284023633+281901571+280060503
3858+279957916+282928211+289358255+295507832+295170925+289620485+284067993
3848+280975320+280488094+281681443+283469120+285412570+287824129+290836087
3838+293398846+294076705+292949881+291288482+289964839+289085264+288648174
3828+288684148+288921575+289541206+291682414+295282631+297259945+295885843
3818+294002293+293711798+293249347+290826148+287717789+285932340+286229314
3808+287896724+289513382+291023231+293764983+297403609+299281618+298667176
3798+297596529+296863344+295818263+294706392+294554255+295701895+297853364
3788+300846235+304459353+307864539+310429408+312826074+316095981+319927116
3778+323196174+325944669+329255242+334038517+340747181+348997212+357169928
3768+363781311+368676263+372033307+374436217+377602833+382706126+388322329
3758+391977432+393948295+397015900+403136012+411198136+417034027+418425632
3748+418757759+421710140+426831787+430013151+429756902+429334207+431719350
3738+437883206+446848712+455485287+460558176+461798817+461293970+461101988
3728+462441258+465580109+469585722+472793883+473948091+472893745+470667599
3718+468893350+468834243+470985976+474508116+476590275+474759469+470319258
3708+466029572+463211619+462525023+463967526+465688883+465452014+463791083
3698+462818185+463300573+465069281+468722771+475172312+483089600+487920079
3688+486772175+482564670+478957797+476876166+476446699+478257920+482673767
3678+489232258+495696605+498111859+496348898+494763670+495124237+494455760
3668+490340845+484760968+480508810+478317760+477281445+476633609+476668469
3658+477495328+478004573+477806463+478740454+482586308+488384817+491860076
3648+489662399+484157433+479236799+475927340+473605672+472221134+472253707
3638+473258182+474098967+474475191+475334799+477822149+482031413+485762599
3628+485835574+482889204+480149416+479724318+482683911+488774117+494732239
3618+496156916+493073830+489373811+487996631+489429488+492538932+495507028
3608+496751626+495984930+494275506+493118454+493611720+495738708+498472250
3598+501049698+503194629+504136126+503348379+502208567+502856990+505662775
3588+508642892+509528037+508128516+505845726+504517920+505580622+508633099
3578+511460229+512226749+510906155+508672739+507193294+508325952+512928591
3568+519086788+522712043+522040634+519328143+516981261+515268905+513628322
3558+512386245+512527329+514220159+516299004+517527301+518160009+519390475
3548+521633333+524398247+527102119+528889942+528546322+525982478+523076656
3538+521783388+521945582+521638962+519668949+517049282+515613874+515894459
3528+517007355+518109404+518837223+518784742+517895667+516699797+515151101
3518+512600803+509653171+507997753+508017103+508447919+508533531+508962822
3508+510436110+512422894+513605336+513227588+511609463+509954572+509550320
3498+510490703+511801034+512738485+513209234+513374887+513790926+515244805
3488+517424274+518391396+516538601+512598340+508930806+507261783+507194466
3478+507001429+505996603+505138314+505105945+505246736+504930089+504525015
3468+504523843+504732478+504591804+503757733+502345839+500957284+500372015
3458+500776209+501128684+499842921+496765230+493864920+493144841+494552161
3448+496489865+497726723+498096144+497749650+496617755+494659762+492285086
3438+490305251+489355252+489236069+489068334+488309965+487175783+486108360
3428+485353391+485062223+485541884+487153207+489669612+491680467+491608517
3418+489983708+489264216+490692088+492762695+493352069+491987438+489289753
3408+486079862+483811702+483887639+485981936+488239335+489183617+488595328
3398+486932052+485022026+483911563+484009460+484585581+484781492+484779352
3388+485282615+486300136+487116441+487347886+487349909+487434143+487376472
3378+487003679+486737637+487299597+488882715+490710882+491752621+491714623
3368+491023424+490203983+489908651+491004015+493657399+496703836+498701174
3358+499223173+498741048+497948610+497330386+496782059+495886300+494976292
3348+495266610+497274035+499793782+501204620+501322777+501111209+501075381
3338+500933008+500489761+499861275+498874627+497260900+495608531+495148396
3328+496306503+498092215+499116216+498712492+497121810+495251071+494064056
3318+493734098+493632595+493137042+492138725+491102439+490831823+491573715
3308+492518115+493055477+493866679+495616212+497564470+498553054+498381537
3298+497581710+496726881+496108188+495423878+494171598+492690101+492038805
3288+492709804+494128030+495414790+496120912+496297765+496359218+496753092
3278+497431537+497878537+497883404+497759150+497567930+496967415+496206993
3268+496277828+497481321+498712140+498736357+497486364+495697192+493970821
3258+492554881+491672756+491716089+492841916+494465611+495601201+495825082
3248+495513478+495167277+495055395+495361487+495915033+495928051+494766836
3238+492850712+491214321+490447713+490394528+490444986+489913899+488717355
3228+487637178+487438687+487989096+488699705+489492436+490594221+491518742
3218+491243376+489593587+487542477+485939833+484745781+483521061+481982362
3208+480254643+479004063+478914112+479826817+480883978+481410961+481128969
3198+479920521+478114813+476609684+476003012+475987268+475981287+475955046
3188+476246801+476756310+476776012+475828241+474335544+473153160+472704724
3178+472623217+471962480+470092504+467647579+465931880+465180694+464257756
3168+462447005+460644756+460176499+461150892+462477321+463039779+462511390
3158+461296257+459972702+458819990+457853366+457118921+456644684+456195456
3148+455508742+454781832+454437420+454367025+453966554+453044379+452219074
3138+452158119+452716473+453140047+452965979+452303865+451295315+449926315
3128+448500495+447645929+447609310+447992629+448259492+448153884+447748605
3118+447408327+447492033+447874208+448030861+447674369+446953118+446117140
3108+445368886+444844660+444470576+444027622+443424000+442666510+441743513
3098+440898242+440690427+441274700+441916350+441715660+440546998+438948781
3088+437499418+436634884+436566629+437050043+437557822+437822867+437974506
3078+438183493+438470410+438776502+438975989+438870265+438323961+437422162
3068+436369868+435227564+433954086+432810434+432327899+432570955+432841014
3058+432463647+431519775+430543124+429887870+429580811+429516602+429602038
3048+429694569+429553104+429123608+428768289+428807166+428952530+428646878
3038+427822130+426925198+426359514+426150615+425977251+425457393+424538619
3028+423569034+422925009+422591181+422175699+421402231+420477123+419860981
3018+419817178+420306163+421092737+421789830+422068303+421894470+421308820
3008+420193401+418640424+417216891+416350891+415750845+414930377+414004742
2998+413489487+413542613+413798101+413843633+413614270+413323013+413173309
2988+413194947+413297359+413366405+413237753+412757857+412019190+411421753
2978+411320866+411575796+411564508+410791743+409459334+408236695+407579594
2968+407476479+407644067+407759585+407707426+407703233+407913862+408031080
2958+407645504+406895344+406270963+405907200+405493008+404830688+404123246
2948+403573131+402979095+402110457+401282161+401013979+401317168+401805772
2938+402164463+402087001+401305939+400149034+399409194+399378116+399650550
2928+399843177+399859478+399575991+398814426+397614158+396342322+395461105
2918+395089133+394938051+394857805+395099102+395769719+396439955+396551690
2908+395902974+394694673+393413074+392570676+392325157+392487790+392927197
2898+393626341+394308569+394448363+393853624+392871784+391876310+390991428
2888+390389008+390254755+390349163+390194563+389768526+389472403+389455016
2878+389470761+389331847+389097117+388884084+388766075+388770473+388809907
2868+388736081+388563450+388409260+388140990+387440116+386333053+385308642
2858+384838187+385020610+385600045+386107208+386156112+385744354+385164216
2848+384702615+384501808+384524853+384593020+384549745+384331405+383891090
2838+383266797+382648690+382124933+381536585+380836326+380302688+380121027
2828+380042744+379748409+379322519+379092950+379136020+379178122+378954886
2818+378505570+378120492+378067454+378339536+378641113+378581859+377866794
2808+376498234+374975983+374027273+373893021+374121476+374189526+374026013
2798+373820456+373635657+373375215+372972399+372481010+371954291+371327184
2788+370639298+370270316+370557527+371229727+371617707+371387230+370760562
2778+370119674+369608319+369055740+368281509+367492296+367114871+367163658
2768+367161078+366817193+366388137+366216795+366279744+366292234+366018686
2758+365479712+364982810+364823549+364879988+364713221+364117192+363305696
2748+362551050+361967188+361635969+361595978+361688246+361682030+361534906
2738+361346824+361155370+360933834+360674477+360364779+359999814+359648365
2728+359373498+359116369+358805527+358538517+358479205+358560771+358484570
2718+358095329+357549758+356989762+356341398+355649378+355261749+355354750
2708+355590182+355607188+355561274+355776066+356099779+356031670+355425321
2698+354699232+354320194+354345467+354475409+354364993+353878207+353176453
2688+352583678+352301892+352273540+352328426+352348011+352238240+351888756
2678+351299147+350692534+350372105+350450123+350786414+351151994+351348315
2668+351246842+350868302+350383246+349938855+349555625+349214467+348896061
2658+348544289+348128896+347729803+347470827+347388587+347422656+347506977
2648+347599186+347616221+347446903+347099353+346775083+346700437+346858819
2638+346914437+346515491+345765419+345225566+345281507+345704670+346027005
2628+346090862+346005807+345830009+345558866+345283324+345144498+345154555
2618+345158513+344992537+344639622+344200186+343736006+343231657+342778940
2608+342663159+343029003+343540623+343709882+343520979+343355003+343392356
2598+343464833+343353361+342953917+342349561+341866616+341825804+342209474
2588+342746806+343183574+343315979+343036480+342545706+342259991+342326106
2578+342440157+342304351+342056281+342015880+342158459+342131280+341754734
2568+341250620+340928608+340830916+340780341+340697074+340712848+340930220
2558+341240886+341460369+341483033+341274427+340888265+340510927+340384151
2548+340672212+341320019+341950205+342083695+341648716+341089277+340818837
2538+340810979+340853609+340930367+341162839+341545600+341917250+342148871
2528+342256824+342316342+342327894+342218358+341950615+341606907+341368747
2518+341374318+341554074+341668418+341572574+341380328+341316881+341501358
2508+341910712+342449481+342966847+343288126+343366907+343357788+343375087
2498+343286719+342997045+342737014+342720683+342744285+342514687+342143828
2488+341971520+342111196+342403215+342647737+342770907+342847635+342959634
2478+343050084+343032287+342983089+343067822+343310643+343547747+343625208
2468+343620723+343783708+344193355+344603266+344722478+344516394+344157556
2458+343846099+343735712+343879054+344158817+344339247+344262988+344010110
2448+343833902+343927489+344272018+344673105+344894494+344833392+344636456
2438+344537709+344561750+344577378+344629126+344907423+345371428+345725809
2428+345800925+345677491+345488353+345382335+345557253+346016626+346398332
2418+346347287+346004693+345883488+346285834+347006587+347606194+347880562
2408+348010505+348283114+348763597+349272695+349583800+349619130+349558586
2398+349727787+350232780+350770054+350973998+350862907+350734226+350720094
2388+350678021+350479501+350166460+349738987+348957279+347526064+345417723
2378+342877599+340185602+337531895+334992592+332483927+329867719+327180736
2368+324610266+322315778+320488168+319404414+319204809+319795209+321088302
2358+323200923+326384339+330846334+336506105+342593526+347625720+350238175
2348+350020157+347766628+345251542+344124015+344634755+345997187+347436054
2338+348434137+348837657+349022778+349524898+350446986+351432110+352175116
2328+352749918+353389515+354183947+355158340+356514381+358519284+360996108
2318+363143385+364233413+364463979+364734037+365588662+366808925+368008284
2308+369124582+370196608+371055102+371458680+371437483+371376880+371643274
2298+372141817+372456851+372439641+372348986+372394284+372487959+372479661
2288+372375549+372324123+372520914+373027695+373614460+373940811+373910730
2278+373701215+373519495+373493929+373669169+373953272+374173371+374234384
2268+374148919+373981184+373850186+373862089+373985376+374123499+374241509
2258+374272616+374080429+373713177+373482611+373579951+373804301+373848690
2248+373683330+373490205+373400430+373491026+373861004+374450437+374923267
2238+375012104+374892042+374973960+375421458+376036457+376518317+376710153
2228+376643334+376435813+376186806+375918887+375545361+374972259+374316009
2218+373845759+373610267+373382311+373049714+372742420+372543167+372394929
2208+372279441+372247981+372324563+372481069+372623619+372638630+372563778
2198+372588406+372791148+373045639+373230291+373349385+373452970+373627858
2188+374027918+374727298+375551547+376198944+376554175+376783568+377095143
2178+377493326+377843749+378112459+378393630+378717020+379027070+379384002
2168+379955608+380716235+381355627+381605749+381545352+381510227+381770933
2158+382284898+382711551+382734537+382406514+382098194+382088166+382309731
2148+382554107+382823960+383329071+384106791+384802857+384996627+384705429
2138+384390278+384458005+384920192+385555920+386195283+386710508+386922632
2128+386777004+386529844+386508059+386741176+387048793+387389687+387873775
2118+388525628+389273853+390087988+390944694+391748625+392432993+393068222
2108+393752238+394446809+395048761+395602218+396263366+397023435+397663238
2098+398058607+398354907+398778715+399418107+400189582+400912124+401430487
2088+401736432+401972451+402313990+402816521+403325062+403609281+403646341
2078+403639334+403730634+403916576+404253336+404839572+405544698+406051568
2068+406246657+406345668+406595292+407016872+407459972+407801834+408080981
2058+408438206+408898546+409289752+409488770+409681896+410241217+411333209
2048+412711005+413932470+414789851+415461758+416207960+417071233+417967813
2038+418851112+419636484+420184987+420524972+420929459+421656867+422717869
2028+423952059+425250693+426609929+427989161+429304507+430628795+432150723
2018+433826167+435363751+436668835+437957530+439349809+440702859+441883688
2008+442952196+444081746+445432479+447036120+448775743+450551576+452386193
1998+454313752+456348531+458589600+461077829+463512463+465407595+466602204
1988+467330052+467837039+468287323+468939733+470040081+471553155+473217956
1978+474822418+476307287+477741345+479306725+481213379+483573660+486303977
1968+489018726+491173245+492667995+494101760+496024218+498275284+500433761
1958+502514014+504787656+507277791+509837706+512472443+515254245+518051645
1948+520653369+523200852+526155931+529529100+532491156+534359373+535570020
1938+536995694+538969460+541389874+544054927+546642988+548924840+551109117
1928+553630565+556664219+559944564+562881699+565072485+566953955+569417409
1918+572548344+575338531+577022859+578106202+579624582+581908897+584311250
1908+586061252+587116449+587973859+588976574+590081379+591153991+592278557
1898+593663007+595218799+596571175+597727406+599132790+600722241+601716102
1888+601831326+601820771+602381881+603492726+604882219+606362954+607709701
1878+608761027+609590232+610297820+610952458+611926969+613726286+615964921
1868+617038647+615939824+613665419+611756155+610767982+610473032+610503230
1858+610487398+610140200+609514295+608875372+608356950+607957623+607752976
1848+607985359+608859598+609884303+609592225+607100390+603455901+600249616
1838+598197216+597172042+596896970+597527390+599217640+600976379+600936212
1828+598765773+596095618+593925824+591893127+589827006+588159859+586954842
1818+585878008+584944192+584501825+584584270+584662846+584046381+582564942
1808+580825906+579714475+579817092+581135340+582955063+584165651+584180839
1798+583479876+583153906+584274484+587121140+589952726+589919830+587108650
1788+584534252+584108420+585326514+586945225+588681565+590683008+592450836
1778+593505094+594522411+596908345+601270861+606129105+608847108+608717048
1768+606981413+604928485+603906067+605170133+608425968+611513920+613025089
1758+613767215+614710061+616038864+618142045+621468186+625271703+627859470
1748+628734354+628991601+629582499+630626672+631894373+633093351+633964951
1738+635000504+637560067+642033350+645715837+645424815+642708453+640495267
1728+639651813+640201547+641968437+644137528+646102322+648812703+653940565
1718+661335386+667277324+668061436+664878548+661053804+658636498+658467385
1708+660735867+664517394+667861597+670212524+673314902+678114683+682344383
1698+683733349+682808388+680003248+676213629+673905273+674307883+676415345
1688+679210106+683646505+690545070+696311269+696170010+692219252+689030325
1678+688672513+690828293+693563829+695525457+697725391+701059273+703604938
1668+702949538+700574627+699613545+700762270+702130947+702061167+701619679
1658+702929484+706994820+713731015+721151694+724233373+722594315+721583390
1648+723066177+724508035+722791926+719036258+716295386+716014508+718440669
1638+723135077+728187414+729824244+726629687+722194636+719805593+719953069
1628+721209336+721910357+721944426+722252453+723216408+724755078+727217125
1618+730580151+732989365+732329801+729782376+727962712+727705993+728204243
1608+728541765+728916112+730171266+732244951+734023862+734969464+735700625
1598+736610692+737392165+738128545+739495404+741700439+744315591+747004862
1588+749692139+752426913+755392136+758605223+761693938+764440968+767352478
1578+771085335+774943971+776789905+776473669+776304908+777348787+778140112
1568+776987165+774645502+772735476+772177298+774214862+780614766+790197148
1558+794350442+789026785+781510349+776521283+774378698+773601153+772622011
1548+771730122+773099444+778283424+786400082+794912431+800770517+800757323
1538+796029198+792067007+791719574+793903031+795327063+794698108+794553682
1528+797292913+802286904+807367270+812405533+818527902+824454653+828072931
1518+830351616+832794489+834745151+835626075+837052804+841379198+849328737
1508+858576294+863987614+864136907+864541629+868383260+874613934+881158733
1498+886036151+887820574+887415325+887842036+890965523+896052750+900737541
1488+903457949+904793847+905981039+908001247+911373712+915489947+919228550
1478+922634675+926798054+932225676+938273046+943266921+945219753+944385447
1468+943040694+943019467+944930255+948243145+951942695+955535465+959229738
1458+963063453+965043904+962060679+954571158+945868175+939215188+936586667
1448+937189997+937942444+936893639+934645973+932412908+931072436+931602116
1438+934409602+937636645+938171192+935909512+933144949+931484019+931378939
1428+932251536+933464176+935417653+938852452+943659797+949012128+953471924
1418+954842419+952441121+948385988+945150208+944067392+944946674+946159021
1408+946335640+946044149+947105268+950361396+954421513+957042353+957430480
1398+956737610+956054121+954838432+952576869+950733749+951053504+953061456
1388+954414770+953312486+950756970+949731854+952320736+958444982+966669476
1378+975453145+983488002+988673682+988816291+985816941+984959883+988427753
1368+993340941+996604633+998712681+1000746844+1001477947+999814612+997259388
1358+996150538+997354383+999615007+1000835153+1001180416+1003740448+1010749018
1348+1020280794+1028046268+1031644784+1031401552+1028922910+1026097833
1340+1024154442+1022838129+1021263104+1020099485+1021801638+1027886654
1331+1036392377+1043334686+1046900717+1048003586+1047359972+1045103218
1322+1042608274+1042162388+1044620155+1048404438+1051248748+1053080141
1314+1055370202+1058180385+1060526152+1062089919+1062776808+1062619189
1305+1063038453+1066020563+1070873002+1073741823+1072056440+1068320358
1297+1067373701+1070313709+1072913146+1071119400+1065897657+1060385655
1288+1056061665+1052394072+1048857947+1046693958+1047382489+1050205807
1280+1051980320+1050044435+1044870072+1038510042+1033442752+1032101811
1271+1034254893+1036494173+1036309228+1034117680+1030188560+1023502501
1263+1014946583+1007919484+1004695901+1004705986+1005990518+1006454112
1254+1004606653+1000926512+997550469+995926188+995351532+994109455+991125585
1244+986114002+979401556+971520800+962570070+952158836+940740078+930443951
1234+923346661+919457299+916805908+913448512+909329111+905654951+902815918
1224+899871923+896041902+891677451+887570599+884298874+882217858+881514140
1214+881952989+882878830+883794702+884446642+884569138+884194322+884120027
1204+885258431+887177019+888754390+890224218+892509471+895100581+896550707
1194+896750839+897365369+900212494+905645804+912152429+917641680+921063871
1184+922529419+923013596+924525585+928584060+933763583+937456449+940687597
1174+947124384+957057423+966176386+970730590+971392441+971290879+972621617
1164+975683007+979451575+982355814+983232339+982308082+981385173+982470627
1154+986214743+991538868+996355537+999424433+1001783335+1004583667+1005810967
1144+1003171422+999889552+1001090347+1006723731+1013094199+1018009146
1135+1021756721+1025225530+1028635700+1031798417+1034065843+1035106673
1127+1036026943+1037449978+1037842034+1035365503+1030469672+1026415536
1118+1027303672+1034857578+1046461516+1056613217+1061160150+1060013653
1110+1056285663+1053406287+1051708356+1049694716+1047243047+1045360171
1101+1044530087+1044307613+1044406594+1045256381+1046924758+1047581039
1093+1045390311+1041753797+1039613850+1039999690+1041289967+1042273918
1084+1044308434+1047281983+1047516536+1044567146+1044536537+1051294017
1075+1060528732+1065389146+1063886011+1057874175+1049374785+1040375796
1067+1032643747+1027017869+1024028839+1023959763+1025490106+1025879816
1058+1024349473+1023204384+1025018888+1029968432+1035277428+1037159367
1050+1033450141+1026281137+1020744975+1019611614+1021513841+1024426641
1041+1027824497+1031360506+1034161072+1035895242+1036499334+1034522284
1033+1029340884+1024135209+1022694700+1024000575+1022747239+1016861828
1024+1010606057+1007618552+1006339298+1004189735+1002395988+1003480915
1015+1007733952+1013217926+1017532299+1020025249+1020448031+1017728503
1007+1012297069+1006531984+1001426462+995031601+985911466+975938611+967749066
997+962389406+959372523+957730122+956395396+953676337+948495641+942461230
987+938057433+934760963+930256425+924709944+920227865+917112880+914104968
977+911536258+910551193+910006970+907555361+903186336+898853727+895393948
967+892469890+890621668+890625832+891207641+890160419+887937265+887205165
957+888497612+889166265+887433034+885066801+884644254+886528127+889695945
947+893966633+899818913+906469907+911796729+914458792+914876825+914335417
937+914429649+916940835+922757112+930761360+938280494+943111295+945794819
927+949690221+958024134+970023529+980451124+984592455+982798943+978360667
917+973282530+968062136+963088844+958799392+955619435+953952348+953612597
907+953582575+953049494+952538636+953114934+954616896+955856158+956376925
897+957259608+959869834+964171424+968265083+969593652+967248001+963289739
887+961871981+965839919+973573728+980882584+986214978+991281681+995935335
877+997044420+993920053+990620240+990765077+993244774+994229898+991496297
867+986256611+981440411+978789548+978730030+982517655+991402827+1002825338
857+1010426624+1010226433+1004804030+999504181+996810805+995329953+993998159
847+995864500+1004127226+1015009209+1020087992+1017172142+1011557523+1007454365
837+1005075408+1003963977+1004313462+1006583937+1011602205+1018581338
828+1022715809+1020111095+1014935090+1014767150+1021417205+1027109462
820+1025004346+1021248913+1025621338+1038287451+1048549626+1047661959
811+1039856847+1031810144+1024586489+1020852635+1025274669+1036977119
803+1048577304+1053909756+1053732551+1049632324+1040641545+1029640292
794+1021704885+1017388635+1014792247+1014523801+1018788801+1027027133
785+1033948567+1034351529+1029791930+1025351016+1022649783+1019524829
777+1014063725+1007011763+1000695712+997734945+998541574+998872294+994787549
767+988732555+985394979+986444605+991793007+1001149924+1011778003+1017834052
757+1015148768+1005750452+996377468+992565860+993672482+995162365+995928181
747+999623334+1008610009+1020974955+1032221316+1035900636+1028080747+1016696468
737+1014060324+1021297231+1028292431+1027773834+1024435789+1025886853
728+1032235976+1036566416+1034139024+1027971445+1022408427+1018310312
720+1015181488+1012679626+1010688151+1008888658+1007449205+1006387147
711+1004228436+1001745455+1002927252+1008729162+1014163762+1015715332
703+1015851607+1016027288+1015534139+1017411387+1025178853+1035874484
694+1040708275+1033911742+1019619471+1007532236+1006317368+1018218133
686+1032290744+1030571586+1012727944+995304621+988773837+991793241+998325316
676+1004352280+1007030761+1001556053+984670327+960878120+947070965+959358274
666+989458380+1015408536+1023981576+1014765508+998128057+985121138+978639434
656+977866933+980799787+981850058+977950023+973407312+972910001+971918427
646+959562335+938230006+924714928+928550754+944402393+958983340+962509966
636+956544044+952097852+954712652+959681781+960258841+954185670+944201850
626+932973549+924779899+927482598+944207655+966427768+976540065+962450976
616+935941704+913667878+899135484+891454743+889460512+889524604+891089016
606+897699255+907443010+918513573+932685107+948220745
##END=
