##TITLE=<SNM>
##JCAMP-DX=4.24
##DATA TYPE=INFRARED SPECTRUM
##DATE=29/4/2025
##SAMPLING PROCEDURE=Instrument type and / or accessory
##ORIGIN=Admin
##XUNITS=1/CM
##YUNITS=ABSORBANCE
##RESOLUTION=4
##FIRSTX=4497.3318
##LASTX=599.83466
##DELTAX=-1.4281778
##MAXY=2.2719679
##MINY=0.52529979
##XFACTOR=1
##YFACTOR=2.115935e-09
##NPOINTS=2730
##FIRSTY=0.53490335
##XYDATA=(X++(Y..Y))
4497+252797629+253581556+253652993+253505752+253497554+253272734+252582246
4487+251985364+251959054+251995590+251540935+251171578+251828094+253430342
4477+254996533+255702065+255490287+254971406+254849827+255336031+256031083
4467+256264608+255542851+254028097+252691966+252568696+253731079+255216001
4457+255949645+255708121+255170987+254916532+254692754+254128690+253661416
4447+253977702+254998759+255955871+256085985+255264594+254219818+253811446
4437+254087788+254478695+254697008+254945913+255494963+256384159+257321834
4427+257847700+257806179+257350144+256455906+255053633+253518146+252407708
4417+251985589+252343566+253503273+255077999+256286073+256560246+255969420
4407+255117070+254766305+255154817+255474512+254789122+253406060+252378863
4397+251933420+251420624+250601091+249999252+250073619+250699909+251476456
4387+252193311+252784643+252940082+252343566+251365975+250742530+250584950
4377+250519343+250552414+250893292+251264227+251281861+251106619+251007012
4367+250761037+250163113+249694120+249901025+250541203+251186649+252059281
4357+253296904+254051168+253555583+252523710+252187029+252653712+253122873
4347+253003604+252260861+251239213+250442328+250136070+250170240+250388215
4337+250888982+251641894+252147366+251838123+250807770+249856264+249686149
4327+250212635+250785094+251007914+251095830+251288087+251339496+250954223
4317+250367820+250035956+249962575+249861165+249776854+249938180+250194775
4307+250187113+250046745+250371877+251393356+252743657+254076915+255324425
4297+256229424+256219001+255162479+253853419+253166789+253000815+252590922
4287+251703078+251023576+251330059+252532611+253601640+253440455+251885644
4277+249849052+248486808+248258945+248789094+249599753+250744896+252317820
4267+253567781+253487385+252281509+251121127+250630782+250662050+251139747
4257+252063534+252995604+253494878+253634937+253581471+253272706+252799066
4247+252491399+252360074+252006097+251307383+250741206+250819122+251515498
4237+252369003+252977350+253360116+253767981+254041027+253735107+253103042
4227+253012421+253617556+254045957+253694402+253000956+252767572+253336876
4217+254419990+255426342+255954829+255995618+255705219+255164141+254381511
4207+253470625+252848362+252980505+253677360+254103112+253772319+253044900
4197+252599485+252886504+253848743+254761291+254766333+253837926+252682416
4187+251801362+251402398+251801531+252936645+253904180+254006097+253854236
4177+254414103+255503780+256253593+256564640+257117747+258146071+258879659
4167+258410666+256924082+255554682+254966251+254733882+254334017+254004857
4157+254224720+254859433+255216677+254866475+254188578+253922687+254344073
4147+255120563+255669219+255486033+254550612+253492118+252959322+252966026
4137+253204762+253577527+254075168+254532471+254739882+254688332+254686445
4127+255076168+255729417+256077704+255690093+254668247+253620289+253250199
4117+253659951+254258467+254588246+254739685+254789291+254595908+254342440
4107+254545766+255233889+255618317+255071746+254138296+253952800+254837771
4097+256003111+256520611+256186128+255492315+255053464+255027858+255102788
4087+255034506+254889771+254783714+254739150+254666332+254350919+253817841
4077+253544907+253855334+254515372+255243945+255950209+256353510+256170494
4067+255652120+255281833+255085859+254658867+253757107+252777178+252589204
4057+253614063+255131634+255929786+255608148+254815348+254351426+254445681
4047+254805488+255041069+254988054+254827123+254941913+255458230+255940124
4037+255889645+255506822+255422680+255760206+256093338+256208579+256325172
4027+256688529+257245157+257634205+257568288+257316087+257549555+258564415
4017+259828968+260410244+259812883+258464920+257361891+257057915+257159043
4007+257049999+256733797+256555739+256618331+256891997+257429469+258146691
3997+258747685+258990674+258774615+258143226+257494259+257476822+258333961
3987+259504400+260129395+259821052+258874109+257957279+257619078+257925758
3977+258599176+259431976+260244974+260622472+260259481+259508090+259089803
3967+259284143+259739277+260104831+260570781+261484597+262508161+262729938
3957+261887842+260854616+260569542+261141184+262234946+263544711+264578021
3947+264871236+264705065+264755178+265045267+265018422+264538556+264043422
3937+263893054+264213706+265047802+266115902+266665994+266246861+265573415
3927+265889730+267435301+268973858+269278256+268721263+268481766+268831940
3917+268981379+268227847+266757601+265337215+264522527+264323961+264740587
3907+266282270+269391131+273418456+276783095+278368864+278007957+275903392
3897+272740024+269900462+268755460+269636402+271235439+271760066+271538457
3887+272438470+274753207+276714277+277452625+277919984+277900153+276074127
3878+273306989+271894181+272486724+274183565+276449231+278764728+279480457
3868+278290299+277437160+278219228+279056451+278097311+276029084+274648304
3858+275169748+278775884+286303173+293915224+293790011+286833490+279385047
3848+274892927+274089789+276209453+279709671+283193523+286166580+288571346
3838+289815842+289316878+287577304+285554289+283676263+281951788+280570951
3828+279850885+279974492+281460231+285205186+290430048+293322737+291990606
3818+289380540+287594205+285430964+281899167+278372103+276984253+279235834
3808+284484809+289252764+291296821+292408245+294121791+294738729+293105720
3798+290891801+289239778+288010803+287371667+287851110+289477894+291919872
3788+294952478+298189454+300940450+303065438+305538431+309308963+313902549
3778+318035847+321456121+325020312+329618264+335748463+343195217+350858818
3768+357676379+363005299+366181232+367713253+369890157+374409291+380056780
3758+383928975+385425785+387176092+392154782+400578197+408403462+411809651
3748+412824764+415113078+419018260+421532774+421177586+420740003+423067444
3738+428785750+436458450+443550240+448009656+449254490+448463465+447923964
3728+449442774+453077615+456965106+459180011+459904922+460762568+462448620
3718+463897683+463926613+463057418+462841386+463360351+462724089+460006529
3708+456437916+453898978+453960275+456749469+459866246+460580538+459520832
3698+458969754+459481480+460714370+463443677+468509326+474223547+476830288
3688+475299393+472662342+471107729+470530847+470930712+473127532+477614863
3678+483821598+489228041+490091039+486920459+484563524+485507425+486986488
3668+484966685+479947966+475341704+473397902+473692892+474493354+475513368
3658+477753907+480713104+482544904+483249140+484600257+487569482+490293464
3648+489194801+484024756+477939825+473639314+471538495+470473269+469622046
3638+469283618+469924951+471256745+472930008+475889881+481454635+487622441
3628+488915417+484695019+479670159+477022685+477407198+479927121+482391437
3618+483203280+483692413+485954586+489548947+492216816+493045954+492892205
3608+492023123+490059320+488039066+488007629+490550989+493734865+495166998
3598+494943446+495229140+497226689+499822726+501813909+504110448+508118054
3588+512333382+512611019+507881769+501913854+498701640+499223957+501687316
3578+503989264+505566807+506751613+507661259+508449214+509777233+512332649
3568+515899009+518915954+519598160+517570301+514003997+510749979+509235704
3558+509691541+511241535+512807473+514174816+516140478+519130661+522388059
3548+524870686+525921686+525291030+523442102+521365002+519607738+517877967
3538+515710218+513332663+511676978+511468862+512398340+513525567+514553864
3528+515887573+517211535+517165056+515044857+511844811+509247817+508365833
3518+509221450+510779557+511794557+511875572+511489032+511009476+510303550
3508+509147308+507693936+506504003+506083209+506203605+506232507+506140787
3498+506253014+506442143+506394312+506288507+506548060+507139393+507405425
3488+506495215+504155125+501657512+501329001+504102505+508195182+511013870
3478+511675231+510948630+509735204+508430679+507170830+506058476+505064716
3468+504049546+503235225+503140463+503497764+502997306+501004151+498456059
3458+496339803+494939051+494595948+495351790+495980136+495200069+493712217
3448+493241112+493861233+494057349+493188322+492017264+491023672+489934304
3438+488836881+488412198+488861163+489392269+489187533+488315859+487200069
3428+485692949+483555792+481592384+481166462+482630370+484949952+486787218
3418+487496129+487330099+487214604+487858839+488781725+488758232+487261872
3408+484934234+482627779+480645666+479038094+477952727+477294689+476770175
3398+476685779+477868895+480254844+482283492+482535552+481388325+480097433
3388+479083278+478171716+477631483+477802020+478318760+478654990+478972685
3378+479890726+481694470+483788189+484788204+483789260+481754865+480746794
3368+481611426+483145645+483891797+484115518+485086123+487014489+488763189
3358+489327592+488716597+487429931+485910304+484487580+483428973+483145025
3348+484055686+485794415+487051447+486880177+485739541+484770795+484561271
3338+484944882+485612722+486428677+487063616+486838204+485501453+483883177
3328+483201533+483950107+485810134+488233154+490477185+491429706+490412452
3318+488273887+486840740+487185477+488934459+490996291+492481045+493152829
3308+493274802+492872994+491561032+489517848+487989150+488047292+489330690
3298+490741527+491909600+493116434+494200449+494635441+494600624+494895389
3288+495601540+495766781+494653977+492680822+490983221+490520792+491616131
3278+493796444+496045827+497502580+498004165+497958869+497748049+497536665
3268+497430861+497303197+496770908+495758330+494827557+494490087+494574990
3258+494617864+494538482+494700175+495292915+495945939+496405382+497291648
3248+499104462+500624991+499784416+496463016+492999137+491578891+492163406
3238+493037391+492908825+492149998+491929206+492737612+494038870+494851557
3228+494387325+492526623+490119941+488466396+488061996+488093940+487389649
3218+485779485+484172026+483391508+483487847+483976812+484307014+484218280
3208+483887008+483716583+483768076+483488185+482392620+480964657+480271971
3198+480569045+480917670+480330056+478796344+477136490+476092813+475684807
3188+475466494+475187448+474942881+474720737+474170307+472936768+471121616
3178+469350746+468148250+467204547+465786667+463894049+462314956+461698412
3168+462100362+462930768+462992205+461569312+459806780+459611228+460960571
3158+461778639+460946796+459801710+459842752+460733751+461350041+461263646
3148+460505184+459089756+457372436+455903401+454627946+453223955+452073122
3138+451973092+453031051+454331182+454773216+454025515+452633608+451485536
3128+451094234+451135277+450841752+449944584+448861358+447967486+447261476
3118+446741638+446462422+446264307+445874921+445211560+444450619+443848977
3108+443563029+443699679+444363407+445249645+445402154+444129122+441984782
3098+440088614+438921245+438384815+438355745+438614452+438810343+438921922
3088+439237475+439651312+439534691+438643242+437663002+437412182+437766243
3078+437766497+436857188+435713933+435501113+436365097+437090487+436583720
3068+435229869+434106755+433490211+432995838+432523972+432191235+431921963
3058+431691904+431640748+431695284+431675763+431731313+432051655+432401632
3048+432413323+432148896+431988528+432009373+431802638+431030261+429845314
3038+428539888+427182009+425891456+424981837+424526253+424257771+424102867
3028+424291630+424727524+424777215+423967936+422554197+421203389+420430026
3018+420445801+421151614+422046077+422427604+421913287+420697072+419357617
3008+418456815+418079965+417691903+416733918+415355081+414247742+413905653
2998+414295066+415021865+415565338+415569479+415156881+414780228+414610846
2988+414305461+413530689+412495914+411763791+411708636+412242559+412879666
2978+413046852+412513098+411594099+410844088+410447012+410022302+409226093
2968+408304785+407638071+407090148+406430167+405983484+406128219+406528900
2958+406508140+405893173+405149641+404914455+405414687+406135881+406308841
2948+405813510+405147726+404608479+404130106+403764946+403714382+403945991
2938+404120331+403835792+402921272+401682381+400794256+400706508+401180205
2928+401526041+401222994+400251206+398939610+397654690+396625972+395946187
2918+395648099+395742297+396169092+396690113+396871778+396350869+395242403
2908+394161683+393623056+393415842+392869355+391846129+390997695+390833073
2898+391135669+391512575+391930018+392461631+392953441+393128852+392823608
2888+392087598+391155669+390268980+389535083+389035132+388863608+388953722
2878+389055696+388988906+388848566+388830397+388814256+388377066+387425278
2868+386486589+386088950+386176190+386339714+386333995+386223740+386165260
2858+386084865+385681310+384905665+384191035+383981370+384270811+384673577
2848+384715409+384172782+383341812+382754677+382527519+382268501+381636520
2838+380714761+379884270+379521195+379690549+380034498+380111823+379830241
2828+379355530+378790875+378209542+377753113+377458546+377216965+377027638
2818+377021892+377178148+377282994+377209190+377009610+376671718+375974018
2808+374809213+373543899+372689436+372245712+371765310+371039695+370364840
2798+370161203+370550026+371217979+371631393+371464658+370829297+370105005
2788+369597562+369285247+368926594+368560533+368635069+369308036+369961538
2778+369854213+369001412+368037737+367442827+367192711+367007243+366705746
2768+366303459+365877002+365462771+365073019+364702197+364288134+363758296
2758+363185753+362829381+362889861+363207612+363334205+362981468+362298529
2748+361662182+361316684+361243697+361250683+361118371+360721859+360064497
2738+359250880+358511799+358182302+358404981+358822902+358860818+358422474
2728+358019398+358076948+358390783+358416868+357907453+357094821+356343402
2718+355787620+355331388+354906452+354624871+354626167+354852959+355093300
2708+355194288+355099892+354769380+354275007+353902720+353898157+354121089
2698+354134498+353640266+352749239+351868945+351357332+351246767+351303810
2688+351333613+351299303+351144005+350735633+350119934+349608575+349398121
2678+349283641+348997327+348644787+348492982+348511348+348455657+348261316
2668+348094441+348094525+348192893+348174949+347928495+347557560+347180428
2658+346813380+346549968+346530165+346601434+346396614+345903846+345575504
2648+345691956+345921621+345725168+345047299+344361712+344074018+344125680
2638+344205146+344134385+343978833+343887226+343860494+343704379+343319106
2628+342937016+342858254+343044200+343192202+343132202+342952847+342777492
2618+342582419+342300105+342020439+341956833+342187090+342528813+342712956
2608+342618786+342335571+342035989+341796380+341574968+341368543+341264091
2598+341283415+341323190+341297246+341197357+341032792+340849409+340726759
2588+340656138+340524080+340254302+339889452+339588095+339568686+339907621
2578+340398754+340779211+341002002+341126680+341110229+340849324+340306218
2568+339578884+338919832+338553686+338448642+338459882+338605828+338957044
2558+339417867+339847592+340197850+340377599+340246978+339857198+339460769
2548+339226006+339117469+339055412+339019834+338999157+338983833+339029130
2538+339206597+339450910+339553785+339393106+339111835+338988171+339163920
2528+339550461+339927537+340072750+339895508+339538742+339291668+339329303
2518+339558686+339741759+339737675+339628237+339639279+339938185+340493150
2508+341086764+341424854+341297274+340736928+340006326+339396994+339091835
2498+339185920+339675956+340363346+340895156+341040200+340891156+340684843
2488+340512756+340407797+340587152+341234259+342052665+342423910+342096356
2478+341431107+340922875+340734337+340735435+340797211+340910536+341055074
2468+341115779+341039524+340974509+341113215+341452291+341819422+342095229
2458+342295176+342429347+342415656+342225118+342019144+342008073+342202132
2448+342411065+342484671+342489460+342618082+342918283+343160794+343068116
2438+342657744+342256386+342188554+342509714+342997805+343361670+343490826
2428+343514742+343615194+343823535+344024749+344124272+344169568+344288133
2418+344526700+344810591+345051496+345218597+345321021+345410938+345596997
2408+345967706+346483150+346965326+347230344+347270795+347272429+347375811
2398+347481812+347416854+347246598+347270147+347691731+348407318+349125188
2388+349593138+349686153+349391727+348772056+347887846+346704787+345079666
2378+342904931+340322190+337731139+335473023+333553587+331771957+329979649
2368+328117229+326263541+324724843+323791844+323509671+323920522+325198511
2358+327324260+330101172+333660800+338350303+343765478+348402783+350762253
2348+350496277+348634251+346990932+346630814+346934593+347051553+347229189
2338+347998327+349213499+350358614+351185414+351853170+352661040+353631420
2328+354424812+354850114+355236119+356012722+357154400+358372023+359618209
2318+360996595+362398868+363591730+364458869+364970933+365239387+365692971
2308+366737577+368137062+369181950+369529082+369437165+369221190+368962707
2298+368733944+368683295+368830762+369000004+369055638+369125414+369446686
2288+370023708+370611998+371010060+371177302+371146513+370995807+370791691
2278+370518589+370244979+370249712+370678478+371196626+371304431+370918679
2268+370395685+370068103+370003962+370167936+370525659+370920876+371126682
2258+371120935+371073920+371040596+370913017+370633604+370248275+369845903
2248+369547082+369398235+369285022+369134907+369118203+369457475+370131034
2238+370906031+371569646+372022610+372256022+372378361+372589350+372972342
2228+373342375+373417306+373116992+372598900+372058075+371604548+371275388
2218+371044399+370826114+370534448+370145935+369720944+369419305+369432404
2208+369745564+370047343+370076470+369928946+369803846+369684013+369529392
2198+369495532+369704577+370049117+370372108+370622111+370788987+370908481
2188+371123020+371530800+372000919+372325825+372548476+372936144+373603956
2178+374366080+375003694+375486518+375878129+376189148+376390446+376510335
2168+376671887+376971271+377327727+377595168+377790663+378004723+378174302
2158+378204979+378215909+378401770+378739550+379030709+379166570+379214965
2148+379289755+379450123+379704493+380003061+380242106+380392024+380589463
2138+380955835+381367559+381576717+381544519+381507138+381714127+382187908
2128+382717691+383054540+383150035+383222008+383544970+384174669+384919750
2118+385566745+386067146+386498251+386927666+387384292+387912806+388561914
2108+389293586+389969399+390497716+390963863+391514885+392116950+392563942
2098+392782227+392977920+393384292+394006160+394724536+395485561+396209374
2088+396677578+396754340+396618000+396584647+396787326+397153613+397588999
2078+398051795+398513519+398944455+399329108+399659254+399926638+400160501
2068+400449152+400847581+401279643+401635873+401940497+402285629+402659325
2058+403015414+403459533+404164754+405087866+405916497+406375912+406539182
2048+406755749+407277728+408030386+408758115+409328630+409863117+410593944
2038+411605930+412736537+413764327+414668452+415647452+416878230+418281489
2028+419551366+420460449+421101078+421749144+422596057+423721143+425135980
2018+426686537+428119882+429403900+430753046+432296673+434006444+435886865
2008+437915795+439854864+441447112+442784765+444239940+446033656+448000585
1998+449828132+451521424+453490550+455991402+458559720+460334224+461046572
1988+461314294+461883204+462985248+464447465+466024896+467489424+468696990
1978+469761343+470997192+472598595+474480790+476448198+478417916+480448368
1968+482579947+484730062+486796795+488742682+490532397+492211013+494038588
1958+496215858+498553638+500769613+502901643+505094519+507299508+509468552
1948+511760303+514421975+517626076+521237902+524591921+526965194+528392989
1938+529490976+530659781+531934560+533365454+535172071+537534132+540362510
1928+543368468+546374426+549336665+552067577+554436512+556835475+559666051
1918+562407667+564141719+564996548+565986253+567675967+569749292+571483119
1908+572458851+573102240+574340399+576468147+578756180+580491866+581888505
1898+583496303+585186862+586328399+586944746+588007691+590088790+592303075
1888+593403429+593458979+593276103+593093734+592848266+592720264+592796603
1878+592962746+593353400+594316512+596054001+598623052+601752674+604240089
1868+604395866+602033523+598932465+596904718+596484543+597022917+597367654
1858+596729786+595294047+593932450+593224722+592982183+592741391+592400767
1848+592423021+593574699+595916197+597732560+596866464+593535543+589801575
1838+587233257+585979549+585382527+585339540+586436232+588390400+589450472
1828+588543529+586546374+584290511+581629629+578761194+576525500+575241369
1818+574366202+573406245+572713784+573000718+574148903+574974718+574492345
1808+572989901+571430104+570505922+570507669+571359174+572487190+573039197
1798+572686685+572255637+573206636+576061775+578965816+579080973+576550346
1788+574108114+573513514+574602487+576438626+578398541+580139298+581396273
1778+582394372+583946225+586799279+590780631+594245807+595326780+594268286
1768+592741955+592037776+592937000+595562333+598610319+600138397+600144482
1758+600189440+600794575+601835379+604254005+609032607+614723110+617814647
1748+617220836+615641208+615653771+617482135+619829380+621337514+621490868
1738+621339373+623036918+627715012+633036665+634678942+632619420+629805126
1728+627960650+627694787+628942185+630954607+633257626+636577954+641876959
1718+648199753+651916199+650730492+646817874+643314444+641760957+642408459
1708+644840494+648092314+650944636+653326135+656570631+661136161+665076554
1698+666895566+667202162+665609576+661931102+658550997+657710929+659709718
1688+664057272+670614041+677960173+681301347+678537026+674300628+672179697
1678+672729226+675554393+679411856+682448406+684429222+686593929+688715818
1668+689001681+687718790+687124021+688063020+689071034+688783481+688275530
1658+689493801+693391546+700019809+707385941+710184460+708275306+707458336
1648+709448731+710997992+708502408+703921272+701358983+702445702+707021147
1638+714074317+720734468+721906372+716731031+710832074+707902568+707524591
1628+707999696+708979316+711407237+714832694+716710242+715977555+714837370
1618+715571972+717735439+718681763+717652734+716280658+715618114+715505943
1608+715714115+716723256+718903625+721555324+723590564+724897907+726302546
1598+728305561+730637368+732988106+735438957+737986374+740289674+742237701
1588+744271533+746827963+749677806+752122404+754077700+756700046+761496283
1578+768705399+775722005+778427170+777342986+776687991+777778654+778185421
1568+776235139+774091785+773858374+775413550+778854162+785672062+794948925
1558+798473538+792586356+784493904+778577313+774866726+772008376+769188167
1548+767427297+768690638+773696005+781114983+788662526+793679104+793046814
1538+787801049+782991573+781125068+781605469+782731907+784111927+786903009
1528+791368987+795994517+799728091+804033617+810316523+816517962+819654063
1518+820427651+820917968+821849925+823666739+827297326+833398145+841779502
1508+850738446+855749221+853882772+850044295+848904392+850677487+853918378
1498+857323835+860462302+863655079+867083916+870788476+874894224+878877604
1488+881384119+882129932+882753208+884827829+888260835+892093566+896464219
1478+902405261+909665645+916252386+920454755+922468812+923686914+925338768
1468+928266922+932958707+938834959+944192330+948252049+952033737+956124837
1458+958831467+957373756+952682760+947949735+943882636+940512841+938793493
1448+938901607+938990172+937095328+933212738+928960678+926303120+926257034
1438+927560940+926818451+922913494+919387022+919079863+921737759+925516686
1428+928370191+929086595+927655308+925552292+925338261+928703773+934476869
1418+938939636+940183090+940140104+940564392+940762704+939535645+937476855
1408+936438812+937089244+937950552+937316515+935170681+932696618+931270626
1398+931745901+933001130+932767493+931179188+930744084+932733577+935700379
1388+937257641+936892565+936776394+938625716+941653815+944258472+945909706
1378+947224204+949441362+953869932+960490082+967513955+973095894+976534252
1368+977962667+978430504+979335756+980577351+980562253+978535294+975448716
1358+972545238+971191303+973441025+980368785+989763397+996675832+997902554
1348+995921681+995468491+997391561+999171530+999558127+999269334+998367011
1338+996477407+994930343+996140388+1001251672+1008549240+1013782328+1014142671
1328+1012421069+1013754384+1018797835+1023321843+1024634312+1024627551
1320+1024798821+1023764441+1021773201+1023072825+1030839921+1041817879
1311+1048961867+1049805710+1048089291+1047751935+1048903613+1049452691
1302+1048753188+1047915881+1048035882+1049277703+1050677384+1049887852
1294+1045107954+1038615242+1035228490+1037083277+1040244110+1038322618
1285+1030703694+1023415365+1021498493+1023509676+1023496944+1018217207
1277+1010789609+1005600916+1003462858+1002962006+1003217784+1004100388
1268+1005237982+1005163389+1001379448+993330884+985084007+981255107+981655000
1258+982552027+981465589+978742847+975223473+971059808+966707071+963000427
1248+960183035+957884073+956235824+955508715+954453377+951432489+946392305
1238+939564603+930079398+918469657+908180441+901257019+895807365+889938380
1228+884977972+882718504+882240919+881251159+878733997+875235694+871729898
1218+868641009+865580346+862276919+859449780+857960633+857580007+857289693
1208+856579261+856105789+857023943+859434738+861956914+863722855+865654826
1198+868589459+871995366+875785110+881038931+887375640+892109904+893604179
1188+893621475+895040199+898354161+901597756+903420374+904836394+907783985
1178+912710984+917472460+919722632+920639885+923740379+930359121+938420756
1168+945613815+952210077+959493673+966649943+971048203+971824777+971686409
1158+974005878+979476941+985943737+990424251+991359025+989216572+986618000
1148+985117359+983128711+980553238+980409800+986198501+997513478+1008187094
1138+1011820046+1009546775+1006380758+1004175206+1003873005+1006211855
1130+1008495718+1007518127+1003913343+1000804792+1000013570+1000435322
1121+1001357927+1004207319+1009901709+1016987781+1022700651+1025580692
1113+1026021374+1025495733+1026731694+1031212433+1036909640+1039617172
1104+1037723624+1035193335+1036610256+1039956782+1039626637+1037215110
1095+1039922753+1049977093+1062537270+1071409734+1073741823+1070159012
1087+1063284999+1057647849+1056345746+1054367014+1047573115+1041620468
1078+1042294280+1047486015+1050036812+1046939641+1041384633+1036878541
1070+1034623073+1034011346+1032887161+1028943894+1022332420+1015550578
1061+1011358519+1011026232+1012623663+1011869174+1007184939+1002624649
1053+1003354349+1009377758+1015384266+1017056177+1015288603+1012652847
1044+1010015401+1007338293+1004464112+1001696523+999389674+996969808+994592761
1034+994583747+998757777+1005996978+1012793807+1014222109+1007105726+995810355
1024+988060950+986243009+986664536+985195670+981578492+978215177+977383616
1014+980179036+986610225+994531351+999598015+998705495+993190149+986267460
1004+978796368+970664761+963753339+960633182+960798818+959882636+953699563
994+943075469+932900283+926673660+923856606+922001763+919837225+917677871
984+915684491+912874592+908316612+903122679+899554009+898045650+897277132
974+896640559+896239934+894827914+890541544+883615305+876318582+870643403
964+867353948+866470161+867290173+868140044+867344483+865203495+864052944
954+865512120+868546979+871139072+872868224+874919689+878399626+882742560
944+885831787+886158890+884542755+883259356+883790462+886000015+889897422
934+896617292+906388303+917625081+928841860+939391530+947729563+951572772
924+950602280+947627365+946050328+946785775+948351544+949091160+948828734
914+948681013+949387953+949745930+947613505+943777395+941894382+943928383
904+948401798+952819213+956766761+960693014+962938680+961270036+955806410
894+949029187+944598927+944848001+948931721+953409193+954261487+951136485
884+948874593+952212218+959953736+965976694+966693888+964778030+964230529
874+965575337+967194176+968602985+970941722+974965441+979513449+983050738
864+986032302+990031231+994588141+996488675+994604028+992088838+991323306
854+990849835+988515379+984552393+979308263+973658380+971480321+976096837
844+986419011+995838525+996436730+990036527+988325630+996583099+1006602508
834+1007782919+1000870709+994516140+993946554+998139290+1003534859+1006862117
824+1007884554+1009886723+1013377364+1016280617+1019997514+1026370449
815+1033416183+1036249800+1032207151+1025721426+1024922203+1033774498
807+1045932078+1048709469+1039491761+1028623552+1024541466+1027405393
798+1032126362+1032824963+1028230645+1023906302+1026132474+1034431634
790+1041361760+1041632186+1037606777+1032194870+1025416971+1015961288
781+1002691917+987607761+975402180+968683888+966674620+968026751+971572266
771+975081724+977646155+981708297+988313010+993011443+992258756+990381772
761+993033640+998261996+998494675+991635198+984457181+984688846+995302179
751+1013602720+1033143615+1045930726+1044096221+1028037177+1009948471
743+1000946541+1001676917+1006404533+1010923020+1015529958+1022593833
734+1028786596+1026967979+1020284729+1019633903+1028273575+1037110657
726+1037561030+1028479211+1012529127+995749848+986620817+990895807+1005786271
716+1019913682+1025704975+1027809906+1028116840+1021471676+1009539338
707+1001158938+1000196333+1002752538+1004498478+1007129614+1011036937
698+1012328223+1007456830+998999358+993399617+995532830+1006520253+1021531733
688+1030524762+1025923908+1008139769+988858370+979010343+978842003+980711776
678+976767044+971115809+970103175+974276192+983288263+994527633+1000320842
668+994050894+987516717+989809707+992098303+987950075+974974906+954702958
658+934542504+923523869+926690787+940924340+955842692+964079653+968239938
648+974754058+985920638+997175558+1002029824+1000797693+998275292+1001119614
638+1007826525+1006230334+993540351+985089979+995546690+1014296476+1010651129
628+987748270+962693155+942251796+933180794+933733985+933121188+929058651
618+926744534+929346317+935094737+942362051+953777423+968401292+978645268
608+976183599+965483054+962762902+983889736+1029779512+1065882782+1033780019
##END=
