##TITLE=<SNM>
##JCAMP-DX=4.24
##DATA TYPE=INFRARED SPECTRUM
##DATE=29/4/2025
##SAMPLING PROCEDURE=Instrument type and / or accessory
##ORIGIN=Admin
##XUNITS=1/CM
##YUNITS=ABSORBANCE
##RESOLUTION=4
##FIRSTX=4497.3318
##LASTX=599.83466
##DELTAX=-1.4281778
##MAXY=2.1567755
##MINY=0.47904435
##XFACTOR=1
##YFACTOR=2.0086537e-09
##NPOINTS=2730
##FIRSTY=0.48836526
##XYDATA=(X++(Y..Y))
4497+243130643+241022830+239034187+239073816+241627673+244825351+246124594
4487+244828674+242500799+241252001+241997114+243993472+245716102+246094935
4477+245075220+243462694+242369685+242471036+243693364+245559854+247365172
4467+248151368+247470588+246299863+246147190+247132765+247930030+247691199
4457+246958298+246448143+246203749+246165974+246342682+246321896+245683313
4447+244647915+243510024+242110438+240527097+239455260+239358404+239989850
4437+241077192+242789155+245117683+247205838+247861973+246846011+245231349
4427+244232154+243948427+243625915+242964009+242492728+242549049+242708783
4417+242718220+243151711+244464679+246093763+247061103+246985746+246155796
4407+245082164+244260967+244058354+244495005+245037415+244764400+243244131
4397+241278782+240141113+240211129+240860380+241381736+241591975+241778298
4387+242333393+243338998+244456756+245235133+245432627+245054003+244249929
4377+243289710+242613871+242639065+243236089+243745961+243902224+244179854
4367+244859223+245460476+245464809+244995352+244382215+243518659+242123614
4357+240521652+239716019+240343757+241688356+242226552+241322492+240063457
4347+240094377+241770212+243735828+244346666+243277781+241454096+239852935
4337+238964794+239020730+239949301+241064239+241448828+240951760+240337110
4327+240188918+240173398+239724135+238969216+238490264+238568914+239064039
4317+239824018+241000292+242719496+244458551+245286721+245036110+244649443
4307+244926687+245565374+245793967+245297448+244250730+243057140+242206686
4297+241896727+241818491+241688816+241774633+242445131+243432100+243986483
4287+243651761+242644435+241554423+240886923+240841715+241246512+241674825
4277+241857928+241951846+242203258+242509746+242568559+242367667+242270292
4267+242505443+242920789+243306001+243546478+243442353+242880165+242285589
4257+242280084+242837657+243372263+243581123+243642755+243806214+244188978
4247+244619859+244515985+243487027+242119519+241484778+241811904+242208511
4237+241843165+241059966+240971968+242084845+243617206+244361087+244176129
4227+244128829+244962236+246096151+246518560+246082397+245420387+245019195
4217+244905248+244943557+245090190+245432004+245884888+245951788+245265415
4207+244320552+244027107+244516771+245012712+244927028+244546979+244467424
4197+244792412+245181942+245420758+245630048+245976951+246343958+246370531
4187+245894250+245264792+244963438+244901242+244529205+243793870+243416521
4177+243940756+245002207+245848448+246177562+246187443+246181048+246349878
4167+246672404+246822703+246431200+245713610+245481515+246024949+246411823
4157+245641947+244148726+243280229+243577562+244405286+245115903+245683239
4147+246201271+246558857+246757183+247031622+247420810+247573883+247217455
4137+246557774+246022441+245785732+245720049+245731073+245956610+246496779
4127+247071207+247234710+246938475+246540563+246318735+246359404+246741366
4117+247390721+247952686+248156650+248083281+247851542+247387086+246752999
4107+246347757+246462461+246943654+247528022+248155626+248702576+248850708
4097+248521194+248034779+247699849+247614002+247788915+248121070+248425273
4087+248649326+248801687+248778571+248508612+248050313+247511479+247168701
4077+247450054+248383507+249339096+249689308+249421946+248828215+248031440
4067+247182440+246657448+246648383+246887703+247044575+247130347+247366136
4057+247822788+248233446+248180463+247626762+247144383+247320868+248143252
4047+249197937+250118897+250678755+250755462+250348247+249625390+248968588
4037+248711003+248701626+248532143+248261873+248339278+248815129+249271499
4027+249485329+249640346+249936551+250327980+250629111+250785997+251061935
4017+251807700+252838394+253278429+252475868+250935850+249836283+249794977
4007+250558873+251619923+252671122+253636712+254493398+254928210+254434555
3997+253078842+251781112+251410069+251830074+252098059+251555590+250656292
3987+250459198+251354787+252698689+253651430+253913006+253623210+253087833
3977+252699045+252708660+252988069+253203799+253169793+252892638+252475630
3967+252197170+252474948+253480983+254860257+256027659+256647547+256628140
3957+255956560+254881296+253970870+253680154+253970009+254493190+254950169
3947+255064503+254594972+253793835+253548432+254496751+256101962+257216842
3937+257376725+257038145+256835828+257045297+257564294+258074329+258295340
3927+258277922+258370415+258672822+258717660+258207743+257808065+258435134
3917+259792924+260416373+259506690+257884179+256848173+256838618+257471563
3907+258563504+260344058+262468830+263846175+264219800+264523631+264964971
3897+264585323+263016878+261253683+260626584+261461549+262566131+262757795
3887+262491175+262775569+263530890+264217515+265005892+265767414+265462306
3878+264042854+263147770+263920004+265664979+267118111+267852422+267871740
3868+267338144+266865794+266778582+266420359+265116931+263275634+261703747
3858+260936201+261728258+264988740+269556626+271675166+270566578+268590472
3848+267240487+266704190+266568580+266248428+265645691+265554800+266772707
3838+268788427+270204675+270528477+270370700+270363935+270613700+270938066
3828+271188692+271251779+271254776+271733743+272863310+273620144+273304977
3818+273147319+274124482+275056362+274503329+272936783+271781814+272160216
3808+274277392+276885671+278533315+279458192+280477076+281100377+280668206
3798+280075054+280330457+281243821+282262735+283405329+284851488+286527383
3788+288497079+291048205+293998654+296742543+299395897+302842197+307285779
3778+311863605+316053594+320150465+324499921+329442767+335325356+341747209
3768+347660452+352498904+356317167+359485156+362719673+366512980+370346288
3758+373341278+375798220+378958493+383673472+389804788+396023702+400834795
3748+404697599+409037321+413670787+416503578+416902396+417048807+418804495
3738+422550739+427820829+433724605+439180869+443440769+446225103+447609689
3728+448446345+449931703+452196625+454243384+455638178+456871248+457987433
3718+458233460+457219620+455878982+455635655+456511719+456868103+456079874
3708+455532183+456240618+457846868+459711162+461685902+463751861+465565590
3698+466877000+468074996+469625577+471129007+471762011+471649754+471868362
3688+472809590+474074856+475640571+477315665+478163033+477577863+476301054
3678+475491044+475506208+475920278+476213961+476577733+477685758+479225330
3668+479823349+478961559+477297979+475583152+474258805+473838949+474818158
3658+476809279+478181045+477917927+477512076+479484502+484703048+490433470
3648+492025594+488417215+482624835+478156179+477055869+479145122+482382814
3638+484600436+484980381+484232331+483898440+485092014+487630500+490009963
3628+490563797+489419808+488037033+487627829+488721640+490943030+492938750
3618+493444335+492678688+491895623+492049245+493383978+495815816+498990125
3608+501940129+503828340+505314885+507735565+510991567+513258655+513324946
3598+512382799+512116980+512529804+512528617+512100422+512842152+515822007
3588+519343056+520405977+519376944+519512435+522153830+525358021+526700944
3578+526140285+525363540+525522118+526701597+528811413+531957503+535778436
3568+538656154+538618943+535819564+532644039+531251738+531945633+533490814
3558+534426017+533998000+532576501+531387585+531682069+533984350+537755195
3548+541469658+543304516+542530382+539925427+536777261+534345363+533497995
3538+533795150+533727434+532498814+530827935+529717062+529485842+530424251
3528+532839530+535751908+537082487+536036362+534351120+534159308+535489175
3518+536583727+536154939+534515217+532515550+530591196+529269816+529478780
3508+531324498+533540191+534958961+535651254+536076362+536359570+536825214
3498+537684155+538156683+537392579+536136244+535692738+535761819+535374693
3488+535180269+536326276+537926294+538075317+536437850+533997051+531322421
3478+528828209+527749027+528995095+531364499+532390683+531174942+529048389
3468+527483386+526739520+526262304+525434817+524304715+523652601+523952486
3458+524857481+525910787+526643555+525967345+523313072+520225381+518737768
3448+518965723+519534097+519502583+519154983+519184004+519570003+519541812
3438+518747145+517747133+516860832+515424080+512957465+510263191+508491301
3428+508052542+508743767+510057075+511169610+511507062+511540594+512099888
3418+512942924+513057525+512288733+511237860+509860812+507673131+505062953
3408+503158599+502625893+503407979+505124022+507116567+508442280+508380558
3398+507192176+506125043+506254658+507251049+507690936+506711281+504771852
3388+502817409+501506177+501131336+501469263+501748494+501351101+500624921
3378+500596731+501529738+502229093+501485049+499917079+499629835+501962028
3368+506035605+509502588+510682602+509970962+508934095+508406434+508052127
3358+507600727+507715625+509045788+510795303+511258870+510029597+508422279
3348+507531527+507390220+507937585+509010595+509570423+508887567+507971295
3338+508112128+508904481+509050773+508284355+507344760+506818878+506742735
3328+506844398+507009800+507633428+509070714+510663551+511160293+510479692
3318+510051259+510804028+511828134+511794306+510944148+510622898+511341066
3308+512429150+513442633+514701995+516102545+516672878+516077678+515540877
3298+516221419+517528614+518221797+518431414+519345193+521001710+521700591
3288+520300693+517949984+516558574+516666112+517727252+519203114+520542595
3278+521179754+521123433+520831738+520522654+520300041+520584376+521803797
3268+523935156+526462663+528516158+529311716+528664349+526968603+524890716
3258+523128737+522283802+522794668+524561335+526453404+526948009+526111679
3248+525937375+527530865+529143761+528390281+525539625+522823452+521545337
3238+521387649+521393703+520702182+519207150+517835027+517390809+517429504
3228+517086236+516252101+515313871+514633092+514603121+515333456+516379937
3218+517227661+517539297+517131933+516361836+516068182+516419106+516438632
3208+515460223+514192137+513438301+512796929+511556084+509982831+508769168
3198+507882748+506864636+505812101+505309366+505668717+506570092+507020483
3188+506010026+503770357+501857101+501493892+502369451+503428751+503975523
3178+503496763+501548017+498544660+495727536+493916031+493037001+492860827
3168+493259763+493660420+493271899+492200611+491414846+491288138+491040509
3158+490009488+488736447+488177509+488369618+488509827+488079852+487295867
3148+486522772+485767779+484982903+484423134+484202004+483820041+482718308
3138+481170397+480106527+480034509+480495760+480727929+480615999+480472021
3128+480046200+478732773+476710376+475062701+474678276+475376325+476171883
3118+476215771+475452676+474461982+473759897+473309269+472716087+471845810
3108+471010904+470396506+469672877+468569423+467383534+466454324+465589122
3098+464422491+463008914+461840949+461475395+462153089+463499929+464611841
3088+464783949+464271065+463939103+464021062+463778152+462728585+461649522
3078+461673558+462749089+463692394+463560078+462442172+461122691+460361050
3068+460333454+460533545+460355294+459817543+459471040+459603445+459875288
3058+459816623+459298813+458345538+456901130+455154879+453824715+453635989
3048+454514070+455614468+456126225+455718564+454442378+452847760+451908432
3038+452108553+452708263+452521644+451360592+450115474+449621967+450001140
3028+450791535+451307594+451077443+450199570+449257126+448700324+448409193
3018+448067528+447670194+447262623+446572466+445442008+444279206+443551067
3008+443122665+442575566+441830573+441019228+440146162+439262947+438756235
2998+438916029+439321820+439294223+438780301+438231244+437825067+437347554
2988+436730604+436144573+435578543+434928180+434502032+434765893+435425604
2978+435434862+434243691+432546877+431479327+431478645+432088296+432574919
2968+432629964+432518330+432500734+432278654+431392709+430073822+429132684
2958+428921672+428961317+428721403+428263920+427923174+427786496+427731095
2948+427686287+427647088+427577621+427473169+427437026+427511300+427468688
2938+426967585+425964814+424827620+423983664+423547576+423298700+423019706
2928+422768665+422626586+422338274+421579274+420453564+419377765+418600220
2918+418016444+417367950+416665598+416366960+416835600+417736322+418324667
2908+418173093+417387298+416428414+415829328+415702650+415534250+414765784
2898+413441229+412115398+411354974+411343401+411728064+411920203+411713198
2888+411433016+411405924+411583107+411782011+411929669+411833703+411095386
2878+409630325+408047459+407166024+407198458+407570421+407580599+407135846
2868+406662606+406391980+406142689+405822804+405613811+405544581+405402028
2858+405188346+405171699+405383689+405466895+405118701+404400355+403518683
2848+402580156+401696556+401109694+400978268+401102662+401052008+400570994
2838+399739619+398786611+397960252+397550455+397723929+398256546+398644918
2828+398517143+397845147+396923860+396223763+395947796+395765835+395363605
2818+394957607+394811106+394663390+394110505+393182304+392222294+391523324
2808+391221867+391256199+391324776+391055337+390324616+389431668+388868398
2798+388798723+388853947+388607119+388127202+387817644+387846695+388013047
2788+388079873+387993937+387778415+387421645+386915349+386276974+385543850
2778+384810280+384190422+383727805+383443025+383365991+383336614+382960230
2768+382074997+381086855+380514712+380386936+380359577+380239249+380087081
2758+379933163+379706751+379394254+379006980+378452849+377681268+376914226
2748+376483480+376417722+376425764+376319561+376159025+375903117+375306048
2738+374375859+373576473+373295342+373427184+373667691+373878940+373995172
2728+373877307+373453386+372831598+372172926+371541584+370890271+370135900
2718+369298887+368626565+368430124+368649266+368768258+368415613+367868011
2708+367636435+367731867+367727178+367443881+367195362+367274799+367461062
2698+367261476+366573723+365818314+365360831+365116941+364843110+364549071
2688+364464708+364682722+364913704+364711328+364014940+363260332+362827241
2678+362659851+362553796+362498335+362530621+362456436+361992632+361199567
2668+360526948+360279022+360252612+360110326+359847089+359644890+359554296
2658+359518361+359443048+359164737+358594285+357908906+357432373+357343321
2648+357546261+357741397+357641841+357225991+356728270+356354645+356125800
2638+355966837+355781197+355473804+355059319+354730146+354709493+355045254
2628+355555823+355933157+355940546+355584755+355058458+354503675+353939900
2618+353410725+353012085+352749441+352547124+352408250+352391959+352441782
2608+352417242+352292107+352175488+352154924+352213856+352243441+352120651
2598+351881271+351738124+351758184+351689221+351355182+350997997+350922773
2588+351053635+351127078+351047226+350811556+350394281+349914157+349642729
2578+349667448+349760386+349712878+349603204+349586319+349594806+349440056
2568+349115424+348812393+348686784+348748090+348929872+349158035+349358839
2558+349468069+349474122+349444122+349442015+349418305+349274179+349042693
2548+348894709+348956015+349207442+349518989+349698961+349592462+349238837
2538+348875896+348704321+348715834+348820316+349013672+349269313+349392222
2528+349221923+348907736+348750761+348828299+348971208+349064978+349201359
2518+349506081+349896501+350091518+349916679+349522669+349205721+349117797
2508+349240232+349477534+349666765+349685074+349643471+349780980+350108105
2498+350390097+350515647+350608052+350739507+350809775+350742831+350576983
2488+350380512+350259650+350361788+350708409+351117494+351391414+351494442
2478+351509575+351495243+351407319+351172391+350851764+350656954+350736243
2468+351004466+351245210+351342630+351354559+351363194+351334648+351209869
2458+351079036+351121144+351373342+351669013+351798867+351698509+351526668
2448+351546341+351840766+352175073+352243797+352067979+351986346+352165547
2438+352332997+352199643+351934506+351914832+352200473+352547896+352764367
2428+352820866+352779946+352762794+352886149+353171226+353527848+353819097
2418+353987615+354131831+354379282+354721392+355062553+355357512+355637664
2408+355957074+356280876+356430907+356295683+356078322+356132180+356567140
2398+357184506+357730269+358092529+358323778+358537667+358753486+358833220
2388+358588558+357937393+356910497+355463834+353367816+350407337+346606493
2378+342111190+336982674+331263054+325145893+319000274+313293918+308444308
2368+304568270+301396928+298590813+296178323+294638840+294533023+296163367
2358+299596730+304690408+311129176+318748283+327177607+334807753+339254481
2348+339166468+335346899+330577290+327763282+327566098+328696972+329997788
2338+331093854+331814129+332039028+332029591+332353334+333392426+335059804
2328+336930181+338632367+340206658+342000684+344195279+346679936+349356821
2318+352157506+354793500+356924711+358616125+360347628+362516140+365029462
2308+367391625+369164939+370321362+371099590+371682891+372191294+372762844
2298+373379794+373839265+374106924+374411527+374869930+375365633+375854926
2288+376465527+377241411+377986197+378400682+378379911+378192787+378220532
2278+378473769+378600121+378394866+378021539+377730764+377620377+377623166
2268+377536548+377178562+376665084+376356208+376402499+376574638+376663778
2258+376777815+377059866+377363549+377413757+377169719+376910873+376960903
2248+377348682+377813702+378151718+378379614+378527331+378533622+378440653
2238+378453235+378693119+379064815+379398023+379564672+379473306+379137961
2228+378760686+378554957+378487182+378381543+378208366+378021212+377717559
2218+377164377+376485705+375956560+375668010+375508068+375413794+375421835
2208+375492875+375525991+375557208+375709494+375982109+376310154+376699446
2198+377083368+377260343+377150312+376906422+376758498+376941586+377616282
2188+378634157+379555562+380040108+380099218+380007615+380115183+380637651
2178+381478581+382297433+382808863+383001091+383074178+383212696+383459197
2168+383767331+384069204+384300749+384445321+384518853+384512176+384478467
2158+384612088+385048295+385668866+386248368+386644218+386767484+386568817
2148+386109435+385541298+385081144+385016307+385506015+386333799+387071790
2138+387498442+387699186+387855627+388113107+388545189+389097451+389627398
2128+390060162+390461532+390927264+391415815+391732407+391746650+391604156
2118+391612969+391941103+392513781+393177972+393886229+394699770+395629484
2108+396507476+397081310+397267425+397289740+397530366+398181827+399030027
2098+399686770+400041759+400323454+400746812+401303613+401855163+402249470
2088+402385465+402293862+402160774+402232585+402654816+403338473+403989994
2078+404339909+404362995+404318217+404583028+405292501+406094677+406491358
2068+406472841+406517619+406954627+407658968+408355059+408850732+409000110
2058+408822601+408638504+408789069+409311894+410086503+411093339+412311187
2048+413533812+414489461+415090328+415492914+415920070+416462035+417120470
2038+417959589+418970075+419874715+420439439+420917872+421791443+423125523
2028+424530465+425712615+426770045+427947626+429322359+430771634+432101530
2018+433167626+434040573+435079368+436609178+438518488+440444711+442296394
2008+444254873+446328339+448260408+449832296+451058274+452191343+453562665
1998+455238707+456946026+458493106+459980631+461453229+462750039+463846194
1988+464908966+465977197+467022847+468250576+469882405+471721654+473347608
1978+474698958+476116571+477835463+479733882+481602123+483445586+485455460
1968+487758098+490220915+492536401+494548353+496428137+498493146+500926764
1958+503652611+506386173+508873917+511152696+513448687+515826874+518160135
1948+520402356+522667427+525090659+527691163+530284368+532654543+534916112
1938+537426764+540333325+543450333+546445857+548943393+550722167+552014466
1928+553352939+555155689+557653937+560897179+564508733+567796070+570374082
1918+572404550+574257983+576226255+578438803+580754259+582817072+584470741
1908+585965891+587505612+588875123+589834362+590605054+591675333+593240276
1898+595070446+596873849+598498912+599794357+600627482+601103749+601515089
1888+602020198+602589641+603244010+604029420+604824681+605487597+606131224
1878+606934023+607662043+607849938+607714862+608230121+609847053+611663691
1868+612333194+611616331+610284090+609006747+608057893+607486492+607205420
1858+607012065+606617758+605840895+604786758+603627160+602349104+601031285
1848+600092699+599908958+600319229+600601191+600054241+598642415+596834857
1838+595119586+593753754+592729113+591991716+591590050+591425004+591070460
1828+590188728+588877438+587327094+585593187+583779041+582051247+580529271
1818+579352581+578693702+578593878+578843614+578991925+578568003+577542531
1808+576395931+575527434+574991998+574830572+575136747+575800494+576594627
1798+577444489+578326694+579143855+579830925+580293957+580307132+579858225
1788+579361009+579262848+579661487+580364819+581299310+582620927+584309196
1778+586008503+587515464+589128004+591227613+593530725+595200477+596037994
1768+596550700+597066670+597793325+599133875+601147369+603151368+604711920
1758+606188376+607611716+608466681+608887042+609748061+611528615+613782825
1748+615816972+617342984+618308692+618849351+619521940+620951155+622879130
1738+624339918+625343965+627143214+630269065+633178594+634668759+635312328
1728+635773698+636210320+636641423+637141547+638050578+640011194+643361559
1718+647275431+649935342+650635944+650299382+649647387+649052899+649280498
1708+651038322+653878473+656363249+657930033+659462098+661570549+663479354
1698+664565420+665630951+667150316+668511815+669456633+670519315+671947878
1688+673455432+675184057+677949252+681661222+684565825+685923111+686443176
1678+686745197+687114341+687655653+688398213+689520896+691272074+693481535
1668+695466839+696839021+697845205+698896493+700250277+701663052+702425732
1658+702252792+701905192+702806329+705700665+708598027+709348481+709663381
1648+711322272+713775475+714966408+714316371+713143836+712660151+713434521
1638+715544397+718501523+720930512+721497224+720624395+719680765+719622426
1628+720527718+721757524+722850118+723815055+724509484+724747054+724938569
1618+725636203+726577223+726926248+726757640+726935446+728003292+729839278
1608+731822386+733460625+735011265+737030339+739384371+741423860+743062989
1598+744800635+746822557+748976528+751451334+754666207+758462867+762068606
1588+765233567+768812955+773465708+778279472+781663428+783520719+785487210
1578+788977161+793384689+796040683+795723825+794004814+792204794+790655399
1568+789606842+789139833+788638522+787397262+785444005+783232110+781111255
1558+779514620+778417694+776978864+775006854+773545650+773750044+775356769
1548+776900288+777479463+777626290+778349087+779935871+781713933+782785102
1538+783408967+784681326+786809540+788678700+788808435+787458034+786692921
1528+788412703+793032162+798922022+803763145+806669113+808622429+811353795
1518+815604585+820421969+823834471+824710980+824154950+824683858+828336125
1508+835196143+842284651+845798638+846543928+847036100+848075934+850025807
1498+853704722+859156238+864457841+867880610+869960574+872220006+875530905
1488+879560327+883211704+885883367+888172295+891127580+895076468+899614917
1478+904237403+908052877+910028923+911189589+914911530+922454405+931013850
1468+938078203+943675834+948736307+953406686+957214267+960072163+961630400
1458+960397626+956143453+952431838+951411589+951352538+950463448+949233760
1448+949394652+950851702+950971466+948141879+944380590+942970900+944787063
1438+947866326+949471745+948800640+947856356+948475057+950159765+951162150
1428+951032000+950875619+950712412+949363317+947110828+945848025+946701328
1418+948482476+949075480+948246509+947272373+947152312+948259921+950738407
1408+954309723+957606497+958566448+956521499+953123360+950144572+948048109
1398+947069582+947890778+950451163+952948639+953186921+951084761+948847703
1388+948861768+951384289+954397202+956731650+959579872+964074879+969320280
1378+973251600+975051027+976179823+978174624+980240582+981057683+981312523
1368+982120722+983628217+986030618+989106736+991032693+990993998+991759110
1358+996028061+1003236333+1010621105+1015781639+1018061427+1017775015
1350+1015449884+1012641425+1012069549+1015011897+1019269750+1021450190
1341+1020832379+1019155683+1018225465+1019330522+1023116203+1029514495
1332+1037322893+1043559165+1044654371+1040478774+1034972243+1031292676
1324+1029520430+1029105588+1030655754+1034144221+1037504853+1038806589
1315+1039467249+1042834528+1049273177+1055126418+1057560986+1058292745
1307+1060655146+1065598229+1070919239+1073741823+1072945731+1069511983
1298+1065937936+1063517612+1061769936+1060658944+1060952360+1061687205
1290+1060046593+1055050216+1048839344+1043072394+1038323260+1036226263
1281+1036836715+1036024362+1029845894+1020477716+1013913724+1012862555
1273+1014853320+1015647275+1013541851+1010761166+1010072731+1010517009
1264+1008725653+1004177590+999466913+996578572+995319448+993852606+989983719
1254+983389876+976442556+971263803+967370406+962935281+957346850+951550997
1244+946413194+941889404+937489295+932600634+926813387+920552841+914806188
1234+909891948+905007204+899335923+893286893+888222384+884938193+882667544
1224+879999739+876532993+872693899+868537353+864319739+861559173+861643506
1214+863535516+864564964+863977717+863937835+866071687+868811184+869621223
1204+868706079+868381506+869606742+871287058+872680368+874695405+878242330
1194+882624516+886713109+890718555+895321634+899987384+903660542+906470900
1184+909054312+911546210+914279001+917764263+921406619+923851217+925086898
1174+926758965+930522984+936900148+945411224+954715544+962820028+969164848
1164+975464741+982643102+988696761+991419047+991751455+992297574+993725839
1154+995337371+997444101+1000188821+1001753349+1000566985+998372064+999029163
1144+1004247620+1011043899+1014082747+1011303250+1005778914+1001613881
1135+1000669301+1002849741+1007090739+1011670969+1014941867+1016999457
1127+1020048275+1025696173+1031426802+1032124258+1027205033+1022596790
1118+1023428610+1028119346+1031341104+1031946214+1033246644+1035566908
1110+1035899375+1034183747+1034668263+1039918649+1047122054+1053051380
1101+1057570719+1059762079+1055101374+1042600223+1031175286+1028871164
1093+1033126762+1035636227+1033027295+1029535267+1030023225+1034270039
1084+1037836014+1037039566+1032450078+1027913646+1026491197+1027665453
1075+1028961729+1027687175+1024059003+1019396161+1011936610+1002688196
1067+998787262+1004407622+1014320376+1018271875+1011514291+999590119+991775253
1057+993114378+1001880947+1012159402+1018830932+1019692425+1016076242
1048+1012334715+1010801048+1009260259+1005729180+1001949553+999776353+998053485
1038+995624080+993966732+994683595+997526594+1001053994+1003385652+1002999179
1028+999863713+994819620+988103757+980539992+975536789+977109982+984981289
1018+992787015+993775394+988624060+983439075+981771578+983050406+986203795
1008+990161585+992053476+988746257+980197851+970133286+962174323+956712599
998+951747498+945305941+937974345+932218374+929168310+927616363+925756580
988+922811027+918956443+914852005+911328700+908634782+906165437+903080357
978+898538050+892156969+885310066+880491317+878343221+876887893+874482881
968+871632522+869417719+868538243+869455049+871387949+872356091+871471511
958+869919446+869287154+870094107+871665223+872266120+870513637+867867791
948+867660251+870948479+875458500+879242935+883209152+888667434+894811421
938+900432434+906163004+913362492+922073689+930508266+935885597+936980980
928+936065065+936181268+937329115+937880338+938350491+940537994+944497742
918+948588709+951260193+951997412+950548612+946241145+939702139+933849372
908+931839735+934195132+938325625+940946782+940657402+938348177+936197410
898+936306136+939218988+943445208+946906553+948961532+950995145+955346590
888+962829286+970828190+974754941+972911122+968734457+966456271+967000609
878+968846268+970258925+970058389+968271188+966765473+968707632+975549965
868+983688396+986896325+983978250+980106456+979278434+979771912+977799011
858+972930588+968673091+968874043+974058494+980754238+984920457+985941715
848+985980410+986226644+986178513+986218039+987822745+990845213+992856096
838+992213122+990248411+989217182+990065145+993429812+999175515+1004988519
828+1008393780+1008558886+1005165020+997906895+989620214+985745986+990164255
818+1002649383+1017411093+1024722512+1020261096+1010598078+1003338649+999811249
808+1000077009+1005987937+1016886102+1027409427+1032755600+1033297802
800+1031908944+1029457759+1024862573+1018200064+1011766519+1008838296
791+1009918071+1012065157+1012508723+1010110714+1005398019+1000610546+997398403
781+995635178+995546869+997211932+997922207+995490013+992579713+991285158
771+988393731+981060591+971967847+966227010+965572700+966901320+965941725
761+961840432+957955877+958235643+964269896+974966813+986534541+994303709
751+996851097+996749494+997287541+999688281+1001476550+998138589+989515643
741+981727602+980182599+984643837+991589198+998178590+1002348608+1001217675
731+993934625+984738971+979280274+978894750+980324322+981044923+982542566
721+986878343+992507784+995619866+992520069+983032602+973242757+970362072
711+975452634+982590045+984784076+981930927+980733584+985869014+994479972
701+999204477+996747832+991903266+989335107+986492700+980254647+974438854
691+974552387+978965968+981069612+978469582+973470060+967103519+959244023
681+952055870+946865306+943635418+942996894+943630551+944678931+944246167
671+934982975+914976101+897179341+896225621+906717253+914774199+918810269
661+925013485+934877692+942973214+945169738+944634005+945250451+946013368
651+946516994+950188964+959491206+966532948+961742864+949465989+937963009
641+928514296+918621780+906820103+894689105+887308012+887755317+893221966
631+899149393+904496516+909404524+911357247+905868816+895336234+888879128
621+889360379+892344093+892430028+889026666+887286112+892206346+900623534
611+904346247+901303008+896781176+893041015+883742155+871142249+861674486
601+857498533+856075134
##END=
