##TITLE=<SNM>
##JCAMP-DX=4.24
##DATA TYPE=INFRARED SPECTRUM
##DATE=29/4/2025
##SAMPLING PROCEDURE=Instrument type and / or accessory
##ORIGIN=Admin
##XUNITS=1/CM
##YUNITS=ABSORBANCE
##RESOLUTION=4
##FIRSTX=4497.3318
##LASTX=599.83466
##DELTAX=-1.4281778
##MAXY=2.1911821
##MINY=0.51097405
##XFACTOR=1
##YFACTOR=2.0406974e-09
##NPOINTS=2730
##FIRSTY=0.52165866
##XYDATA=(X++(Y..Y))
4497+255627641+254906846+255743158+256829987+257201103+257104396+257166317
4487+257571490+258080935+258401230+258412796+258272657+258331569+258630513
4477+258585357+257683415+256381791+255716170+256117049+256965278+257250932
4467+256677258+256037312+256356000+257766716+259436741+260423065+260257280
4457+259026252+257275117+255661434+254580534+254212952+254566252+255280708
4447+255914755+256555899+257593367+258814669+259348620+258762124+257786694
4437+257585305+258309984+258886550+258524108+257808571+257833135+258683759
4427+259440099+259421932+258639888+257442128+256511562+256490123+256941240
4417+256565012+255059662+253723047+253730904+254838353+256035764+256802181
4407+257385961+258026170+258292752+257582414+256203242+255392429+256008074
4397+257515498+258530183+258386392+257758304+257426034+257152940+256418593
4387+255526698+255159115+255439191+256055275+256713447+257072734+256797362
4377+255960991+255033638+254421497+254254778+254465835+254789459+254788349
4367+254186227+253297632+252864186+253332565+254460052+255624544+256412517
4357+256806007+256887527+256666744+256190303+255496672+254558074+253685018
4347+253626164+254598936+255699989+255965168+255518753+255061882+254768020
4337+254244321+253258435+252121018+251377675+251261048+251628046+252397501
4327+253577941+254775322+255276473+254889146+254202028+253824632+253761309
4317+253628267+253295033+253160092+253820076+255450669+257407020+258669564
4307+258883249+258526532+257933669+256992500+256020780+255874185+256738011
4297+257628767+257480303+256333656+255220803+255027008+255702208+256506655
4287+256704305+255927752+254346082+252721242+251722417+251181076+250635471
4277+250391877+251207276+252945180+254450530+254965145+254903984+255112149
4267+256033193+257428897+258297367+257530190+255294085+253315683+253197420
4257+254865517+257013997+258566489+259283632+259317484+258712938+257465728
4247+255929184+254841741+254720966+255327704+255968614+256376650+256902656
4237+257704094+258286443+258206997+257688351+257013413+255956990+254451786
4227+253230513+253125744+254009840+254859033+254903692+254589939+255111740
4217+256847541+258729353+259559677+259434316+259151641+258746614+257554345
4207+255569692+253926626+253742587+254902436+256309150+257086462+257085703
4197+256469210+255538907+254961699+255417168+256811265+258257556+258947478
4187+258746527+257944885+256845058+255732818+254923582+254568705+254571422
4177+254885232+255750577+257336716+259165661+260298201+260348672+259982433
4167+260013511+260319289+260145823+259253665+258200308+257533578+257200315
4157+256959816+256950032+257353744+257766920+257597222+257078050+257154283
4147+258190933+259389511+259732530+259090159+258135700+257547072+257594973
4137+258182258+258844023+258931910+258319068+257799458+258288896+259703351
4127+261003252+261326555+260822309+260232570+259856839+259370643+258661473
4117+258154364+258034436+257888396+257511730+257392941+257986594+258992400
4107+259655713+259615990+259273234+259262865+259675370+259916657+259387058
4097+258295380+257614747+258001899+259008727+259721869+259829208+259598231
4087+259338894+259364246+259788054+260101076+259720496+258942717+258595288
4077+258924462+259445357+259664095+259519574+259300690+259324261+259595661
4067+259837503+259851786+259646454+259276389+258831318+258556354+258752310
4057+259437967+260169101+260359012+259872407+259173489+258796648+258814786
4047+258984747+259264238+259812910+260470528+260687339+260157739+259242624
4037+258595376+258528957+258837948+259143200+259331212+259568585+259934357
4027+260353462+260927574+261847071+262887809+263535584+263716556+263881757
4017+264212187+264260643+263667458+262714343+261806355+260950736+260197608
4007+260002470+260589901+261507586+262317290+263182868+264275685+265100635
3997+265006293+264080254+263007211+262242401+261796307+261579642+261552187
3987+261806092+262663317+264286287+266121512+267215030+267189268+266520902
3977+265941591+265895238+266362799+266953501+267267692+267180623+266736603
3967+266053837+265457118+265350889+265820144+266556273+267179951+267486781
3957+267468642+267340449+267486781+268120623+269019907+269723177+269890480
3947+269519860+268986523+268733990+268771494+268644001+267989392+266933027
3937+266069463+266298542+268169751+270892139+272504448+271938777+270396771
3927+269715233+270236157+270857498+270823646+270803989+271774599+273482127
3917+274484516+273652585+271519701+269735737+269367891+270243926+271843968
3907+274307720+278052738+282607897+286391323+287959587+286934299+283618289
3897+278985144+274945418+273466647+275054159+277773918+278814540+278353638
3887+279051271+281467004+282953252+282071989+280808978+280445105+279653860
3878+277985676+277381859+279185160+282623406+286223991+288652196+288539920
3868+286447490+284995007+285328240+285696787+284297812+282001043+280737622
3858+281653117+285613894+292882709+299176882+297556102+290103336+283040613
3848+279395399+279663090+282793981+286830261+290225776+292842343+294975957
3838+295905004+294709960+291973815+289086665+286898812+285651777+285325028
3828+285507373+285562868+286012846+288827006+294462072+299213304+299717814
3818+297875345+296088547+293811902+290471911+287413894+286308080+287983100
3808+291670373+295037995+297119384+299399826+302124201+303045683+301762693
3798+300314065+299092062+297163605+295074505+294416098+295598846+297746509
3788+300201615+303020915+306108665+309182367+312665944+317032537+321118236
3778+323245658+324218897+326586437+331850387+339627303+348101706+355020784
3768+359499272+362357828+364662308+367382505+371479187+376796412+381549864
3758+384471860+386886133+391016345+397797503+406133081+412835377+416133016
3748+418618878+423132591+428992120+432436705+432948137+434078953+438415753
3738+446363858+455974392+463504706+466189357+464324252+460525696+458050028
3728+459257661+464008105+469145350+471183512+469611130+466588864+464308889
3718+463219606+462797376+463524012+466616991+471084672+473219279+471635564
3708+468859959+467242042+467130087+467565987+467258427+465812019+464404487
3698+464859109+468347826+474564044+481937656+488862079+493879338+495037376
3688+491821928+486649575+482185252+480080584+481103564+484730231+490042695
3678+496861706+503464111+505317007+502457955+500658977+501441634+499959855
3668+493905742+487371275+483638904+481953370+480280249+478694577+478993959
3658+481667745+484912985+487568662+491169013+496888986+502107693+501642935
3648+495174011+487956982+483130744+480429298+478391866+475839644+472971537
3638+471405405+472615433+476469747+481751426+487897573+494568413+498647365
3628+496213756+489819371+485109204+484453777+487337335+492064646+496180576
3618+497731695+497497681+497562639+498647599+500526373+503389047+506758129
3608+508250423+506331984+503275661+502564856+505037837+508503714+510450601
3598+510493887+509588090+508301770+506926892+506445954+508432505+513541273
3588+519458283+521985182+520438795+518112789+517358522+517786535+518087436
3578+518087553+518481335+519390988+520353625+521504361+523868104+528134046
3568+533448087+537515064+538589976+537179581+534717583+532110537+529879281
3558+528363971+527779695+528454516+530581908+533645708+536686609+539180269
3548+540932164+541367480+540170420+538151857+536179617+534098724+531661785
3538+529460322+528112841+527579912+527974979+529884538+532998226+535105114
3528+534261062+531453124+528843216+527013745+525526883+524481822+524253883
3518+524721444+525325757+525636822+525637173+525317462+524302894+522485749
3508+520756461+520159625+520683616+521572240+522372655+523244922+524460675
3498+525718780+525960038+524799897+523905665+525181002+528220735+530500827
3488+529818470+526652267+523688650+522542646+522076895+521042057+520455619
3478+521305337+522239993+521494430+519457524+517635004+516631886+516340390
3468+516569556+516858247+516789317+516719334+517304487+518434193+519330995
3458+519521139+519022734+517752420+515744664+513692862+512426813+512106109
3448+512176325+511838448+510578532+508577727+506550694+505148944+504647268
3438+504995369+505570707+505343645+504188761+503272916+503360890+503773190
3428+503873198+504319029+505547283+506214627+504706735+501622607+499240754
3418+499180411+501372937+504092901+505039590+503520132+500936394+498647949
3408+496886591+496032609+496783721+498446414+498996459+497750388+496244717
3398+495710503+495742515+495855141+496374984+497114647+496896405+495329631
3388+493636912+493096155+493811751+495195683+496741369+497946432+498140315
3378+497228033+496268083+496361374+497349129+498225602+498570548+498811806
3368+499102017+499119717+498808652+498498755+498623298+499410161+500663125
3358+501963230+503093871+503964619+504112412+502832109+500219514+497796712
3348+497321031+498924783+501084420+502513041+503372165+504430662+505703078
3338+506350444+505871258+505086556+505190244+505824700+505458549+503992951
3328+503158304+503907313+505282892+506022438+505728372+504382761+502205306
3318+500113781+499330014+500320982+502299180+503817060+504094770+503727217
3308+503701222+504066146+504233040+504352267+505445580+507775150+509822863
3298+509798387+507902906+505968520+505240190+505697821+506884132+508264910
3288+509310672+510059857+511102523+512623441+514036523+514743707+514749256
3278+514371247+513714593+512573729+510798410+508739014+507166339+506683648
3268+507314424+508595778+509891969+510504928+509910254+508401545+507009609
3258+506351612+506098320+505860451+506023022+507362500+510044844+513132478
3248+514985724+514459980+512032155+509464306+508180207+508203631+508629893
3238+508659101+508069742+507208340+506800831+507385866+508536018+508907193
3228+507656332+505617031+504427916+504508822+504614730+503750758+502576247
3218+502142333+502212433+501832145+500837263+500023820+500221909+501288058
3208+502039229+501687332+500731004+499938591+499434345+499075437+498761977
3198+498143002+496804342+494934389+493197390+492065523+491715027+492051736
3188+492570645+492638934+492098469+491380595+490815129+490200126+489354292
3178+488653739+488546575+488840582+488955837+488544296+487575000+486200356
3168+484689690+483130364+481282959+479092098+477027678+475630836+475081200
3158+475231300+475596984+475375646+474120842+472489810+471549809+471506173
3148+471848227+472218409+472404114+472129529+471451087+470727196+470051878
3138+469360379+468813197+468433493+467813613+466720650+465446160+464290575
3128+463306471+462577557+462236816+462245462+462457833+462755112+462955742
3118+462858158+462396204+461507902+460207271+459139427+459288680+460565302
3108+461661244+461852498+461753833+461764582+461203467+459645426+457845017
3098+456687972+456101681+455508408+454869221+454603107+454709132+454741319
3088+454560492+454403908+454355745+454380221+454508794+454490890+453871564
3078+452757805+451777001+451215215+450883909+450574509+450107503+449427512
3068+448921279+449027041+449583862+450097835+450300334+450046779+449247123
3058+448223296+447543480+447439646+447663963+447655171+446896290+445499944
3048+444262548+443848116+444190813+444777222+445110368+444878311+444032710
3038+442818856+441692158+441061266+440858942+440507687+439669915+438707278
3028+438036634+437529466+436801604+435717812+434546310+433836497+433956162
3018+434591115+435020326+434963575+434782456+434824224+434948270+434769371
3008+434145459+433349776+432810684+432654012+432501225+431893378+430906324
2998+430023717+429446246+428982131+428531452+428144388+427692307+427022247
2988+426354231+426047635+426038201+425862719+425172155+424044231+422903046
2978+422188443+421966901+421853924+421463939+420902270+420568510+420475308
2968+420156065+419422243+418817959+418986957+419781940+420328333+419996472
2958+419021189+418048534+417406484+416995031+416619241+416186175+415679299
2948+415201574+415002609+415184020+415402145+415108517+414135921+412972275
2938+412427692+412952793+414162850+415075074+414926522+413745702+412225281
2928+411241001+411245090+411706050+411445924+409985496+408178223+407094958
2918+406807989+406641533+406187816+405676677+405518282+405766696+406051006
2908+405970012+405450461+404680539+403869229+403213568+402934398+403071997
2898+403293890+403209333+402915763+402875164+403153984+403209011+402632358
2888+401720427+401057493+400891650+401089009+401336430+401251610+400633189
2878+399793577+399404935+399770356+400327703+400151491+399013285+397659116
2868+396922578+396858496+396892991+396592207+396043477+395572293+395348327
2858+395303697+395267742+395145390+395023563+395014713+394954369+394501295
2848+393627130+392726473+392181072+392032929+392070403+392090381+392075193
2838+392079457+391950621+391424147+390554918+389731691+389258989+389193651
2828+389443087+389712501+389522503+388636567+387418770+386517178+386193875
2818+386123921+385888476+385523113+385425705+385798019+386320754+386398243
2808+385723801+384613869+383724340+383428463+383561914+383727874+383673693
2798+383369375+382908912+382419006+382001128+381725930+381606878+381473077
2788+381008144+380181938+379474462+379279820+379315162+379073787+378571556
2778+378110742+377626298+376852900+375919384+375257794+375029914+375013236
2768+375006080+375058946+375242957+375407806+375303388+374827298+374083283
2758+373305182+372719154+372357909+372072431+371792034+371646929+371749858
2748+371918797+371721351+370892136+369666774+368548430+367839055+367576125
2738+367722107+368117641+368419535+368369326+368037874+367693162+367526472
2728+367523726+367521944+367379205+367061568+366565909+365906772+365221232
2718+364714532+364416581+364114308+363660971+363245721+363142091+363261639
2708+363273790+363114986+362951363+362731719+362312468+361920029+361894940
2698+362055613+361859131+361133108+360248574+359638244+359426252+359470882
2688+359586020+359707029+359834492+359867205+359637046+359092960+358316466
2678+357428310+356614780+356128671+356083750+356296939+356463833+356469645
2668+356421394+356402584+356357779+356230374+356016717+355660380+355104581
2658+354490630+354129707+354200448+354540371+354796291+354774531+354566191
2648+354316813+354038315+353720941+353456901+353332358+353289422+353168647
2638+352863366+352426473+352026323+351799085+351780655+351921584+352081672
2628+352092012+351914252+351654856+351385062+351059685+350635731+350191040
2618+349902086+349897091+350108440+350311640+350338248+350194282+349962663
2608+349689568+349411187+349191923+349036828+348842712+348545346+348272222
2598+348215266+348342058+348369806+348104451+347721505+347592085+347869911
2588+348335516+348617168+348521337+348150600+347707661+347273630+346863375
2578+346562445+346415383+346297354+346129116+346051101+346182888+346430659
2568+346668558+346863112+346951087+346826865+346503387+346174797+346112175
2558+346469126+347136002+347818447+348233609+348192805+347658416+346853211
2548+346191504+345999462+346292125+346751041+346948458+346728405+346343415
2538+346138871+346177309+346230701+346085888+345808412+345661700+345756480
2528+345924747+346000425+346036731+346167904+346410476+346647411+346706324
2518+346495121+346149620+345965230+346108991+346467256+346825668+347131913
2508+347491989+347919360+348217807+348196982+347898652+347511325+347177857
2498+346995687+347065786+347378808+347714525+347811554+347638234+347390784
2488+347273017+347391864+347770721+348283175+348625083+348559512+348172418
2478+347730180+347373931+347135710+347129927+347472770+348018171+348395246
2468+348417561+348297458+348318867+348463943+348557555+348588982+348630136
2458+348629698+348533955+348420978+348354968+348296289+348228819+348198968
2448+348222452+348292609+348455444+348760725+349120188+349296633+349143408
2438+348829861+348700148+348929255+349397956+349816243+349930417+349759288
2428+349615146+349741500+350038136+350299051+350534613+350857508+351214166
2418+351436351+351485947+351501982+351625327+351875172+352205339+352600406
2408+353061512+353521158+353833801+353908398+353859883+353953816+354332322
2398+354840249+355179091+355228014+355187590+355366665+355801922+356158756
2388+356091899+355631669+355072394+354503569+353633726+352175196+350241745
2378+348174404+346106100+343932851+341590868+339121362+336619349+334324595
2368+332551904+331388229+330628734+330017382+329470579+329250964+330001434
2358+332317744+336115715+340659893+345346780+349976332+354023769+356457057
2348+356641768+355101222+353299032+352329298+352051355+352093619+352590797
2338+353523904+354495653+355285963+355978192+356673926+357503491+358682646
2328+360204674+361596259+362320850+362512134+362959337+364137879+365653831
2318+366904488+367841684+368813784+370001468+371215498+372134556+372689303
2308+373156894+373811590+374604704+375277802+375651430+375742092+375697228
2298+375623945+375480885+375236940+375039757+375039786+375180101+375343987
2288+375565529+375937435+376399184+376745619+376864437+376890345+377027856
2278+377284477+377533592+377741699+377930616+378008017+377832886+377433964
2268+377061036+376978728+377210143+377550153+377836742+378063980+378229180
2258+378292912+378293000+378264522+378073502+377576791+376919524+376441301
2248+376290413+376316321+376348595+376411013+376629109+377060832+377619376
2238+378073911+378212502+378091786+377980796+378012457+378100577+378212415
2228+378468072+378904907+379327371+379490176+379340398+378967792+378387283
2218+377561311+376628583+375895258+375532583+375431144+375392355+375341329
2208+375312209+375318255+375307156+375237670+375151594+375125482+375165672
2198+375201043+375226805+375413765+375957062+376809176+377697274+378416900
2188+378970420+379440377+379880482+380294535+380625724+380823374+380946924
2178+381138324+381505819+382041026+382580994+382908240+383006671+383118537
2168+383423994+383805334+384048636+384136757+384238254+384497417+384906387
2158+385326660+385599989+385677828+385653877+385660625+385772228+386006710
2148+386328611+386645401+386909295+387217585+387695077+388284611+388768412
2138+388992934+389005142+388997782+389155301+389505475+389914416+390260443
2128+390545308+390789049+390974578+391206869+391699783+392434539+393091076
2118+393517103+393983467+394756106+395697508+396492900+397039147+397441633
2108+397805360+398181997+398627331+399165547+399715328+400204854+400757352
2098+401537468+402407515+403050149+403452460+403907988+404539639+405183354
2088+405708922+406121602+406412689+406581890+406701964+406802206+406864682
2078+406996410+407342262+407794255+408079500+408144780+408208103+408486280
2068+409077245+409975098+410990747+411783159+412150567+412218417+412236818
2058+412292634+412346231+412475944+412902146+413710769+414683366+415518597
2048+416154221+416751174+417407272+418050111+418628750+419258737+420093822
2038+421133042+422211518+423137235+423824382+424354974+424932007+425738936
2028+426815688+428073530+429411576+430750879+431986756+433077382+434191462
2018+435534123+437019437+438393059+439647833+440993912+442487404+443986182
2008+445412262+446841642+448369511+450033051+451857499+453851615+455857385
1998+457548293+458852546+460248045+462214531+464487583+466361129+467665353
1988+468773416+469779718+470472678+471027717+471982876+473481742+475091744
1978+476491507+477928890+479807139+482087230+484369074+486512619+488820954
1968+491423005+493858075+495669437+497090697+498699589+500731939+503053973
1958+505460418+507725614+509666017+511423753+513431509+515878145+518474266
1948+521014835+523907301+527641599+531748708+534895518+536481219+537486265
1938+539146622+541645364+544433558+547086577+549504530+551780708+554152513
1928+556821479+559815472+562989328+565921868+568187939+570064026+572225417
1918+574555337+576282580+577427299+578830333+580859353+583151070+585256673
1908+586848741+587714641+588111928+588771269+590148191+591857501+593198205
1898+594137534+595284064+596961186+598934185+600933938+602719597+603904506
1888+604529207+605254090+606315450+607121882+607225162+606948737+606919529
1878+607526997+608694264+609908498+610914713+612342691+614864275+617624136
1868+618460653+616603493+613768274+611874955+611313636+611219820+610651900
1858+609562851+608684392+608460075+608475380+608194282+607741091+607597505
1848+608113727+609417921+610913487+610945382+608494248+604639379+601016714
1838+598457102+597081172+596676525+597212024+598890139+601141198+602196658
1828+601044987+598695848+596225729+593578844+590767926+588549171+587414500
1818+586893546+586228422+585399792+584989537+585124010+585095386+584233225
1808+582772301+581586982+581492874+582790877+584895487+586424116+586340406
1798+585170334+584627475+586215454+589962370+593481698+593652156+590869628
1788+588354997+587949648+589150155+590773709+592284638+593393139+593752514
1778+593833245+595063894+598604076+604116381+609242264+611367495+610611301
1768+608727912+606925663+606272573+607712292+610767972+613596064+615339021
1758+616605479+617473248+617823568+618937210+622346132+627371715+631071840
1748+631824296+631176112+631205437+632515824+634532226+636168048+636397389
1738+635794595+636837612+641188315+646379858+647557582+644926528+641950001
1728+640240692+639972095+641064590+643301337+646633617+651613753+658693124
1718+666392172+670633871+669162373+664804192+661265763+660138276+661395797
1708+664412455+668070228+670840780+672622233+675431924+680597297+686051828
1698+688910705+688874721+685930265+681110306+677731585+677867870+680732004
1688+684814987+690368183+697572740+702249112+700305088+695360644+692327571
1678+692838711+696135298+699687047+701449690+702712760+705459069+708129204
1668+707430257+704381003+702643537+703082767+703545246+702566720+701739842
1658+703447691+708941536+718493889+729400732+733688171+730809316+729343134
1648+732014028+734388462+731083696+724263049+719147505+717554736+719268660
1638+723833516+729695207+732877358+731150816+727781150+726054841+726231959
1628+727053228+727859193+729025410+730113757+729691644+728336685+728809037
1618+732272636+735952958+736047942+733462919+731202222+730134028+729845336
1608+730150851+731028843+732283151+733782980+735333340+736422330+736934813
1598+737663961+739293766+741487987+743579862+745418621+746977860+748074210
1588+749051451+750869764+753951907+757588476+761023801+764719487+769936382
1578+776947348+783095160+784124333+780886570+778302365+778484623+779736184
1568+779581499+778165204+777082464+777488455+780647824+787791920+796752110
1558+799204412+793172088+785877279+780565340+776982807+774431490+772646473
1548+772419703+775223552+781465589+789525355+797064518+802087298+802014745
1538+797037764+791721678+789153713+789035128+789190807+788655308+789041671
1528+792278616+798637777+806607641+814654556+822007548+827316039+829568442
1518+830004692+830195303+830582835+831738419+834961169+841306369+851088529
1508+863080332+870959243+867816347+859744723+855633992+857640989+863608354
1498+869315242+871717131+872024983+873504251+877735318+883729321+888560963
1488+890214485+890179786+890701791+892053537+893890309+896807953+901353999
1478+906631005+911632696+917262650+924554305+931222428+934026044+934505230
1468+936705642+942125767+948095235+949998018+947989619+947466796+952314035
1458+960753622+965562073+963815202+960547647+958912059+958213871+956804645
1448+953541296+948324284+942721492+939418187+939940426+943328142+947642161
1438+951764925+954584546+954860387+953462259+952322564+951762764+950864618
1428+949449492+948561686+948990927+950375794+951728999+952198079+951157866
1418+948408519+945058832+943406127+945045747+949045662+952251822+952504588
1408+951050615+950263986+950505185+950774716+950922041+951512685+952723589
1398+954508956+956744652+958372588+958114331+956812765+956308986+956465949
1388+955922798+955082543+956342341+961183271+969016092+978024825+985441081
1378+988633981+987807629+986397234+987357358+990576662+994228477+996565933
1368+996368954+994351968+993470121+995835383+1000382715+1004126360+1005361974
1358+1004417388+1002225388+1000326986+1001048890+1005331364+1011105197
1350+1015782796+1019220225+1022092070+1023700846+1024157425+1025971707
1341+1030314233+1034643206+1036375940+1036570465+1037651394+1039973311
1332+1041561875+1040660750+1038303082+1036884976+1037118290+1038312546
1324+1039752265+1040296118+1039378403+1039000218+1041988428+1047829556
1315+1052307490+1053104634+1053033717+1055088089+1057882008+1058096161
1307+1055849249+1054222131+1054706399+1057220505+1062175931+1068838388
1298+1073567510+1073741823+1072004299+1072159101+1073100766+1070841821
1290+1064988893+1058520494+1052496758+1045505069+1037229864+1029593614
1281+1024629893+1023178607+1024587600+1027070161+1029263213+1031295738
1273+1033032678+1032316031+1027811226+1021667269+1017532004+1016794911
1264+1017432229+1016791874+1013731812+1008718672+1002950446+997231641+991814613
1254+987300111+985380562+986599703+988474622+987679814+982977797+975305913
1244+966760009+959172068+952630416+946327451+940655437+936502004+932978295
1234+928065455+921536420+915347133+910663166+906523403+902064104+898304745
1224+896561671+896002046+894367685+890748875+886011633+881331989+877779247
1214+876070172+875525968+874284629+871609938+869320500+869606446+872410587
1204+876005213+879269321+882097179+884488612+886859540+890400131+895818795
1194+902125616+907314296+910256357+911525970+912673668+914878812+917790322
1184+920072107+921365729+923004822+926527187+932132432+938340588+942942655
1174+944708628+944320571+943669817+944723699+948644520+955264099+962860861
1164+969244732+973873378+977567896+981192489+985352172+989819124+993346746
1154+994934959+994925963+994104985+993322445+993063078+992598087+991689018
1144+992138821+995319804+999844704+1004636448+1011439103+1020617535+1027982385
1134+1029279453+1025881864+1022944593+1023374184+1025993672+1028550655
1125+1030452679+1032287641+1034234644+1036669655+1040350211+1044540738
1117+1046647918+1043834956+1036733562+1029928921+1027228702+1029312282
1108+1035141143+1042677152+1048508583+1050132080+1049396506+1050158834
1100+1052393712+1052911744+1051450878+1051694005+1054390252+1054948709
1091+1050281741+1043213177+1038842378+1039897955+1044647055+1047618908
1083+1044642732+1038326332+1035112519+1038238941+1046324411+1055110404
1074+1058506825+1051919608+1035575641+1018246548+1010762880+1014699998
1065+1021889016+1023852844+1021760151+1022048024+1026828903+1032656362
1057+1034389447+1030700012+1025598196+1022477499+1020470910+1017340516
1048+1013433774+1011351245+1011726743+1013532614+1015641196+1015956409
1040+1013538222+1009561497+1005878020+1004175896+1004314459+1004343667
1031+1003812315+1004705612+1007803995+1010678877+1009986064+1004911821
1023+998136154+993577723+993022538+995321439+998775808+1002860486+1007136651
1013+1010336677+1011989381+1011963327+1008597751+1001720557+995517483+993714300
1003+993707056+989438018+980523509+972492542+968210360+965084698+959777433
993+952272969+944995392+940117368+937958781+936737245+934157480+930076132
983+926217524+923081639+919341382+914379648+908969103+903839774+899701587
973+897514552+897577057+898704368+898891942+896817066+892954778+889330710
963+887706104+888003149+888654896+888421524+887139470+885031296+882629290
953+881134893+881696796+884063402+886787572+889292331+892371261+896031313
943+898539285+898764128+898510077+901182081+908631050+919079912+927859188
933+932133250+934343126+938748448+946499252+955371818+962504699+966759074
923+969172880+971425399+974245780+977547333+980368473+980515798+976773789
913+970616981+964076029+957941945+953348699+952034106+954124170+957901463
903+961018188+961416526+959234982+957335704+957901229+959651897+960045621
893+959761252+961700077+965864901+968928935+969324703+969006103+969716791
883+971992443+976881216+984261897+991394719+995443295+996351079+995785613
873+995187900+994566004+993004312+991061164+989646913+987719537+985712248
863+986430414+989849500+993330156+995278445+996221512+996675638+994849555
853+989844126+984602696+982503810+983813496+987158043+991689486+996510671
843+1000050211+1001995579+1003850169+1005949638+1007387956+1008931422
834+1011266308+1012612913+1011919632+1011665990+1014938335+1021180664
825+1025710471+1024052626+1017645097+1012166264+1010437853+1010450354
817+1009695153+1009037740+1011097953+1016959527+1025084836+1031692265
808+1033859614+1032708236+1031017678+1029831834+1029459958+1031218862
800+1035889452+1041844374+1046149397+1045551568+1038299928+1027106613
791+1017179055+1012183556+1013237730+1019103510+1026623746+1031945440
783+1031675441+1025572025+1018522154+1015041965+1014056605+1011451487
774+1004556067+995160795+988635499+989066960+994851658+998703022+996154685
764+991649295+991538072+995007278+995331721+989607775+983601913+984663331
754+992865165+1000824339+1003500141+1005330663+1011270631+1017409447+1017122858
744+1012023029+1009330637+1011989731+1018000733+1025262888+1030420667
736+1026671063+1013349655+1001779907+1003791753+1020324286+1039210516
727+1043028816+1028025028+1009117536+1000827377+1005019189+1012958268
718+1015022104+1009645382+1001906670+996721787+996291612+1001451493+1012318029
708+1026827735+1039000919+1040015487+1025614202+1004254875+988957255+984618000
698+986086928+986974967+989611747+999730559+1015574952+1026631224+1021751739
688+1003536358+986230398+980457850+985525551+991619270+989754866+981370657
678+973801877+971482705+975042807+984389945+996046615+997209093+977638579
668+948355361+934367835+942781486+957616802+965832013+968037391+973503430
658+988044330+1005623677+1013719545+1005421325+984994783+964091627+950608990
648+946192802+947249138+946549256+940543454+933905181+931763827+932612494
638+934346572+940050481+949848531+956524307+955716531+956297010+969402280
628+990119382+996174195+975494421+945297928+925393509+920567825+922785645
618+922143888+921507680+929055488+940075834+939592208+927469612+922112927
608+931784039+938944667+928536813+915279370+911484903+910009200+900239540
##END=
