##TITLE=<SNM>
##JCAMP-DX=4.24
##DATA TYPE=INFRARED SPECTRUM
##DATE=29/4/2025
##SAMPLING PROCEDURE=Instrument type and / or accessory
##ORIGIN=Admin
##XUNITS=1/CM
##YUNITS=ABSORBANCE
##RESOLUTION=4
##FIRSTX=4497.3318
##LASTX=599.83466
##DELTAX=-1.4281778
##MAXY=2.0918326
##MINY=0.4472028
##XFACTOR=1
##YFACTOR=1.948171e-09
##NPOINTS=2730
##FIRSTY=0.46341044
##XYDATA=(X++(Y..Y))
4497+237869492+237914161+237743318+237621916+237568069+237247079+236521514
4487+235629971+235002403+235165735+236304962+237729275+238370045+238056352
4477+237709938+238013351+238523464+238500533+237975030+237456213+237145396
4467+236938053+236951606+237633252+239131253+240714294+241256272+240517199
4457+239551003+239503719+240207041+240286114+238876043+236813607+235655548
4447+236023180+237401325+238968471+239961468+239833902+238814027+237906987
4437+237885692+238545569+239150467+239177849+238476700+237331751+236488961
4427+236580640+237393737+237986182+237765943+237080060+236558688+236316083
4417+235926239+235078447+234167185+233932795+234521920+235346935+235799835
4407+235721925+235314764+234902815+234727214+235000368+235945667+237222970
4397+237637015+236489175+234887196+234409238+235062782+235758960+235987017
4387+235833077+235240280+234361617+233782267+233652207+233444894+232959853
4377+232791564+233436740+234476456+235011352+234661511+233775918+232752203
4367+231704349+230801286+230283952+230095302+230023297+230099525+230448585
4357+231120501+232303923+234000808+235473201+235802834+234926526+233682220
4347+233088766+233546210+234361709+234406271+233482878+232430311+231935190
4337+232000388+232324467+232553121+232410975+232005482+231870267+232443758
4327+233418857+233819103+233065988+231794069+231085057+231155502+231435830
4317+231640237+231996518+232459698+232527895+232217155+232443620+233663557
4307+234792198+234501850+233065896+231874412+231618331+231757401+231502344
4297+230759983+230000366+229569769+229550081+230051704+231080100+232172624
4287+232681926+232454267+231928964+231589357+231526591+231546447+231546539
4277+231688287+232219572+233231370+234470980+235330276+235326268+234609071
4267+233708395+232993003+232621638+232650214+232962775+233389425+233882068
4257+234314959+234353662+233862411+233296920+233436694+234598944+236039549
4247+236411234+235222336+233582893+232996995+233670028+234541532+234813018
4237+234719229+234714777+234688649+234335412+233805534+233568406+233831173
4227+234418952+235124844+235796715+236120412+235814276+235114794+234618800
4217+234518479+234479531+234364080+234489413+235078600+235827968+236126990
4207+235730002+235103856+234861772+235047546+235327629+235601334+235883926
4197+235902237+235502924+235122993+235224019+235673753+236025230+235970771
4187+235472666+234885223+234836944+235476429+236146433+236271598+236007684
4177+235707591+235528471+235759694+236689314+237978855+238781795+238652790
4167+238011898+237557161+237457987+237328661+236873543+236217230+235604791
4157+235146796+234879548+234859217+235167280+235783620+236417705+236638189
4147+236294636+235706979+235416646+235755182+236482796+236920812+236698079
4137+236243404+236278329+236968571+237777202+238102230+237953491+237840718
4127+237985525+237955495+237254315+236092601+235310083+235484644+236317659
4117+237099549+237589852+238008838+238280309+237891077+236617201+234899542
4107+233340793+232246878+231821391+232321913+233628511+235040432+235931777
4097+236373311+236799411+237297592+237478930+236930450+235706367+234347849
4087+233388598+233025954+233300637+234123678+235017134+235404087+235322459
4077+235320485+235605908+235847916+235772024+235385653+234725057+233988218
4067+233742187+234309345+235152900+235559663+235598810+235675634+235602894
4057+234946153+234035472+233885158+235029219+236856776+238268239+238736636
4047+238536559+238205565+238013137+237788323+237198555+236289450+235575542
4037+235462936+235813190+236229009+236614906+237230221+238118262+238774008
4027+238747987+238311914+238018781+237948198+237888109+237904172+238220756
4017+238756049+239117164+239014593+238562106+238117298+237886977+237814926
4007+237724150+237450124+237089116+237140379+237967443+239111748+239657352
3997+239328592+238746748+238563299+238815557+239237770+239703689+240134148
3987+240375819+240417597+240384646+240221038+239825809+239482379+239636257
3977+240350486+241332974+242195544+242474786+241877293+240727771+239765629
3967+239385361+239423758+239672956+240175313+240921193+241606311+241916164
3957+241899490+241906787+242225114+242858725+243623574+244262401+244384874
3947+243731606+242824780+242684929+243449472+244028287+243664189+242898331
3937+242549867+242901604+243927843+245312459+246270623+246210672+245488182
3927+244887339+244725796+244777747+244816985+245063215+245966262+247510508
3917+248823837+248794160+247277786+245323381+244083634+243886784+244533322
3907+246145749+249010590+252483801+254997195+255780830+255299307+253755169
3897+251181639+248732373+247981949+249166258+250607552+250432302+249248498
3887+249216802+251011209+253148696+254414311+255250829+255518721+254109048
3878+251725622+250600928+251624642+253916084+256563087+258813179+259172061
3868+257465217+255904449+256002125+256593285+255773502+253640635+251803303
3858+251771469+254713960+261107543+267677858+268073545+263023902+257450592
3848+253764699+252530168+253553913+255942296+258602715+261364879+264498621
3838+266759788+266086664+262873007+259521091+257517014+256692474+256430212
3828+256456723+256760671+257937423+261113172+265819904+268515799+267163492
3818+264454074+262717522+261118465+258494225+255770978+254618519+256028283
3808+259512616+262981834+265361558+267838452+270478510+271007746+269154228
3798+267453289+266897099+266548529+266120930+266389434+267665497+269533517
3788+271675271+273886875+275701658+277170717+279514246+283616234+288260246
3778+291479227+293478071+296196269+301089051+308412803+317099020+324993158
3768+330704728+334651109+337585034+340241552+343973032+349557785+355800150
3758+360963087+365414136+370980684+379037803+389835608+401376997+410225185
3748+416298115+422508294+429693878+434473274+434990333+434457548+436189664
3738+441430251+449223181+456196985+459023399+457763856+454878058+452384734
3728+451101572+451012907+451520818+451901605+451565150+450010823+447434831
3718+444814293+442914240+442190266+443476855+447054135+450671312+451297198
3708+448962908+446068695+444823226+446086532+448828258+451031998+452398043
3698+454468725+457942930+461995690+466038629+470500722+475355994+478771824
3688+478835676+476365910+473573764+471743193+471053180+471237791+472543807
3678+475824559+480274292+481945737+479340772+476190233+475111233+474549995
3668+471811971+467312490+463591443+462250395+462834029+463810107+464464721
3658+465171164+465863533+465840984+465769820+467791305+473029261+478704270
3648+479766963+475999013+471276433+468361813+467365450+466684922+465339988
3638+464234248+464667292+466670328+469349609+472149497+475124909+477968608
3628+479166165+478147927+476792927+477224258+480410288+485829123+491503856
3618+495154075+496227507+495964327+495772373+496734224+499641562+503664523
3608+505774519+504236194+501077914+499151427+499375965+501194971+504074957
3598+507888677+512419212+516766022+519604276+520896922+522268137+524789853
3588+527524389+529006848+529138775+528233157+526552442+525008486+524295068
3578+523981345+523442931+522816892+522781891+524078148+526867572+530093467
3568+532014783+532123029+531803799+532063001+532440974+532528599+532633540
3558+532956503+533453001+534222348+534899358+534467476+533098342+532727651
3548+534369021+536465954+536951254+535929314+535008338+534888344+534988757
3538+534714930+534038410+532986241+531585349+530559125+530851248+532086621
3528+532777705+532212550+531074715+530152271+529429001+528931523+529206268
3518+529946549+529657547+527452001+524232960+521705002+520916075+521820591
3508+523678147+525689229+527323073+528294164+528371264+527332741+525402430
3498+523669458+523362098+524399826+525582452+526336868+526915668+527018223
3488+526099266+524954455+525013871+526166208+526635599+524900730+521574606
3478+519023151+518773494+520082295+521245707+521510172+521154717+520488599
3468+519629364+518850655+518537177+518880088+519746605+520616426+520524089
3458+518609810+515233020+512002750+510229453+509817000+510059313+510805499
3448+511966556+512535137+511551532+509737207+508614670+508291463+507859122
3438+507580400+508466681+510010545+510509001+509486235+507998514+506857283
3428+506108282+505776539+505912718+506185627+506034364+505143677+503728161
3418+502512125+502258888+503019882+503963529+504189046+503475383+502053166
3408+500375571+499347481+499749288+501116587+502068556+502093705+501972823
3398+502202838+502397178+502450108+502985401+504401652+506291088+508037706
3388+509327201+509956208+509934822+509725979+509609503+508987472+507170883
3378+504772191+503438455+504160226+506474629+509224249+511455769+512494873
3368+512068101+510825998+510030493+510405376+511776652+513777485+516122605
3358+518244748+519615902+520495758+521520207+522618942+523163719+523019004
3348+522632220+522231912+521641058+520698666+519465129+518387200+518335861
3338+519762698+521750956+522719294+522233259+521237630+520504753+519976619
3328+519586041+519647293+520112278+520243470+519696490+519175882+519133171
3318+518675773+516968379+514897085+513977944+514484356+515685523+517035872
3308+518266410+519001673+519014584+518579460+518211889+518211094+518578419
3298+519260692+520161842+520948567+521129507+520536083+519630404+519112305
3288+519424193+520609328+522223407+523413804+523529944+522851587+522490564
3278+523353960+525221245+526946324+527568936+527146478+526458209+525900152
3268+525160789+524226718+523901492+524738025+526235537+527553394+528254696
3258+528037226+526723591+525038714+524215459+524330987+524211237+523417843
3248+523074565+523956073+525066617+525089441+524149435+523328933+523223992
3238+523409093+523056820+521921371+520729077+520433222+521075231+521667554
3228+521389505+520627562+520265866+520273087+519901049+518976340+518051509
3218+517550054+517429999+517320774+516768837+515823140+515185353+515146619
3208+514935084+513731837+511690159+509606749+508145309+507486687+507465699
3198+508117804+509801090+512175276+513626773+512689581+509740359+506748089
3188+505377027+505630263+506477321+507199796+507566755+507382602+506753565
3178+506107211+505304088+503746365+501565969+499567522+498135759+497126363
3168+496405663+495801867+495094812+494424105+494060144+493705179+492730967
3158+491106975+489609280+489149985+489982419+491391877+492235264+491889355
3148+490522424+488678177+487064923+486367965+486618662+487068074+487165948
3138+487038734+486733975+485955878+484792099+483745040+482952992+482177741
3128+481436664+481060282+481265056+481885006+482338916+482016045+481046239
3118+480206218+479727617+479024112+477909621+477032151+476681653+476273666
3108+475511540+475003323+475148161+475319555+474745467+473547482+472377859
3098+471595326+471305161+471612398+472341512+472882343+472721657+472026841
3088+471414906+471266183+471386606+471274444+470757997+470170386+469631666
3078+468656016+467045119+465593684+465188267+465757674+466621437+467249801
3068+467354069+466935833+466418009+466124357+465776979+464952470+463638437
3058+462067222+460540797+459453200+458878653+458280364+457221863+456133500
3048+455783522+456276533+457151892+458136842+459117693+459641972+459222879
3038+458037928+456687365+455451870+454382538+453814997+454038067+454569872
3028+454514556+453747321+453134040+453338202+453935022+454037241+453369409
3018+452253144+450868222+449183652+447538457+446648015+446824580+447511717
3008+447874576+447792397+447854016+448284918+448430521+447609836+446077384
2998+444758732+444237665+444270372+444269270+444135783+444300141+444836994
2988+445055230+444301732+442766404+441209140+440221650+439866134+439744334
2978+439436057+438980618+438760883+438966880+439487029+440106031+440417765
2968+439897249+438526799+437046482+436189021+435917887+435669546+435082608
2958+434246411+433434568+432857787+432609844+432666567+432898295+432995710
2948+432433065+430967739+429272950+428425127+428590647+428913854+428861353
2938+428800530+428942185+428777767+428107243+427630754+427846939+428181191
2928+427864562+427071015+426527277+426366561+425959308+424880644+423690278
2918+423415502+424301937+425434356+425698454+424803177+423302545+422029326
2908+421507893+421583585+421644837+421245080+420341421+419202699+418435341
2898+418643480+419675517+420657041+420958556+420623294+419863371+418783698
2888+417598104+416666848+416231264+416146852+415986472+415560740+415156333
2878+414996626+414839581+414470787+414046891+413645788+413163088+412804237
2868+412920712+413364893+413634437+413484153+413024277+412518172+412171773
2858+411823875+411068266+409932787+409006396+408754108+409144808+409847304
2848+410391072+410399149+409932267+409331408+408760777+408243321+407912985
2838+407821138+407714575+407306925+406583288+405791087+405271764+405123286
2828+404985607+404416139+403453676+402575319+402158551+402168281+402271601
2818+402155308+401784372+401357478+401074075+401036718+401185410+401128014
2808+400339209+398819822+397264148+396366057+396191604+396277301+396128731
2798+395605125+394921781+394301158+393744326+393262176+393083072+393326151
2788+393635407+393476863+392779782+392064038+391930551+392476369+393120520
2778+393081726+392198167+391075080+390232733+389528157+388669564+387793777
2768+387223177+387052609+387166667+387373093+387465307+387348189+387089751
2758+386782392+386451750+386133376+385926737+385855419+385690113+385117861
2748+384185381+383324647+382840295+382618908+382395135+382118799+381982895
2738+382115739+382305491+382162795+381519898+380500834+379327907+378256310
2728+377507310+377091429+376858722+376709510+376578470+376358950+376030633
2718+375716818+375519082+375400923+375240635+374935999+374494908+374052440
2708+373750650+373559460+373273793+372818720+372471771+372476574+372516868
2698+372034872+371066473+370268184+370092323+370333810+370498902+370309885
2688+369810908+369229814+368832749+368760606+368909911+369037339+368974160
2678+368684699+368203743+367622802+367055751+366578894+366286098+366247304
2668+366276186+366051464+365600093+365258039+365112498+364929508+364598590
2658+364225085+363889455+363652557+363626276+363837076+364162150+364422821
2648+364444758+364142845+363608377+362988305+362316618+361602343+360964525
2638+360530808+360307096+360221766+360221889+360298285+360417728+360462673
2628+360335488+360086138+359800501+359473408+359168099+359094058+359264871
2618+359297792+358872366+358210684+357797435+357769807+357846785+357735632
2608+357360597+356808598+356311855+356153617+356334924+356469328+356262168
2598+355919166+355825973+356024291+356239956+356237753+355948170+355447694
2588+354982402+354793018+354803880+354701386+354384664+354123290+354225141
2578+354712645+355287773+355506987+355127668+354389988+353834502+353776922
2568+354034197+354163278+353926838+353514629+353259618+353211492+353185884
2558+353133230+353151067+353193900+353098535+352889876+352781569+352830582
2548+352804270+352497676+352073290+351918999+352189888+352664144+353051908
2538+353236825+353164345+352770004+352185422+351794996+351866773+352250314
2528+352628868+352909671+353162142+353379551+353522706+353608373+353599898
2518+353419417+353155778+353013786+353029206+353073906+353086388+353042699
2508+352796927+352240462+351567980+351161523+351233085+351678765+352183800
2498+352425961+352323926+352118693+352090179+352234649+352343996+352314472
2488+352239116+352279746+352554246+353031898+353434011+353374228+352775664
2478+352078981+351845815+352177253+352690395+353015530+353076598+352933290
2468+352688100+352570554+352804270+353326408+353808312+353974046+353823579
2458+353570680+353406536+353320013+353176002+352970372+352905785+353120777
2448+353419631+353463138+353244015+353116555+353283115+353536291+353614890
2438+353548284+353504533+353509918+353503737+353574688+353909001+354468006
2428+354954897+355157223+355080644+354799321+354499886+354504322+354889454
2418+355325160+355548903+355647878+355715218+355651397+355414529+355162302
2408+355114298+355391154+355909804+356420651+356752854+357007467+357432618
2398+358105406+358780611+359160695+359292499+359478854+359831555+360171315
2388+360283599+360035044+359379236+358394010+357134529+355447908+353164070
2378+350400590+347430961+344315668+340942488+337477920+334474054+332296809
2368+330693285+329268559+328115427+327573280+327771874+328801799+330848128
2358+333841499+337383870+341269397+345812568+351193985+356476182+359894673
2348+360177801+357546279+353845241+351171558+349985108+349539061+349525874
2338+350107305+351116640+352050466+352607574+352968689+353572485+354578118
2328+355627991+356333455+356826038+357558976+358751545+360294766+361981846
2318+363538376+364658741+365295212+365742361+366288944+366968983+367720951
2308+368557393+369476044+370326009+370879537+371092907+371205742+371461885
2298+371835483+372187909+372530575+372950892+373479240+374171945+375099132
2288+376141418+376973944+377315723+377155067+376755555+376418580+376216927
2278+376037854+375840454+375696534+375629897+375565066+375383423+374985502
2268+374385285+373741226+373255803+373054456+373111363+373287836+373520054
2258+373884473+374359830+374692706+374688637+374512959+374536854+374930216
2248+375503539+375960448+376218090+376383457+376506786+376520340+376383028
2238+376175777+376041617+376025799+375990615+375755338+375282703+374668230
2228+374039254+373499494+373071865+372684408+372257788+371788275+371373618
2218+371169977+371210791+371295723+371235970+371146357+371317017+371859439
2208+372576009+373122775+373305306+373258924+373290039+373553800+373968579
2198+374398717+374838033+375406400+376151331+376883872+377338608+377516274
2188+377723587+378210907+378881676+379474243+379935404+380387387+380801432
2178+381030008+381143241+381394244+381823464+382169006+382204282+382007830
2168+381876332+382024811+382425026+382942452+383494328+384001718+384339367
2158+384431948+384326272+384156438+384091117+384255689+384619190+384987832
2148+385197470+385329886+385625772+386115631+386518814+386644316+386661266
2138+386811702+387108139+387470141+387920961+388471124+388983103+389304781
2128+389420982+389398280+389320782+389374599+389823461+390740582+391873614
2118+392874505+393590493+394130529+394727655+395479409+396206718+396686634
2108+396957156+397240437+397683853+398293554+398969432+399532292+399861893
2098+400032125+400204865+400440020+400705219+400988714+401281296+401508373
2088+401606278+401628398+401677748+401789267+401916819+401948699+401794407
2078+401579017+401608205+402021271+402659731+403300486+403804419+404129156
2068+404381383+404690639+405015101+405314291+405719004+406233432+406626947
2058+406880734+407286732+407910048+408441670+408746642+409126512+409865600
2048+410837548+411759625+412625132+413595367+414577013+415289116+415754499
2038+416330821+417192718+418137252+418986483+419872213+420976638+422244380
2028+423529806+424820433+426131834+427390765+428615704+430000136+431638080
2018+433343639+434870583+436185625+437446545+438808642+440331364+442047234
2008+444010833+446169017+448257964+449992221+451333575+452446016+453448498
1998+454390217+455454532+456937266+458854422+460742787+462136764+463134320
1988+464122208+465140661+465986923+466809536+468111942+470131041+472543716
1978+474881371+477035761+479224510+481585051+484005436+486350342+488617292
1968+490769571+492673326+494379160+496192843+498274172+500449520+502586869
1958+504859907+507405579+509959298+512122897+513951510+516019989+518795278
1948+522172864+525829967+529672294+533452267+536403968+538131861+539464037
1938+541518993+544413113+547419212+549993675+552249213+554570285+557077010
1928+559571557+561965630+564463543+567138786+569728118+572102732+574373323
1918+576288336+577318354+577630241+578116460+579333108+580983840+582404252
1908+583301731+584009765+585054162+586503456+587955258+589169336+590354777
1898+591752855+593249081+594462670+595183125+595715053+596522093+597507135
1888+598086547+598026886+597637471+597245546+596990872+596958441+597236796
1878+597836951+598536663+598996203+599277250+599960379+601369104+602794595
1868+602845321+600999269+598348258+596300522+595127136+593992483+592252658
1858+590281961+588766704+587750209+586788113+585720892+584854437+584478728
1848+584624300+585123246+585288154+583940375+580978639+577972479+576259577
1838+575783699+575558029+574788377+573771577+573432215+573785100+573506500
1828+571826029+569593560+567600284+565675296+563586685+561442514+559333037
1818+557438461+556180204+555908029+556604559+557726729+558294514+557741170
1808+556647209+556073733+556613126+558247520+560372172+561881922+562016663
1798+561250560+560917378+562244169+565518710+569154641+570474273+569087087
1788+567198508+566549033+567253090+568730347+570654417+572817435+574838798
1778+576682402+579108906+583098028+588593841+593527192+595431558+594599369
1768+592905253+591392749+590762611+591701026+593702624+595221002+595996774
1758+597031013+598184268+598693372+599510018+602559685+607903439+612884274
1748+615115458+615071829+614580899+614939842+616573808+618997436+621034952
1738+622467786+624979834+629839634+634735658+635683375+633288812+630394386
1728+628107579+626806183+626815361+627869243+629748338+633359610+639806626
1718+647840064+652915193+652284932+648685593+645757206+645117460+646921781
1708+650542843+654648900+657660016+659434843+661544809+664982851+668518002
1698+670629742+671357969+670428120+667910014+665754216+665697983+667856473
1688+671841556+678186997+686790790+693144186+692470296+687776567+684120932
1678+683769761+686768028+691154214+694500042+696949492+699873045+702278377
1668+702076510+700502266+700661361+703307293+706037913+706296993+704883068
1658+704611933+707604815+714579354+723150533+726312055+723225369+720765638
1648+721248308+721699465+718645637+713599880+710154801+709671214+711886672
1638+716142033+720744099+721953037+718241352+713448066+711077062+711520570
1628+713390792+715422985+717440921+719187049+719593353+718657692+718217427
1618+719564227+721219120+720314482+717232140+714763904+714246968+714894362
1608+715410135+715793799+716891554+718667298+720134215+720861891+721552057
1598+722973509+725109971+727387782+729260697+730803795+732846819+736069715
1588+740039318+743604819+746058981+747495303+748392843+749412580+751413872
1578+754854362+758230907+758251589+754948778+752193499+751991815+752584505
1568+751408916+749042379+747325622+746771543+747991189+752645818+760174191
1558+763481285+759172198+753228105+749192234+746875628+745349418+744248603
1548+744044839+745619512+749430020+755309802+762945625+770686389+773408993
1538+769272586+764282328+763025662+765190026+767647431+768890513+770826638
1528+775075574+780696215+785933070+790958022+796951802+803322759+808205077
1518+811133770+812820360+814305328+817100443+822386617+830180434+839964773
1508+851085877+860083063+861588835+857814002+855061047+856192641+860871868
1498+866738800+870786910+871926886+871954299+873089075+876029945+880161641
1488+884476846+888170174+891145188+894445736+898947205+903865319+908315510
1478+913234359+919770163+926959664+931886283+932107609+929233559+927927144
1468+930709960+936498752+942008210+944275313+943386706+941963296+942350692
1458+944204454+943531605+938036588+931190549+926303397+924003006+923303111
1448+922326452+919680152+916034124+913507268+913549673+915937015+919543636
1438+923317246+926027979+926835202+926600476+926025164+924176420+920901206
1428+918682810+919662468+922854953+925781933+927562022+929128923+930586784
1418+930306654+928028659+925765534+924604936+924004047+923767791+924752405
1408+927281770+930300596+932396856+933129549+933201387+933502566+934465029
1398+936001335+937491565+938079482+937358293+935604332+933472154+931917552
1388+931777426+932843913+934816996+939095916+946526384+954436523+959098801
1378+960680939+962495600+965964482+969309270+971035878+972330911+974872208
1368+978384657+981201739+982199937+981356734+979164100+976954516+976929856
1358+980386010+986285985+991791527+994441253+994199613+993015640+992737469
1348+993964397+996467266+999967355+1004266162+1009135385+1014327265+1019442473
1338+1023460233+1024988278+1024228049+1023936722+1026789233+1032434901
1330+1037814268+1040096669+1039025593+1036946589+1037174706+1041487281
1321+1048489661+1054736096+1057832206+1058157249+1057343295+1056229630
1312+1055101770+1055109602+1057640313+1062112472+1065967220+1067860083
1304+1069499373+1072208515+1073741823+1071473986+1067047230+1064681488
1295+1066124479+1068983783+1069310172+1065017668+1057339012+1049950642
1287+1046149130+1045699258+1044708097+1040187108+1033415905+1027182442
1278+1022284460+1018163717+1014863354+1012551031+1010527588+1007935442
1270+1004326189+999459353+993608514+987927478+984016618+982813432+983269606
1260+982834482+980031718+975390919+969915299+964423158+959865394+956628240
1250+953704381+949784832+944618713+938043074+929240963+918077393+905917460
1240+894724152+885887345+879498582+874431530+869517883+864493970+859725283
1230+855584592+852083402+848895751+845930099+843496436+841642062+840036794
1220+838782024+838484823+839357336+840932621+842550800+843723758+844519233
1210+845725295+848062644+851336635+854619498+857115759+858892360+860809087
1200+863728357+868050415+873742771+879954511+885012384+888153224+890560147
1190+893484068+896594619+899210752+901819909+905061407+908213629+909855611
1180+909973892+910693858+914554480+922383359+932302745+940888487+946571114
1170+951566022+959044280+969054289+978437403+984284816+986281824+985791200
1160+984224910+982766071+982750957+984979204+988129284+989526443+988787019
1150+988360216+989720967+992104577+994883354+998197669+1001331166+1002512507
1140+1000966288+998728067+999046257+1002887482+1007520694+1009035645+1006700743
1130+1003321627+1001503600+1001751972+1004172785+1009933552+1019150045
1121+1028332699+1032292327+1029272950+1022371350+1016503928+1015689791
1113+1020309480+1025665166+1026646904+1024079112+1022552290+1023655981
1104+1024731401+1023256346+1020571252+1020976455+1027396853+1037357421
1095+1043785713+1042017189+1035235339+1029956814+1028774983+1029579758
1087+1029957058+1030509362+1032737181+1036083560+1038782789+1040000600
1078+1039523193+1035645559+1028076923+1020454072+1015573407+1011473652
1070+1005242699+999038669+997637777+1000710879+1002036201+998245519+993938880
1060+994069338+996380437+994965838+989157159+983662877+981321672+980560954
1050+978682226+975412274+972814009+972961416+975816620+978986464+980831782
1040+982774637+986948004+993015518+998596201+1001646663+1001978193+1000473889
1030+997536445+993650368+990386046+989282171+990173042+991416185+991632799
1020+989917939+985604325+980294592+978400628+982231267+987397692+987504653
1010+983062599+979522064+978519949+975987096+968097027+956177206+944284614
1000+935150728+929645247+927324481+926184076+923444216+917904958+910728552
990+903755299+897984191+893255950+888778774+884418777+881216318+879680317
980+878504667+876373529+873871394+872060465+870742180+869285176+867380075
970+864480264+860376777+856400199+854129852+853055350+851229001+848099420
960+844984218+842957471+842099582+842592715+844778741+848088283+851429338
950+854784895+859212691+864964279+870598994+874791146+878423651+883617489
940+891049915+899128512+905807807+910516161+914344046+918832849+924727623
930+931838922+939142543+944535372+946453384+946158140+946016913+946145780
920+945475378+945097650+946832886+949401964+949756562+947536637+944979797
910+943231405+941171860+937943579+934861053+933860162+934973949+936442212
900+937260266+938340521+940616680+943496115+946099948+948938630+952966486
890+957336090+959997442+960439176+960531022+961864850+963057511+962123685
880+960613079+961663840+965253327+968737996+970841721+971264546+968652575
870+963604064+959845813+959323431+960071972+959963910+959681455+960917378
860+963325097+964941991+965291449+966056084+968252084+970784141+973232918
850+977478000+983581616+987822292+987946569+986572662+987231315+989626306
840+990437935+988847230+987966579+989911453+993602027+997347245+1000049350
830+1000627966+999617407+1000331560+1005622263+1013677546+1019527344+1020497518
820+1020760085+1026797066+1037155615+1043298516+1040475559+1032275316
811+1023627955+1016293617+1010861749+1008936271+1012234677+1020103880
803+1028357665+1031579949+1028750262+1024986443+1025322011+1028699107
794+1029825621+1026620715+1022079105+1018092369+1013099480+1006026302+998495054
784+992758947+990171940+990959460+992883285+991658866+985387527+976995575
774+970699943+967474048+966435648+968263649+972959825+977471880+978513646
764+976784774+976841497+982668472+994442294+1008022210+1016699799+1016758419
754+1012272737+1010401719+1013283296+1017590241+1020402672+1020591016
746+1016039677+1006487066+997384693+995104863+1000772743+1010256270+1016310995
736+1013457689+1005009257+999171942+1000404377+1006700314+1011829719+1012341515
726+1011376788+1013424768+1017889095+1019628859+1016683951+1011701158
717+1006148438+1000739210+999224810+1006333233+1020501923+1030047987+1023038386
707+1003981688+988989743+987809503+996512792+1002479036+997151375+985612402
697+978073382+979293150+988052551+999208656+1006241325+1005076077+995012955
687+978079378+962275866+956860886+963171876+973361051+976724012+971263200
677+965187731+966530126+975840545+983648375+978633947+962220672+950065879
667+955016180+970420609+984484357+992524526+992502681+985959473+977011851
657+967046389+955870703+945243099+936498997+932039932+935324876+945998739
647+958593307+967102867+968373914+960916338+948522781+939409088+942115599
637+956925747+969433119+965125195+951554457+944525581+946979498+952049854
627+953616511+950131292+944149995+939242834+938527702+941209553+944966335
617+948996027+954349817+960018125+961329006+959844466+959454194+957529023
607+951748369+947662505+951637554+961075555+968512265+972369277
##END=
