##TITLE=<SNM>
##JCAMP-DX=4.24
##DATA TYPE=INFRARED SPECTRUM
##DATE=29/4/2025
##SAMPLING PROCEDURE=Instrument type and / or accessory
##ORIGIN=Admin
##XUNITS=1/CM
##YUNITS=ABSORBANCE
##RESOLUTION=4
##FIRSTX=4497.3318
##LASTX=599.83466
##DELTAX=-1.4281778
##MAXY=2.2334735
##MINY=0.67877191
##XFACTOR=1
##YFACTOR=2.0800843e-09
##NPOINTS=2730
##FIRSTY=0.68947947
##XYDATA=(X++(Y..Y))
4497+331467076+331046135+331041493+330730845+330027997+329511607+329589692
4487+330099978+330929624+332282996+333953434+335116452+335119489+334073241
4477+332721187+331776807+331328100+331006305+330499342+329822255+329413493
4467+329889222+331262566+332697919+333560146+333930539+333646684+332172761
4457+329887617+328083819+327271308+326746207+326319421+327096628+329746749
4447+333106137+335375922+336071491+335852224+335288897+334901253+335208061
4437+336128457+336841621+336359731+334507363+332357442+331304431+331749298
4427+332854175+333398647+332807754+331418277+329919940+328767496+328036996
4417+327628692+327614021+328273228+329581926+330869907+331388561+331147832
4407+330740903+330523269+330412460+330500374+331277896+332718494+333701701
4397+333245887+331924523+331062497+330962577+331076968+331503611+332784629
4387+334339216+334523925+332541836+329441030+327057858+326642906+328206462
4377+330437132+331550003+330885639+329385067+328223368+327823259+328231133
4367+329280018+330321395+330870366+331262680+331701731+331454926+329973782
4357+328118634+327414698+328391171+330181702+331598430+332061436+331548313
4347+330326381+328924210+327824234+327156030+327024475+327689441+328988483
4337+330054188+330251047+330016822+330229384+331063987+331886097+332077053
4327+331584590+330786264+330228754+330310420+330838330+331216861+331293886
4317+331358474+331475844+331674337+332245859+333169149+333822510+333822281
4307+333499999+333194022+332813628+332190269+331555734+331516735+332318385
4297+333121726+332606252+330612099+328530864+327913608+329245030+331926701
4287+334861939+337002146+337697429+336917069+335185252+333156942+331359792
4277+330210558+329807383+329682677+329356125+329144795+329775433+331244141
4267+332692475+333360364+333215398+332639607+331956874+331455156+331467391
4257+331975185+332297123+331712276+330425155+329441775+329415699+329998626
4247+330474699+330950313+332218408+334313971+336063926+336403487+335512921
4237+334140064+332583271+330927303+329595165+329136113+329807383+331474182
4227+333500343+334920309+335355892+335302594+335008337+334084244+332725141
4217+331917359+332029486+332545848+333036678+333201272+332643360+331614076
4207+330940313+330780561+330651471+330548199+330758211+331087885+331412460
4197+332282595+333959280+335479882+335667486+334673332+333757836+333586136
4187+333613644+333183305+332170869+330595909+328667691+327272340+327498742
4177+329469656+332072812+333930109+334452718+333951457+333009914+331918907
4167+330833315+330108432+330092671+330848359+332086223+333189810+333630236
4157+333480027+333028024+332206144+331176286+330880367+332031033+333983236
4147+335331535+335375693+334521002+333432173+332307066+331049058+329742881
4137+328734973+328440458+329182649+330956675+333070003+334296921+333958908
4127+332806178+332232162+332572411+332753911+331862027+330458738+329756205
4117+330158578+331187203+332223938+332887901+333143159+333317754+333805031
4107+334626023+335314686+335337094+334717346+333977304+333381511+332783913
4097+332312769+332359247+332687030+332541836+331846696+331226403+330766893
4087+329972607+329030376+328845552+329622874+330531407+330960629+331148978
4077+331390367+331530833+331572985+331995157+332960971+333683305+333217949
4067+331791736+330602500+330251047+330154222+329721906+329297010+329452521
4057+330147402+331051121+331933291+332390194+331800017+330178464+328755719
4047+328870711+330433035+332152702+333271648+334089287+334611724+334087625
4037+332279959+330047110+328502123+328351541+329667318+331590865+332658490
4027+332065047+330543241+329704655+330474384+332248610+333628058+333794084
4017+333014298+332050003+331416930+331151299+331033040+331005359+331295318
4007+332002035+332906155+333779012+334482433+334786576+334569716+334222189
3997+334373430+335076564+335595161+335313970+334503580+333780645+333438563
3987+333645767+334428504+335115420+334707173+333108258+331305605+330348388
3977+330678435+332011462+333378760+333842454+333530889+333426413+334079086
3967+335087109+335818583+336151868+336422829+336917814+337419934+337194965
3957+335798353+333957847+333011232+333420539+334566335+335846780+337050945
3947+337863799+338019510+337653472+336870133+335642241+334474581+334183992
3937+334858787+335895923+337026302+338437184+339741728+339899674+338794224
3927+337661581+337530256+338112409+338562234+338807979+339316804+340020683
3917+340286515+339621635+337971800+335724022+333697861+332801220+333565332
3907+336265457+340926122+346282958+349550277+349127331+346486723+343810411
3897+341717055+340044983+339035241+338771959+338272218+336644905+335249668
3887+336344745+339793937+342678226+343449560+343762729+344350556+343747972
3878+342022086+341321072+342656793+345176649+348086842+350744700+351372673
3868+349381385+346984373+345985434+345654469+344676477+343326659+342399042
3858+342341474+343964145+347961219+352032768+351806795+347865683+343719202
3848+341389013+341432483+343273790+345504088+347176733+348617961+350084033
3838+350448552+348856141+346566727+345152005+344444802+343403597+342158971
3828+341704905+342403598+344421104+348440358+353748538+356728162+355593743
3818+353071652+351095694+348888148+345844194+342922538+341537703+342577877
3808+345371416+347832100+349445859+351762981+354549959+354970584+352404823
3798+349316539+347119882+345799607+345578677+346516925+347588075+347811239
3788+347837430+349144266+352017781+355390293+358409604+361055084+363357392
3778+365124712+366629783+368746321+372197720+376922171+381866548+385691951
3768+388339866+390700974+392702147+393757451+394755416+397526518+401934074
3758+405151248+405621389+405541843+408209100+414330020+420261072+422175306
3748+422024896+424182984+429733356+434573544+435507236+435344992+437933161
3738+444551902+453101326+459802995+463590717+466240752+468421850+469550768
3728+470114353+471332530+473078303+473863791+473051911+471765478+471457581
3718+472340037+473721032+475525261+478172173+480448090+479573198+475564203
3708+471915658+471312930+473796510+477417947+479231001+477615092+474552598
3698+473617789+476489241+481950094+487644056+492714429+497589433+501100405
3688+500952947+497692533+493892031+491053647+489334982+488699817+489975764
3678+494579405+501522435+505173186+502533552+498267752+496673793+496382831
3668+494021551+489941894+487041214+486883554+488090213+488156635+486647724
3658+485144373+484565199+484713059+486202140+490389025+496630066+500133932
3648+496828530+489685260+483656323+480714724+480410953+481602969+483623427
3638+486014164+487610587+487119728+485305413+485471383+490368680+497731561
3628+500568627+497398419+493718554+493404325+496316352+499915639+501820388
3618+502064987+502230727+502345977+500917701+498005158+495849964+495986304
3608+497471202+498280646+497686229+496848015+497468795+499775115+501867211
3598+502098800+501619919+503024697+506782159+510620829+512755506+513762669
3588+514635154+514749487+513254732+510928297+509024808+508029794+508061372
3578+509010079+510113179+510605184+510865542+512225791+515632231+520542423
3568+524621507+525256328+522443791+518480816+515122230+512959071+512505406
3558+514173695+516944454+518384650+517219598+515349063+515639337+518469469
3548+521992476+524703460+526172770+525999752+523865992+520497492+517348488
3538+515557155+515496521+516604778+517655096+517825764+517417260+517189396
3528+517281321+517198909+516768513+516365682+515860324+514439326+512383451
3518+511382706+511938956+512302758+511160401+509454173+508443915+508001541
3508+507654873+507817863+509183556+511562888+513698310+514355941+513673438
3498+512935287+512909612+512867604+511826686+510490621+510641174+512685416
3488+515023371+516076726+515850065+515136157+514592573+514760720+515748111
3478+516631829+515869035+512642205+507690062+502705940+499241904+498223050
3468+499605650+502127053+504169060+505044067+504737975+503166768+500831851
3458+499093586+498724511+499074216+499248781+499360249+500045617+501241330
3448+501959537+501334859+499466616+496967048+494467995+492699242+492003500
3438+491781597+491206607+490235148+489392808+488819308+488013246+486711969
3428+485732486+486175720+487683886+488490121+487661592+486220021+485477973
3418+485446682+485443530+485377509+485622165+486052103+486172511+485864643
3408+485060758+483431439+481630649+481472875+483583023+486359800+488083966
3398+488632421+488560841+488070899+487323751+486645890+486254464+486187813
3388+486336474+486471955+486425419+486272746+486274580+486427425+486215780
3378+485447427+484977544+485880116+488421750+492032671+495488225+497193307
3368+496477794+494576253+493349995+493519804+494723081+496500603+498594074
3358+500590863+501838097+501987962+501418761+500654191+499603415+498027967
3348+496610237+496777409+499067625+502055244+503477044+502576133+500587539
3338+498983666+498256175+498209181+498345578+497967391+497055763+496731619
3328+497757236+499138517+499307581+498176744+496884751+496240588+496328960
3318+496775002+496980687+496682906+496244772+496227120+496717463+497269701
3308+497517738+497455614+497047855+496047741+494534131+493375899+493644510
3298+495338818+496919595+496616770+494497968+492639410+492731507+494212622
3288+495436589+495963610+496448222+497016162+497267294+497259844+497313887
3278+497359505+497225114+497126140+497438192+498187289+498833858+498677173
3268+497752364+497008540+497132559+497689897+498013411+498235142+498744340
3258+499380766+499809501+499987104+499687144+498418992+496417446+495011865
3248+495312799+496862916+498125050+498221732+497669609+497187461+496457219
3238+494816095+492902290+492303288+493346613+494559691+494696203+493969056
3228+492956964+492005105+491752827+492477166+493133879+492502096+490902177
3218+489482498+488459747+487474189+486895073+487336302+488298706+488462727
3208+487295841+485620789+484652769+484902239+485754837+486048149+485393269
3198+484545428+484100703+483624057+482634374+481529899+480868486+480579616
3188+480282607+479717819+478857111+478034686+477640710+477501447+477044372
3178+476077412+474917862+473819863+472849923+472119652+471662664+471335854
3168+471167535+471382791+471720203+471351901+469954573+468311041+467408841
3158+467359469+467423685+466838236+465614069+464591633+464586017+465442369
3148+466092463+465634643+464205307+462658114+461628342+461181812+461130520
3138+461152470+460836836+460186570+459599115+459021662+457933290+456394837
3128+455224942+454908477+455002150+454858589+454493440+454314662+454265174
3118+453790019+452674626+451329793+450210819+449570697+449648151+450364753
3108+450944929+450552672+449287414+448008602+447292745+447105314+447410890
3098+448347934+449506825+449790938+448650874+446951981+445984591+446090299
3088+446678269+447067231+446922724+446194918+445082993+444004450+443292318
3078+443036315+443352694+444356419+445611504+446121705+445314553+443722400
3068+442402497+441964106+442272920+442775727+442894244+442336705+441381551
3058+440721199+440700137+440973018+441195523+441471957+441756501+441580588
3048+440761631+439701083+438751803+437927143+437309974+437161054+437467203
3038+437734640+437464080+436755960+436205957+436162946+436310634+436052653
3028+435162345+434059475+433459383+433543973+433618504+432973654+431900613
3018+431335968+431610052+432030936+431801811+430906345+429816140+428759461
3008+427805281+427317316+427621804+428362361+428789491+428658653+428324909
2998+428054779+427732039+427179544+426476123+425924200+425776484+425939960
2988+426002829+425683871+425078536+424353596+423530225+422716454+422198201
2978+422126249+422321217+422456640+422348525+422076533+421846691+421760841
2968+421752159+421678029+421451540+421141322+420896323+420753994+420609917
2958+420280700+419510771+418245513+417072524+416890508+417792880+418677744
2948+418404262+417089459+415765889+414965356+414318472+413564675+413157460
2938+413515389+414265546+414632243+414256921+413408850+412663134+412513040
2928+413008741+413598517+413563529+412772768+411800965+411261107+411316181
2918+411728067+411954584+411417476+410194026+409144396+408918338+409234946
2908+409423553+409234631+408855125+408487970+408184457+407966364+407892320
2898+407949945+407999690+407876789+407504905+406931750+406369884+406112047
2888+406194516+406286871+406140501+405951637+405967053+405967884+405514907
2878+404551185+403472843+402727701+402535082+402820543+403264866+403533219
2868+403527087+403339426+403052275+402712428+402362351+401998404+401577435
2858+401154001+401022962+401542447+402631392+403671995+404175834+404246125
2848+404193600+404133482+404050784+403796243+403123855+402138240+401360890
2838+400998376+400610532+399885104+399275786+399376537+399964994+400166381
2828+399510212+398424907+397665695+397592310+398000356+398383214+398308998
2818+397659591+396612971+395526032+394822554+394765674+395265215+395980814
2808+396527894+396600362+396142743+395454596+394963393+394876712+395042681
2798+395075290+394711316+394101940+393573028+393160053+392690886+392214985
2788+391975258+391998153+392016177+391833445+391567757+391440042+391447463
2778+391380153+391115783+390739687+390362330+389980561+389562743+389157477
2768+388877203+388812357+388949987+389126214+389049734+388473942+387502197
2758+386672207+386477296+386749891+386777428+386117362+385063004+384259263
2748+384049222+384253990+384537502+384862821+385352247+385769835+385628939
2738+384866145+383886347+382978560+382238432+381918270+382203874+382723732
2728+382826603+382326288+381644358+381302018+381470824+381899358+382169058
2718+382071918+381714792+381251213+380683960+380019338+379469994+379324456
2708+379590488+379901108+379887210+379581233+379316662+379245282+379147254
2698+378800644+378314857+377916669+377626738+377343885+377034642+376697344
2688+376365893+376195282+376312308+376621695+376924205+377066019+376913861
2678+376474323+375997162+375652070+375305317+374893775+374644248+374628803
2668+374548598+374252392+374048513+374221646+374581122+374753567+374684422
2658+374562496+374421256+374154478+373833629+373680583+373771018+373977907
2648+374084360+373841280+373172618+372412661+372051007+372229470+372672331
2638+372992350+372949539+372578114+372139465+371841482+371670212+371595164
2628+371718639+372072126+372474956+372688550+372562526+372087169+371481061
2618+371096684+371039431+371033786+370853776+370658063+370667547+370767267
2608+370724829+370590867+370575880+370683193+370732250+370649466+370528170
2598+370442263+370356986+370238641+370168522+370267353+370514702+370752939
2588+370914725+371114736+371414839+371631356+371536221+371126055+370530233
2578+369869136+369351656+369212766+369397562+369582242+369603075+369583475
2568+369637317+369744315+369858934+369900111+369753427+369441289+369158350
2558+369051783+369077629+369108319+369093103+369079893+369142132+369320623
2548+369601269+369884007+369985474+369794060+369439226+369177463+369121987
2538+369203081+369323775+369416502+369433982+369415700+369471692+369606198
2528+369682850+369634509+369547083+369479629+369382432+369242367+369135627
2518+369106829+369131357+369196175+369329592+369545937+369780477+369889882
2508+369792799+369635197+369649066+369795607+369781967+369491120+369136114
2498+368935329+368884581+368881544+368863377+368818417+368799247+368888421
2488+369098232+369380053+369714485+370082213+370387331+370528858+370514616
2478+370432634+370364006+370355352+370394380+370362917+370101642+369609436
2468+369122790+368919053+369081326+369460144+369785979+369853776+369713940
2458+369621987+369700473+369780391+369695000+369559147+369552155+369562929
2448+369352115+369025248+368989258+369381916+369907476+370309619+370595538
2438+370724915+370539173+370112960+369809132+369883176+370215917+370438738
2428+370278930+369831483+369463726+369437621+369730131+370200931+370732164
2418+371187491+371453466+371588746+371766922+372035505+372276464+372398448
2408+372427876+372452118+372560635+372741304+372833601+372766291+372753368
2398+373027624+373553785+374229153+375159693+376610291+378941741+382629715
2388+388086729+395503653+405040840+416988451+431500992+448294980+466708515
2378+485911293+505186195+524438001+544240727+564572480+583481745+598181259
2368+608014022+614958427+620838015+625536504+627908960+627084271+622357069
2358+612752342+597925027+579307870+559309145+540258267+524650965+514832873
2348+512309922+517437892+528427052+540623101+549509793+554628249+558298715
2338+561987634+565298366+567568982+568917482+569584855+569620273+569285411
2328+568755353+567726699+565970439+563710311+560946143+556926717+550958299
2318+543531919+536101985+529782029+524514281+519388031+513512340+506553665
2308+498732305+490579580+482628757+475248540+468624154+462688775+457130208
2298+451664340+446299996+441262920+436747908+432735761+428951420+425100830
2288+421240554+417785659+415103101+413192906+411730016+410332945+408855813
2278+407462152+406341372+405427968+404531556+403632709+402879285+402333753
2268+401851835+401243806+400506601+399819771+399308854+398890607+398382068
2258+397722804+397076292+396713836+396755128+397017492+397165867+397006546
2248+396591967+396063111+395490070+394938492+394598530+394649965+394974970
2238+395220771+395246246+395300088+395620565+396049443+396230714+396083055
2228+395869318+395819545+395884419+395900265+395806392+395601022+395229397
2218+394657674+394002049+393468179+393152202+392968724+392798657+392635324
2208+392542368+392558185+392688823+392889035+393024114+392987980+392854592
2198+392775046+392796050+392908320+393130424+393411471+393630997+393806221
2188+394083687+394448779+394719683+394907602+395259971+395842497+396414793
2178+396820203+397156554+397466400+397614059+397572022+397524971+397614861
2168+397824013+398119703+398504596+398924190+399273064+399483018+399551303
2158+399544856+399586348+399739279+399927657+400061361+400170679+400309856
2148+400421009+400419461+400342379+400314957+400418114+400652684+400993878
2138+401417798+401890404+402375904+402828853+403147782+403228589+403136320
2128+403095687+403208530+403355988+403492357+403815098+404490780+405375902
2118+406148639+406624168+406858909+407036655+407347447+407917536+408725490
2108+409575538+410254717+410698467+410955702+411125311+411369823+411800077
2098+412326009+412809819+413290964+413829332+414272853+414449940+414468709
2088+414593387+414910740+415285088+415559058+415663734+415612499+415530345
2078+415652788+416146426+416908188+417633416+418087854+418257434+418290043
2068+418391797+418751645+419420594+420205366+420816232+421194162+421572808
2058+422143786+422786773+423237916+423425148+423521084+423730552+424107937
2048+424553062+424979476+425494892+426290926+427297659+428174901+428790982
2038+429430817+430312300+431201233+431785535+432199341+432874852+433993224
2028+435344791+436674866+437890465+438919607+439744410+440683431+442195551
2018+444200708+446024192+447223171+448040925+448911347+449996423+451303116
2008+452865668+454647116+456420368+457916355+459107483+460223363+461475182
1998+462940651+464699891+466810870+469070626+470984860+472152319+472720403
1988+473301639+474335107+475681917+476970901+478101223+479171800+480216873
1978+481306276+482627210+484252861+486099326+488213715+490774663+493661302
1968+496301967+498204482+499528912+500882513+502659003+504797348+507049452
1958+509262644+511411533+513524375+515666215+517935570+520380866+522904791
1948+525358225+527828222+530626203+533705403+536360682+538081524+539389048
1938+541078657+543150694+545127196+546969248+549102664+551721896+554468240
1928+556869350+559011649+561423075+564190854+566902469+569672253+573029062
1918+576483126+578676545+579411085+579922403+581113531+582816263+584475269
1908+585874087+587234565+588767947+590211582+591139371+591711552+592542144
1898+593796656+595040165+596095927+597506436+599739457+602254613+603853157
1888+604063770+603694981+603795388+604665180+605824901+606644719+607071390
1878+607587695+608406136+609209792+609973847+611345844+613669586+615980835
1868+616583619+614967883+612322175+610076718+608998491+609206526+610156264
1858+610833322+610561674+609508319+608222172+607181941+606843354+607496343
1848+608995855+610839627+612146348+611761627+609568265+606941182+604936140
1838+603340921+601505115+599471247+598156845+598412046+599852987+600864391
1828+600447577+599188824+597622489+595403509+592495322+589654015+587503119
1818+586061490+585096966+584481630+584217661+584275716+584398301+584140808
1808+583328441+582447417+582361739+583526046+585434349+586902856+587113183
1798+586420995+586053581+587125447+589574870+591509822+590884629+588488734
1788+586767261+586807320+588039596+589638082+591274679+592585183+593181378
1778+593594238+595143437+598626385+603390093+607282061+608418745+607278107
1768+605388716+603787250+603491130+605271804+608370604+610772230+611791314
1758+612540296+613627292+614935503+617009661+620564418+624876696+627982947
1748+629018077+628831476+628372654+628227602+628921395+630427039+631910504
1738+633285310+636107246+641269487+646111824+646832037+644513969+642108675
1728+640525548+639796853+639933996+640676903+642100651+645299572+651366448
1718+659154740+664351768+664115365+660804690+657770249+656400831+656877878
1708+659147118+662614363+665837411+668267233+671277203+675589138+678954027
1698+679506666+678583519+677087102+675110658+674016212+675032831+677716307
1688+681237595+686185669+692654173+696621217+694571530+690112481+687636811
1678+688347281+691431697+694919287+697309680+699347675+702114078+704258383
1668+703666659+701619150+701077515+702747466+704693192+704943178+704175283
1658+704705342+708553067+716692153+726358602+729007463+724284961+721316483
1648+723411272+727355736+727782408+724358203+720822644+719514948+720945345
1638+724850781+730167987+734281974+735294180+735169244+736714432+740547027
1628+745246434+749594932+754169174+759372162+763913049+767355709+771722145
1618+778571587+785893090+789735256+790183190+790326064+791838470+794582293
1608+797505954+799543090+800250981+799809982+798838293+798441193+799821730
1598+802916175+805736392+806168737+804640857+803804993+805234931+807855022
1588+809856052+811064315+812322724+813229595+812665323+811534256+812643602
1578+817613626+824644625+829437562+830699581+830900223+831548741+832550231
1568+833694651+834983893+836556417+839540254+846174956+858025713+871062612
1558+873233508+864687064+858084914+857700881+860758074+862944387+862554107
1548+861633883+862910861+866777785+871893260+877420049+881940018+880838924
1538+873851079+867552613+864893781+863656003+860963473+857887998+857470037
1528+860163313+863515881+865120957+865421318+866531639+869384064+872979110
1518+876162900+878449276+879258720+878568996+878168573+880805341+887782699
1508+897134231+903188958+902407939+899533507+899200537+901828021+905891231
1498+908788988+908407706+906085626+905783145+909811740+916927271+922992429
1488+924684559+923194102+921353940+920640891+921680664+924786570+929542083
1478+934316107+937360176+938826219+940240740+941265096+940073453+937619675
1468+936142629+936179479+936711887+936878086+937598585+940494680+945875501
1458+951399882+953024444+950530091+947104223+943719619+939922556+936239310
1448+933670225+932347227+931894537+932261033+933250488+933682948+932074834
1438+928246250+924147909+922638368+924721581+929399553+934805017+937917285
1428+936468435+932515260+930412218+931539273+933433192+933793212+932950700
1418+931887144+930588274+929235361+928679054+929424426+931016035+932322011
1408+932606841+932258111+931869665+931259831+930548959+931142002+933878776
1398+936850806+936981301+933757164+929582486+927048704+927407120+930781981
1388+935619848+938724781+938920780+938884216+941150075+945584710+950848046
1378+955858530+959631752+961446239+961536387+961153901+961799096+963804252
1368+965631175+965707741+965165246+966860127+971848260+977796792+981003392
1358+980402556+978581134+978322323+979455109+979873815+979246502+980482102
1348+986153827+994576653+1000789498+1001822680+1000063841+999774197+1002521172
1338+1007764678+1014696188+1020970354+1023734063+1023019868+1021176440
1330+1020316563+1020944794+1022676812+1025174489+1027970063+1031004962
1321+1035676974+1043633987+1053267999+1059575520+1059880752+1057383189
1312+1056645841+1058000416+1058684352+1057932217+1058093258+1061223063
1304+1066051302+1068924473+1068856618+1069365644+1072264605+1073741823
1295+1070524105+1065888542+1063783093+1062164319+1057474426+1051265708
1287+1047283706+1046285942+1046534896+1046490538+1046167081+1046247200
1278+1046042260+1044267031+1040198491+1033585853+1026168929+1021396166
1270+1021146180+1023243950+1023298279+1020094774+1017093458+1016952361
1261+1017901756+1016951215+1013504831+1008645759+1004237487+1002588912
1253+1004114156+1005708859+1004082521+999854660+995231017+989953010+982664460
1243+973524000+963747286+954814803+947760536+942465852+937797393+932338173
1233+925301728+917344716+909954097+903507772+897266101+891274587+886754904
1223+884214646+882266455+879303766+875720125+873255572+872507335+872304057
1213+871340851+869357644+866920773+864802544+863620299+863792916+865475189
1203+868173566+870509342+871800132+873396612+876546074+880433457+884067646
1193+887697135+891420670+894357569+896773924+900659302+906423926+911161214
1183+911895754+909518657+907531324+908146430+910895698+914141154+917520142
1173+922617851+930983139+941698645+951405728+956676341+957249841+957054529
1163+960315401+967140028+974052855+978598671+981907627+985667152+989796440
1153+992824119+992401401+988130443+983634143+982772776+985847792+991007168
1143+996507880+1000955238+1003434117+1003859356+1002821246+1000954092+999998622
1133+1003078911+1010391990+1016399321+1016646556+1015361784+1018710398
1124+1025331976+1029822431+1031817157+1033780707+1034356556+1030926906
1115+1024286186+1018714639+1017289458+1018542709+1018601395+1016332269
1107+1015601339+1020153574+1026790511+1027600758+1022100962+1018999239
1098+1023720882+1033210588+1041552952+1045388814+1044015441+1039684537
1090+1036811938+1038037337+1041118429+1041077739+1035991605+1029458170
1081+1025645346+1025078208+1025448774+1024071160+1019992648+1015531077
1073+1014953853+1019558927+1025112480+1025921351+1020825475+1013103433
1064+1006512802+1003421051+1004223159+1007290267+1010232669+1011509302
1055+1011387576+1011912764+1014085609+1015674581+1015335307+1015294617
1047+1017671027+1021981987+1026213860+1026612163+1019211974+1005353080
1038+993457851+991385871+997345521+1003011056+1004691495+1005054496+1006231640
1028+1007961709+1009516869+1008048476+1000838097+991489143+987245235+990912492
1018+998199093+1002930937+1003342766+1001528565+998969108+995663018+992294805
1008+989970433+988136632+985650876+982915936+980365533+977102082+972981620
998+968350297+962422397+955006562+947713542+941956597+937363500+933085951
988+929271581+926280122+923939072+921953057+919714191+916069974+910746807
978+905387821+902000753+900646063+899438430+897013995+893829918+890804875
968+888011193+885167766+882430189+879974348+877316777+874272134+871966904
958+871068801+870322971+868647747+866841112+866134195+866648608+867672907
948+869384694+872980141+878353855+883331845+886399354+888572371+891621426
938+896275214+902447197+909772310+917722273+924924458+928786109+928274046
928+926346544+927502541+933456861+941427340+947135457+949710388+952394036
918+957739095+962512947+960847408+952561782+943610100+938900206+938063712
908+937815216+936781576+936807193+939225898+942467629+945115629+948204973
898+952498168+955732047+955183134+952013670+949405156+948227668+947931147
888+949008171+951957220+955155739+956579316+956267149+955304860+955315290
878+957803970+962389272+967321471+970759603+971339693+969375914+967490764
868+968173783+970351557+971406172+972187420+975136928+978775186+978634662
858+973889178+968637878+966666993+968134239+971520448+976472935+982920979
848+988881087+991607889+990970260+989369138+988721995+988842346+989405243
838+992325523+999125564+1006849898+1010053174+1006206767+998786519+994104993
828+995195256+1001481686+1010022571+1016344533+1019154205+1021575775+1025773720
818+1030097174+1031380112+1029077862+1024976655+1019748967+1013288658
810+1006957641+1003620718+1005438242+1012279661+1021816476+1029924213
801+1032436676+1029134942+1024024166+1019750915+1014361842+1006369413+999149749
791+997081781+1002614816+1014707650+1027097348+1032282513+1028945820+1020380636
781+1008992255+996048599+984591790+977829344+975299229+975061967+977496832
771+983753003+991416360+994955013+991906359+986144313+981413730+977434938
761+973769630+972128735+974484627+980992274+989811684+997795059+1001133357
751+997700383+989711736+980800057+973084204+968036010+967252929+971549218
741+979159849+986757070+992862401+997237090+998471086+995500946+989796669
731+983862121+980763722+984715121+996056279+1006177195+1003013234+985102421
721+963878755+952214484+956643044+975432991+998019943+1010499274+1008087447
711+998632356+992456189+992951919+996722448+999481344+1001043610+1002523808
701+1002093984+996801421+987420947+979224839+975835879+975176701+972655183
691+968252527+968443025+977668762+991559634+1003424719+1008164357+1001589772
681+985512071+968936577+962324168+967948555+978599817+985566172+982750081
671+968077732+948784834+940417770+954696172+980334242+991532928+982195322
661+964013089+949631071+946638466+954889306+968653810+978705382+974036808
651+955104046+937088585+928822730+927994603+928032657+923877923+915112040
641+907519862+908255033+917163331+928390098+940615317+957194422+974774157
631+974455629+949440172+919127453+901590758+901483761+911275032+918531889
621+913690125+900706754+889270691+884561198+886205417+890152690+893986202
611+897967688+907301913+922113353+926095699+909933064+888575809+877079055
601+876353628+879497989
##END=
