##TITLE=<SNM>
##JCAMP-DX=4.24
##DATA TYPE=INFRARED SPECTRUM
##DATE=29/4/2025
##SAMPLING PROCEDURE=Instrument type and / or accessory
##ORIGIN=Admin
##XUNITS=1/CM
##YUNITS=ABSORBANCE
##RESOLUTION=4
##FIRSTX=4497.3318
##LASTX=599.83466
##DELTAX=-1.4281778
##MAXY=2.1191719
##MINY=0.38541076
##XFACTOR=1
##YFACTOR=1.9736326e-09
##NPOINTS=2730
##FIRSTY=0.39141911
##XYDATA=(X++(Y..Y))
4497+198324204+199149236+200297579+200943959+201183072+200961883+200039032
4487+199013303+199021155+200356016+202222164+203623421+203930696+203112036
4477+201920718+201372429+201693611+202173119+202140683+201616373+201025078
4467+200807982+201284500+202380671+203423705+203578135+202615223+201154502
4457+200121933+199992040+200545766+201300929+202028187+202664012+202997486
4447+202928720+202734863+202462213+201525409+199683905+197922341+197475903
4437+198266098+199006267+198718109+197607954+196572410+196431978+197555843
4427+199522891+201078789+201099869+199758727+198248567+197474664+197460848
4417+197835198+198371075+198925556+199232725+199182879+199184525+199754091
4407+200740272+201369665+201141470+200338832+199606395+199221747+198854358
4397+198111170+197239841+196975511+197654523+198734175+199233857+198687999
4387+197737378+197544533+198452163+199542491+199739051+198905503+197647472
4377+196652864+196420638+197004534+197764378+197834564+197095135+196423023
4367+196744341+197888607+198622509+197985460+196424715+195279890+195414282
4357+196665141+198206890+199113463+198995666+198400792+198271549+198823795
4347+199315550+199070020+198184345+197113150+196258778+196104710+196993631
4337+198459276+199365501+199066592+198026306+197132418+196853999+197169625
4327+197909068+198900308+199822268+200187090+199745831+198774599+197785684
4317+197282001+197773664+199248580+200652087+200901120+200289938+199893164
4307+200015400+200230503+200478343+201185352+202461654+203670519+203859317
4297+202732764+201204605+200567737+201045554+201708998+201853839+201705525
4287+201647011+201565349+201238021+200727165+200157086+199702206+199831132
4277+200803361+201940484+202255324+201851695+201823865+202714130+203847207
4267+204359920+204326413+204427056+204780598+204794928+204262750+203794613
4257+203777897+203763249+203464053+203404588+203952923+204754353+205561280
4247+206503308+207243930+207126978+206382914+205940220+206033480+206116984
4237+205938559+205749202+205668809+205558668+205301813+204871350+204433156
4227+204408769+205016388+205811310+206063121+205553609+204795698+204516374
4217+204970619+205785896+206468653+206859734+206992662+206788673+206155036
4207+205263201+204540202+204361400+204803535+205722596+206868779+207812922
4197+208133409+207898012+207577645+207391384+207229781+207190716+207595010
4187+208469088+209465522+210218012+210432285+209845580+208587156+207438300
4177+207246648+208133938+209564806+210974821+212001471+212377467+212009323
4167+211138613+210275771+209924041+210207487+210774516+211257996+211642705
4157+211912425+211759037+211041987+210165992+209709361+209930564+210650574
4147+211343010+211446990+210897946+210309776+210361691+210970593+211363698
4137+211143974+210870403+211194983+211903984+212388279+212651310+213171136
4127+214034356+214777726+214964682+214626089+214252630+214388728+215008291
4117+215426432+215143287+214550286+214463490+215159429+216153720+216761625
4107+216695380+216230248+215906755+216059419+216538640+216809417+216411919
4097+215446107+214556250+214364643+214949370+215845539+216543864+217046385
4087+217695378+218442538+218798224+218495887+217750842+217023614+216830633
4077+217418969+218358264+218823638+218406132+217402147+216467095+216180054
4067+216684704+217600368+218367369+218622246+218326448+217738897+217226878
4057+217034698+217244516+217886200+218914813+220063972+220863801+220975150
4047+220576836+220271404+220498617+221189951+222000638+222568663+222559860
4037+221853440+220750534+219864482+219843704+220956788+222608075+223581346
4027+223236411+222207571+221559862+221628054+222015783+222320053+222444192
4017+222454687+222428926+222399420+222420802+222581951+222794246+222796254
4007+222615444+222682066+223193028+223799846+224163596+224350824+224522060
3997+224651666+224638196+224414003+223982725+223532889+223425119+223866272
3987+224641624+225293879+225528929+225391592+225093242+224801143+224711251
3977+225172231+226367974+227819545+228603307+228239543+227111011+225992038
3967+225445802+225693975+226721395+228252846+229687248+230331062+229948376
3957+229050108+228483547+228719398+229608409+230723487+231589621+231631932
3947+230681704+229689105+229908965+231177868+231907798+231124081+229507827
3937+228288966+228377242+230208191+233170390+235436663+235611132+234406118
3927+233618278+233998819+234743623+234885263+234714238+235240179+236697277
3917+238004127+237566552+234914558+231522984+229533180+229801088+231679226
3907+234675672+239156562+244810620+249639842+251798663+251192267+248287298
3897+243760730+239509409+237845242+239363360+241806110+242173665+241085315
3887+241714150+244741476+247257190+247417193+246811748+246106492+243985120
3878+241265340+240842217+243608218+247960499+252627998+256712446+257856772
3868+255487364+252794976+252001580+251596772+249397861+246162438+244202412
3858+245280237+250916975+261768368+272284778+271883444+262007254+251352556
3848+244486191+242637288+245199421+250308586+256148966+261991580+266971155
3838+268830720+266482210+262209144+258524656+255695626+253090126+251070257
3828+250400879+250991464+252986915+257747477+264904718+269530948+268442221
3818+265309586+262900192+259410980+253863665+248883063+247428910+250638889
3808+256687078+261315482+263189361+265327374+268684730+269857596+267625660
3798+264793399+262269092+258833939+254839745+252045038+251160889+251810078
3788+253596482+255906154+257614746+258477332+259917200+262825083+265505285
3778+265699564+263915048+262531353+263461498+267467712+273536679+278912545
3768+281801885+282905772+283354944+284045448+286519682+291657991+297500334
3758+300920115+302336125+305460636+313361322+325593029+336460610+340530849
3748+340919589+343342060+348141580+350327914+348398647+347160367+350645683
3738+359628905+371352126+380175890+382140069+378690117+374167294+372143983
3728+374297428+380048082+386729575+391780151+394735177+396438756+397825985
3718+399744228+403258930+409997804+420982985+433370828+440465766+440136822
3708+437379458+436964776+440491708+446924047+453058609+456039729+456385554
3698+456435476+457680249+461030690+467603914+477933957+489781543+496804543
3688+494210836+485630005+477729107+474336234+476356344+482425432+490621539
3678+500525363+510658166+515157312+512517006+509652490+509853384+508195438
3668+500783547+491754691+486190495+485244345+487602821+491999647+498120891
3658+505360429+511729740+516132244+521201394+530796569+544731552+554707313
3648+551826550+540712171+531078339+526632588+526135729+527207423+528761238
3638+530756644+532897374+535134747+538645733+544984934+553923067+561065540
3628+560562219+554359887+549410451+549249906+553862002+561533829+569396402
3618+574601031+576830672+577708419+577840878+577321309+577613831+579607002
3608+581217352+580229917+578053127+577515800+579039293+580960104+582341474
3598+583796774+585819602+587881268+589272483+590439248+593422270+599921956
3588+607656661+610999793+608220262+603117227+598741359+595091692+592094355
3578+590587231+590522843+591013239+591911884+594515709+600529228+609816720
3568+618220667+620062715+615969161+611656533+609629960+608663665+607837380
3558+607593783+608152311+609156839+610371744+611398319+611535066+610961499
3548+611035853+612731368+615289046+617176697+617634415+616447295+613980882
3538+611602172+610339852+609655570+608870056+608569198+609528064+611615883
3528+614128683+616018569+616332714+615556803+615574199+617519593+619875411
3518+619785535+616676516+613699051+614033310+616992534+619006966+617855724
3508+614817315+612590935+612761931+615278597+618975377+622363206+624741735
3498+626887841+629825019+632907944+634887343+636371515+638718274+641450571
3488+642950327+642614498+640437949+636219849+631094586+627753930+627634457
3478+629451680+631175765+632509781+634375022+636484405+637476309+637072650
3468+635708434+632797953+627819345+622509376+620270675+623119667+629676976
3458+635949917+638640900+637998657+635744976+632610107+629498612+627527548
3448+626287456+624580041+622428439+620346116+618073107+615672592+614321121
3438+614945063+616976165+618920291+619596600+618918479+618660204+621188286
3428+626336864+630808829+632054659+631396410+630888196+629891158+627410913
3418+624962561+624276587+624432119+623675356+622505087+622818870+624971862
3408+627442261+629195157+630554662+631508574+631184040+629632400+627997950
3398+626800018+625809020+625569228+626957483+629168219+630704034+632184280
3388+635248360+638990199+640201842+637294986+632192253+628293190+627757313
3378+630548622+635220092+640480290+644758550+645475751+642047816+637997630
3368+637240021+639774264+643074149+646391309+650542968+654015057+653091647
3358+646999909+640129300+637553743+640113053+643935889+644504021+641627123
3348+639230776+640255236+643487654+645538266+645029932+643725271+643492184
3338+644040866+644444767+645276307+647373972+649623907+650004796+648116602
3328+645497677+643991337+644439935+646732151+649712516+651688412+651990658
3318+651458707+651222781+651732082+653196986+655629816+658342604+660255442
3308+660745958+659703075+657244937+654017533+651574315+651559033+653980870
3298+656858250+658013841+656667927+653355659+649663591+647459077+647409548
3288+648945061+651275209+653704777+655461237+656295857+656757381+657290298
3278+657977238+658932721+659904150+660193531+659386634+657339767+653949220
3268+650042848+647630676+648335676+651803959+655758591+658063793+658780511
3258+659144608+658820979+656367009+652963838+652304985+655443237+658922211
3248+659326112+656953744+654180978+652981959+654018016+656407840+658270847
3238+658185984+656379694+654500922+654009319+654887428+655797308+655599132
3228+654227487+652373842+651393595+652488604+654916481+656275019+655276108
3218+652805709+650174462+647972183+646565143+646555599+648409969+651497545
3208+654162133+655520369+655888936+654748445+651098959+646681475+645006557
3198+646803545+649144082+649612310+649022556+648547985+647416675+645083085
3188+642535916+640476968+638603089+637207827+637380030+638896517+639907991
3178+639130389+637039308+634936087+633629977+632974385+631999392+630080333
3168+628182113+627711831+628423535+628548807+627029058+624762030+623292354
3158+623085722+623337413+622948732+621626978+620053715+619129641+619151143
3148+619494040+619369795+618838750+618472599+618091952+616626927+613803122
3138+611241639+610974546+613055177+615204666+615291945+613600719+611729497
3128+610325658+609136122+608324635+608209511+608215551+607688975+607097529
3118+607097590+607487055+607677982+607180701+605655758+603368918+601405041
3108+600654680+600924431+601530192+602011890+601994313+601096694+599322839
3098+597190686+595456333+594570311+594119901+593503872+593256470+594385122
3088+596606548+598583532+599491902+599372972+598535754+597365607+596079791
3078+594548144+593173358+592979894+593789025+593940752+592895453+592192386
3068+592931935+594066567+593788179+591568323+588364959+585442640+583521648
3058+582826614+583353613+584638160+585423553+584515244+582317374+580623731
3048+580663958+581750752+582182680+581293578+579966267+579268877+579374700
3038+579819855+580017305+579356942+577632978+575669162+574772993+575308266
3028+576298298+576507769+575598251+574184627+572993399+572213502+571626284
3018+570977880+570012673+568605995+567149245+566212849+565716474+564928664
3008+563334321+561240340+559534074+558932058+559345442+559969686+560096769
2998+559684049+559010881+558152885+557054856+555839166+554932850+554850584
2988+555578113+556208397+555708519+554045258+552040067+550349807+549252744
2978+549034455+549773763+550837424+551273217+550895711+550303298+549710100
2968+548571724+546546721+544186433+542416202+541653278+541625433+541820890
2958+541906901+541797757+541432331+540640475+539299030+537664218+536518955
2948+536575370+537623568+538761824+539506265+540070350+540392106+539740259
2938+537719847+535011106+532808887+531719133+531246858+530567830+529820187
2928+529973304+531191047+532173590+531461100+529026459+526250793+524497474
2918+524023085+524126854+524053346+523647150+523207008+522930070+522710874
2908+522410984+522065913+521745667+521336572+520611881+519479907+517928931
2898+515946089+513945065+512880801+513248461+514261506+514696876+514223272
2888+513267246+512251664+511610025+511812972+512840272+514028479+514540740
2878+513747856+511562187+508819380+506883228+506462233+507035982+507458426
2868+506894583+505341342+503620398+502778651+503192004+504170409+504559573
2858+503805406+502366807+501035962+500101982+499430565+499014161+498853011
2848+498558798+497747221+496589123+495523167+494729559+494186011+493817263
2838+493376880+492563702+491350851+490014600+489011492+488820625+489495484
2828+490320380+490271304+488971929+487048974+485514427+484811934+484458045
2818+483717227+482558314+481604885+481209440+481081813+480845887+480436127
2808+479920333+479413659+479138835+479139681+479008218+478307899+477135154
2798+475874375+474579469+473036949+471382265+470242258+470121969+470831499
2788+471668445+472067665+471917780+471413070+470790155+470082074+469134082
2778+468007000+467089207+466497550+465765460+464583655+463419427+462877630
2768+462857063+462839094+462674502+462580669+462543341+462167466+461132918
2758+459580342+457988958+456723739+455806430+455165818+454926509+455244520
2748+455893468+456253971+455849315+454807579+453665730+452762615+451984590
2738+451117715+450224657+449529835+449041312+448438088+447415167+446137929
2728+445155145+444784162+444826201+444916017+444843234+444493664+443797150
2718+442898656+442107162+441450633+440564008+439298125+438121001+437538585
2708+437433970+437347355+437099349+436819270+436616624+436410174+435935151
2698+434947172+433561121+432281406+431523918+431150972+430650973+429819947
2688+429026490+428681298+428716633+428752028+428519605+427961379+427149288
2678+426272116+425585176+425246628+425147933+424944714+424410528+423743641
2668+423358525+423422036+423703203+423825394+423584122+422967549+421949642
2658+420568876+419254733+418600681+418674582+418961214+419006666+418771525
2648+418435303+418132846+417810214+417276390+416504859+415765340+415320547
2638+415121858+414876902+414377537+413796993+413580516+413853740+414116424
2628+413843804+413209564+412783496+412665653+412429757+411866670+411260335
2618+410877030+410671002+410564304+410567807+410540657+410226029+409590429
2608+408847407+408188493+407696195+407421854+407398086+407637787+408117915
2598+408684475+409073760+409074515+408565788+407533656+406259830+405290093
2588+404970844+405154161+405475343+405755694+406030397+406262488+406185899
2578+405618644+404833220+404272971+404013972+403919626+404099047+404650447
2568+405166362+405079203+404374777+403565253+403131212+403247725+403800726
2558+404410474+404638034+404394921+403992711+403674820+403354212+402942066
2548+402622726+402584130+402703664+402706835+402495613+402170293+401856631
2538+401644654+401612702+401790583+402096272+402355905+402412290+402261468
2528+402062810+401924552+401792395+401683008+401775361+402032488+402046139
2518+401555351+400860649+400477254+400567916+400875025+401082110+401117867
2508+401122820+401226166+401430291+401640788+401731963+401665945+401533788
2498+401440408+401496188+401823048+402266300+402330386+401823048+401244075
2488+401128346+401405375+401705296+401869013+401949226+402064954+402345667
2478+402797527+403231689+403438653+403404405+403304110+403301512+403369101
2468+403322622+403021192+402485405+401891754+401542486+401715444+402395166
2458+403211847+403731688+403771130+403405191+402786715+402076641+401509778
2448+401365752+401752741+402442852+402998118+403111310+402849834+402534783
2438+402385894+402407306+402621971+403138611+403819692+404194208+404008445
2428+403624235+403547495+403781428+403962299+403928051+403823830+403759835
2418+403667965+403480692+403239330+403023245+402913195+403005246+403328421
2408+403755667+404110342+404338204+404507780+404693724+404942123+405304499
2398+405778102+406211056+406403433+406347563+406271035+406416661+406857860
2388+407472138+407955496+407928467+407172730+405708400+403619101+401001233
2378+398124547+395399376+393094265+391264961+389954291+389156576+388480840
2368+387166847+384861252+382286903+380717173+380878595+382634239+385358956
2358+388264906+390881687+393646722+397409822+401970396+405775082+407351608
2348+406370757+403592464+400492053+398403267+397483723+397036031+396597218
2338+396148771+395687519+395115552+394588101+394665354+395754776+397429241
2328+398779625+399463545+399963816+400883451+402265183+403570961+404276263
2318+404424245+404495065+404864538+405536378+406268075+406782238+406915815
2308+406749229+406644675+407056670+408182181+409734697+411103322+411850059
2298+412089579+412301285+412772321+413369838+413871830+414266732+414597850
2288+414778750+414767999+414726020+414808468+414949232+414993355+414920119
2278+414800193+414640825+414406832+414134423+413910004+413768394+413652242
2268+413428668+413017851+412616034+412625970+413177400+413917644+414467927
2258+414855490+415294182+415767303+416059945+416087337+415999001+415976501
2248+416069338+416244802+416441891+416525244+416344736+415885900+415248338
2238+414526456+413840240+413360627+413134184+413011479+412876271+412769060
2228+412693136+412556569+412399044+412350874+412311825+412099938+411927735
2218+412190992+412812881+413372133+413811459+414429240+415253472+415992810
2208+416552243+417140216+417886530+418656582+419247606+419618196+419917966
2198+420334491+420908330+421509712+422012580+422444386+422917598+423475823
2188+424085178+424723435+425375010+425969718+426426229+426719898+426855589
2178+426868907+426898624+427135034+427639472+428298175+428943408+429452045
2168+429822937+430209352+430731820+431255526+431533703+431567044+431679390
2158+432230066+433277086+434504192+435546410+436380819+437237697+438190885
2148+439083097+439834576+440608735+441601696+442761364+443856826+444849939
2138+445994205+447483209+449245014+451141846+453109407+455080592+456997839
2128+458879570+460761483+462649133+464564085+466531797+468506697+470374415
2118+472064766+473649657+475262060+476880383+478244720+479075444+479443497
2108+479880619+480935824+482611920+484489484+486371456+488416754+490633046
2098+492650558+494054850+494675621+494565057+493873436+492696010+490960419
2088+488532029+485445902+481907252+478060014+473958245+469791183+465885658
2078+462462041+459608761+457414575+455859855+454707284+453784478+453220303
2068+453128584+453249809+453231084+453122423+453226705+453545411+453765693
2058+453726312+453547948+453378372+453286351+453288133+453334128+453443484
2048+453847023+454787979+456252008+457998743+459734304+461310346+462952980
2038+465157283+468215292+472027982+476356314+480969497+485585912+489989353
2028+494206245+498304390+502062658+505107591+507349040+508985362+510065573
2018+510401402+510020453+509334963+508633708+507736089+506404641+504821230
2008+503316853+501821235+500022193+498012019+496332570+495311855+494663299
1998+493932176+493240917+493218327+494015076+494863830+495064482+494889471
1988+494902668+495116488+495375608+495880952+496943888+498669966+500950435
1978+503415548+505511794+506911918+507799148+508727329+510240796+512438545
1968+514842986+516905618+518608502+520289883+522056913+523769160+525469386
1958+527437249+529807986+532347786+534594279+536237306+537542933+539277406
1948+542002878+545700323+550074197+554497238+557701992+558818564+558738533
1938+559152279+560719805+562983935+565365726+567619587+569749445+571915424
1928+574291839+577014412+580175133+583555654+586608680+589028403+590843572
1918+591828712+591671005+590775138+590104325+590426745+591881683+593716906
1908+594738951+594598518+594160913+594337767+595183320+596283886+597518361
1898+599117114+600966893+602206924+602281218+602154919+603125140+604684088
1888+605095479+603963203+602440072+601393505+600822655+600504886+600401419
1878+600556589+600859923+601108654+601586909+603204688+606262003+608976482
1868+608345836+603772034+598034004+593866700+591747654+590595385+589326300
1858+587570686+585471753+583351740+581573717+580550888+580597819+581651514
1848+583560667+586419082+589362179+589573582+585584643+580164382+576606947
1838+575399471+574947370+573993035+573142469+573712050+575317507+575706308
1828+573979083+571657391+569411442+566275303+562339698+559135669+557427711
1818+556786314+556842124+557707247+559360361+561272836+562547719+562463218
1808+561224334+560029120+560223913+562314028+565470461+568045535+569075310
1798+569231689+570065584+572788459+577324691+581361770+581817314+579039837
1788+576244481+575350607+576099639+577828798+580492419+583671201+586245308
1778+588089772+590851424+596296631+604158117+610932204+612559950+609501246
1768+605098862+601770648+601084977+603633655+607591367+609899046+610470560
1758+611537905+613288748+614656890+616774426+621836630+629261236+635032608
1748+636446715+635303566+634702335+636122664+639388603+643068773+645188786
1738+645960952+648654351+655361152+662254351+663052972+658988109+654619731
1728+651670352+650659482+651841951+654704111+659054429+666095912+676742848
1718+688337596+694103592+691136999+684552993+679682140+678513864+681245981
1708+687348229+694939420+700912289+704678289+709643247+718282456+727503447
1698+732673466+733301999+729375031+722462927+717715955+718282094+722883619
1688+729273980+738334727+751159721+761116335+760112230+753216193+748541642
1678+748705389+752487636+756804734+760054789+764173469+770449793+775621805
1668+775633765+772750223+772018164+774772628+778115700+778567560+776768397
1658+776607307+781692947+793966904+810373131+818656397+816022493+814377050
1648+817861460+820567061+815411114+805748895+799146648+798547893+803553320
1638+812373369+820464681+819808243+809384368+798621220+793718414+794414414
1628+797425704+799947323+801590229+801991110+799472692+794770418+791636454
1618+791826113+792111326+788299966+782284212+778215785+776787363+775988016
1608+774205464+771992614+770615110+770116440+769564798+768338719+766527536
1598+764579484+762984597+761956633+761287995+760741849+760433080+760623524
1588+761355825+762275369+762631070+761737801+759869599+758612474+759966966
1578+764702823+770408358+772148690+769717854+768219910+769991893+771919891
1568+770053744+765911627+763350144+764102921+769478183+781898491+799300308
1558+806618789+797613370+785886887+778387565+774514414+772470265+771109371
1548+770700155+772888904+779070096+789484066+803712175+817653198+819903919
1538+809034405+798992323+796660665+798918513+799778200+798584073+799715262
1528+805288458+813229613+820691426+827725238+835370851+842187340+846468258
1518+848875417+849758660+849009265+848511743+851014094+858029604+870229872
1508+886527861+898092711+893870261+881240845+872243277+870142170+873734275
1498+879932439+884945477+887254666+889077868+893293734+900395920+907572036
1488+910773045+909115885+905240197+902310449+902501195+906533019+913896680
1478+924017947+936421706+949246278+958637841+960245050+953860367+945460950
1468+941188670+943101749+948835672+953958458+957303403+961133669+966420202
1458+970472018+968654493+961785032+955981709+954598648+957575328+962942073
1448+967559786+969061958+967786350+965954027+965676847+967914702+972448519
1438+978136114+982314471+982263190+979270686+976957631+977362921+980549313
1428+985362122+990333724+994180963+996102498+996532795+996872369+997557739
1418+997109865+994691894+991845862+990458815+991518368+995011053+999274998
1408+1001894225+1001855991+1000178898+998492262+997460976+996762983+996069217
1398+996110954+998385534+1002714832+1005953290+1005186620+1001124717+996085103
1388+991548448+988412189+987007746+987014450+988235516+990641890+993582208
1378+996097968+998469008+1002153647+1007415416+1012338577+1015488849+1017770434
1368+1020788791+1024912122+1028921658+1031147796+1031436875+1031907519
1360+1034370670+1037937829+1040128451+1039775589+1038646574+1039348071
1351+1042285369+1045792611+1048497728+1050486127+1052419199+1054990347
1342+1059073814+1064647010+1069646759+1071475821+1069452872+1064623574
1334+1058521628+1053053289+1050610432+1052205138+1056007258+1059044822
1325+1059717809+1059083720+1059259849+1060157649+1059334384+1056372683
1317+1054455436+1056077685+1060476082+1065315648+1068435841+1068661016
1308+1067036592+1066827847+1069980293+1073741823+1073161007+1067207406
1300+1059989492+1054661766+1050323045+1045958593+1042457270+1039800111
1291+1036586539+1032597781+1028434585+1023418648+1016602159+1008906172
1283+1002780307+999606237+997971304+995031891+989476997+982581805+976437639
1273+972244545+969897484+967838839+964066860+958233396+951846297+946043578
1263+940258495+933478549+925877512+918583855+912133093+906078864+900138974
1253+894827798+891104562+889343210+888026227+884381876+877235960+868077605
1243+858623044+849110981+839403219+830110834+822134043+815992232+811924288
1233+809858515+808972554+807905209+805817994+802958552+800082621+797747460
1223+796206873+795632943+796278931+798252170+801097417+804086600+807001792
1213+809910098+812418247+814188962+815829270+818468128+822612479+827782136
1203+833097359+837821016+841476783+844105372+846518632+849646495+853476097
1193+857016559+859330822+860333176+860748795+861714002+864190803+868309424
1183+873423210+878942287+884817004+891114589+897684340+904291479+910650008
1173+916810422+923539572+931399487+939208364+944581452+946869500+947896377
1163+949039284+949490902+948314714+946720129+947269415+951422464+958070253
1153+964565168+968644406+968960786+966183973+963434039+962893028+963484594
1143+963863912+965579662+970298426+976239887+980644626+983380729+985242045
1133+985448072+983185332+979712398+977474180+978072451+981028051+983756785
1123+983329932+980139916+979226110+984931523+995341869+1003837082+1005555429
1113+1001675090+997053149+995026999+995049589+994470465+993060223+994159279
1103+999785326+1006266590+1006460054+998055744+986760283+979017122+976576501
1093+978234024+982248634+985817364+985977185+982741264+979227922+978279929
1083+978855187+977405625+973554460+970845840+971717969+974222676+974055124
1073+969516475+963313539+959306721+958332152+957552375+954080347+948531916
1063+944135270+943140285+944545815+945137080+943568769+941962346+941841604
1053+941609483+939502336+936560024+934756995+934055076+933415430+933496186
1043+936029039+940728837+944426101+944176524+940385156+935306523+930719191
1033+928212250+929075380+933243770+938742552+942488498+942319678+938737478
1023+934386133+932193941+933932764+939294254+945634180+949464808+949321115
1013+946745920+944256434+942567926+939850306+933850619+925008402+916251774
1003+909405205+903447920+896521742+888416840+880166312+872377488+865390910
993+859945522+856236300+853144496+849344793+844495623+839724431+836819145
983+836021248+835545289+834069754+832288711+830897919+829023858+825892673
973+822306246+819241803+816487097+813272860+809198695+804879182+802093006
963+802124113+803644042+803828386+802247693+801532727+803595299+807643492
953+812249547+817110435+822210389+827130047+831768478+836461209+841283802
943+846183346+851024120+855103903+857978747+860940628+866149908+874389987
933+884387734+893975299+901608167+906953289+910226296+910874217+908080975
923+903071924+898755370+896630887+896089996+896476744+897434159+897729218
913+896248488+893870805+892448362+892730858+893700112+893894724+893459233
903+893680361+894921600+896373458+897725715+899342467+900900993+902015088
893+903873746+907905450+913315986+917555166+918771219+917203572+914795084
883+913635084+914506066+916743438+918981957+920189071+920416782+920570744
873+921480503+923309444+925692081+927960982+929345311+929484475+929445456
863+931717076+937465495+944147471+947472604+945682742+941399288+938908474
853+939810079+942398682+944514709+945826074+947049435+947931651+947591171
843+946272497+945197360+946164742+950922525+958671605+965858775+969291844
833+968036169+963107813+958073877+957987625+964927090+975676044+985078962
823+991217934+995258637+998319576+999844700+997532914+990533410+982281552
813+978529626+980833198+984528830+984425303+980965718+978346551+978833201
803+981293574+984373902+988447282+992696247+993005862+987558361+981171081
793+979048591+979835253+977754320+970227153+960174381+951201275+944378927
783+939252940+935373568+932443699+929462006+924998859+918861941+912763861
773+909546483+911493870+917721692+923746264+925316689+922785708+920772242
763+922792291+928170513+933866444+937040997+936217309+931719069+926948360
753+927589999+936136372+947783548+954732134+955271152+954149325+955567842
743+960274223+965999630+968156367+964153595+957972162+954915028+955018676
733+955340432+955726636+958226088+961691592+962811788+960562940+955866343
723+949818637+944482696+942801315+944426342+946198808+948257695+953328235
713+961007008+966384867+965837332+962736770+963006702+966196114+965321750
703+957000854+947694155+945432803+950408453+956856496+961638923+966059427
693+968519920+962505193+945905380+925845680+911226234+906511879+911247374
683+920969390+929443040+932513039+930692071+927665803+926524164+927731881
673+928546750+924657412+914971213+904766774+902278376+908155872+913913955
663+914457262+909547027+899342527+888749287+885847082+892997467+902623205
653+903821137+896096338+887934478+884047254+883246519+884594910+890663695
643+901473714+910014590+908904602+900790640+895177157+897025607+903775716
633+910247980+913128320+911697603+906154365+896673288+886110128+878833746
623+873966818+867662711+862680055+864630220+874219898+886223863+894308953
613+899367473+903109070+899459463+888377217+880584105+882648187+891612896
603+898815348+896962186+888195592
##END=
