##TITLE=<SNM>
##JCAMP-DX=4.24
##DATA TYPE=INFRARED SPECTRUM
##DATE=29/4/2025
##SAMPLING PROCEDURE=Instrument type and / or accessory
##ORIGIN=Admin
##XUNITS=1/CM
##YUNITS=ABSORBANCE
##RESOLUTION=4
##FIRSTX=4497.3318
##LASTX=599.83466
##DELTAX=-1.4281778
##MAXY=2.1204367
##MINY=0.38478521
##XFACTOR=1
##YFACTOR=1.9748105e-09
##NPOINTS=2730
##FIRSTY=0.39643231
##XYDATA=(X++(Y..Y))
4497+200744478+201010249+201202074+201242337+201198452+201092255+200932379
4487+200773227+200507334+199951720+199344027+199221954+199642908+200074050
4477+200050523+199477177+198552884+197871228+198098200+199092622+199917026
4467+199951569+199395141+198730659+198430328+198953118+200271881+201716051
4457+202763171+203544867+204253717+204606701+204269518+203382033+202428901
4447+201873407+201958643+202479396+202695804+202037645+201089931+201192370
4437+202642834+203890049+203235285+201048174+199278893+199005017+199539654
4427+199872793+199839276+199551697+198868577+197957082+197441581+197534769
4417+197780092+197856650+197951966+198257081+198653361+198903257+198802629
4407+198268112+197544382+197165155+197421615+197976791+198253308+198072756
4397+197681411+197374229+197372735+197748129+198208411+198331918+198109413
4387+197866022+197749970+197646203+197380250+196843168+196134801+195512559
4377+195088752+194846644+194886152+195229553+195590671+195710058+195712201
4367+195996942+196874769+198160376+199129037+199139405+198239258+197041739
4357+196278107+196409491+197222743+197943274+198083456+197909439+197929842
4347+198302294+198812121+199195635+199439237+199712056+199987245+200027976
4337+199760529+199289502+198686094+198092858+197767944+197896234+198633335
4327+200082305+201785999+202704889+202266142+201010868+199832364+199037524
4317+198476070+198172841+198345651+198935990+199599219+200200424+200856379
4307+201378189+201236241+200373897+199539669+199478278+200158425+201051267
4297+201813480+202342051+202503029+202264602+201900421+201777276+202102553
4287+202874439+203771975+204221814+203943291+203223303+202476136+201987497
4277+202141850+203195897+204670643+205704875+206064786+206012057+205429037
4267+204086627+202549148+201849231+202285277+203181455+203832747+204137349
4257+204282632+204378522+204499387+204704236+204932098+205042611+204941259
4247+204625807+204181023+203746818+203474572+203539494+204078357+204941908
4237+205586288+205520083+204911936+204439520+204480916+204791886+204995376
4227+205077683+205301411+205756487+206152813+206144452+205771971+205351378
4217+204989234+204688254+204835786+205794441+206941360+207030036+205826148
4207+204575191+204486394+205481464+206734595+207709715+208187926+207984436
4197+207279766+206717738+206789044+207552238+208874215+210312681+211048846
4187+210734465+210044208+209704459+209559160+209143895+208551926+208213173
4177+208285400+208675297+209309536+210051663+210614837+210879251+211099628
4167+211469544+211710627+211505144+211104442+211022376+211295014+211500677
4157+211409798+211248427+211250917+211174133+210568492+209603091+209153282
4147+209755029+210904257+211730577+211948555+211836367+211633073+211362909
4137+211130459+211241953+211891012+212775298+213293772+213263393+213192782
4127+213624149+214399069+214784046+214324352+213528999+213480375+214601684
4117+216073049+216716222+216228307+215274526+214600929+214471175+214825487
4107+215423205+215812302+215702740+215466170+215740181+216544725+217369431
4097+217944497+218292908+218281258+217765923+216952158+216137805+215374491
4087+214742530+214713148+215819350+217890395+219858533+220616128+220039552
4077+218938617+218162173+217979796+218056384+217873448+217402752+217298683
4067+218133455+219534645+220429148+220214928+219367510+218769610+218789727
4057+219105903+219081199+218267299+216945639+216177616+216818420+218506359
4047+220060333+220733477+220670215+220349406+220017957+219621193+219111698
4037+218696825+218605161+218779812+219069141+219438635+219781658+219987608
4027+220370760+221483663+223298217+224971789+225620788+225166391+224364760
4017+224030066+224237767+224441982+224327364+224170566+224270349+224464090
4007+224402548+223963439+223283745+222693330+222632271+223194480+223750879
3997+223632443+223175918+223341152+224298298+225165214+225182508+224555483
3987+224037325+224037476+224261445+224197926+223891997+223979405+224898431
3977+226320659+227470867+227871977+227648099+227148549+226533988+225858686
3967+225338144+225355484+226233582+227863541+229460450+230065608+229509828
3957+228469469+227519250+226729465+226296120+226873798+228704802+230721247
3947+231519859+231311827+231510005+232391559+232623813+231378319+229511518
3937+228402222+228962952+231404849+234865465+237482013+237877448+236642095
3927+235597631+235781970+236526209+236710141+236593879+237272954+238673933
3917+239255519+237863775+235200052+232971364+232163636+232462367+233313830
3907+235296591+239534013+245511272+250492103+252333957+251354914+248366186
3897+243890172+239624862+237982438+239741381+242589293+243300422+242408394
3887+243079305+245770992+247483786+247011687+246664046+247063782+246070810
3878+243643279+242550493+244231717+247844346+252382460+256504419+257449975
3868+254939730+252618533+252524891+252364366+249604663+245687719+243522806
3858+244503661+249580215+259904654+271360740+272727221+263179452+251771975
3848+244333960+242494082+245383992+250777191+256645854+262249017+266959564
3838+268904099+267178477+263819712+260851448+258112933+255037491+252557745
3828+251816675+252557987+254631356+259484122+266950086+271790659+270338430
3818+266336115+263035119+259004734+253400968+248690210+247506725+250869097
3808+257171753+262232084+264344585+266359929+269585196+270890195+268615887
3798+265288149+262261029+258730768+254865330+252045368+250934849+251309534
3788+252873257+255170354+257384962+259372900+262081142+265577659+267691005
3778+266653936+264075207+262982239+264950800+269710906+275423360+279616247
3768+281581276+282518895+283170775+283910065+286137168+291022471+297260492
3758+302145161+305426931+309631257+317211160+328074734+337564462+340911124
3748+341287197+344678982+351581077+355526951+352977046+349262370+350114088
3738+357701145+370096237+381144195+385083037+382342258+378063562+376741328
3728+379689944+385179349+390059098+392680808+393808726+394679732+395935775
3718+398093428+402010418+408956097+419769598+432517130+442012050+445245980
3708+444238580+442593696+443571578+448934639+456967098+463263522+465484861
3698+465044499+464348672+465490384+470443537+479939000+491021638+496599508
3688+492634257+484174898+477730097+475325339+476036710+478796353+484302026
3678+493781553+504187108+507848120+504338443+501274591+501325961+500698830
3668+497194375+493245935+491114691+491079015+492571598+495408689+499960386
3658+505795712+510731511+513686857+517748812+527110265+541772060+553878608
3648+553928409+544094178+533424678+527315265+526513136+529054801+532261989
3638+534588997+536009263+537356970+540163879+546534551+557174050+567268152
3628+568539498+561925132+556013414+555972366+562028235+570807891+576537488
3618+575974887+572590709+571341698+573115763+576040202+579195658+582640382
3608+584629467+582902728+578733564+575743207+575843714+578013169+580596848
3598+583445952+587031689+590759766+592924634+592426683+590694693+591196990
3588+594886313+597610099+596332656+593764913+593329562+595135801+597046532
3578+597221952+595609424+593974923+594279524+597130681+602501469+610448088
3568+618927972+622277441+617460984+609456534+604857934+605218796+607650899
3558+609399429+610360499+611375897+612572753+614032014+616630181+621403900
3548+627823891+632507303+631893030+626844228+621444284+618335913+617768120
3538+619040070+621091089+622586569+622938738+623010633+623701087+624217871
3528+622592425+618558478+614966463+614990549+618729190+622786075+623138184
3518+619047434+614078314+612751795+616631388+623337992+628702683+629870744
3508+627054117+623105647+620774897+620443916+620653020+620400393+619933712
3498+619855720+620480015+621540445+622334666+622865817+624442429+628051225
3488+632725824+636552598+638567459+638733945+637209670+634673317+632392610
3478+631102611+630479766+629880041+629102903+628636342+629197555+630889584
3468+633011049+634969951+636643749+637480226+636620328+634592730+633095861
3458+632668598+632381322+631794454+631458463+631529452+631552511+631418320
3448+631329040+631138468+630493650+629275727+627564261+625869154+625224879
3438+626011735+627050857+626887691+625464105+624027178+623808597+624838845
3428+626027974+626375253+625985296+625731220+626114718+626691384+626589609
3418+625643751+624633121+623945927+622801589+620814014+619404070+620327050
3408+623566473+627643762+631392906+634544438+636786573+637468093+636758020
3398+636105113+636488430+637125884+637279151+636957405+635365582+631792220
3388+627932004+626637358+628517363+631606960+633639689+633804666+633309191
3378+634201867+637044271+639671714+639203584+635967481+633647597+635197768
3368+640116845+645584459+649125043+649936528+648332210+644772068+640287799
3358+636675441+634946771+634594300+634982808+636064427+637241302+637429037
3348+637074876+637967371+640328545+642488583+643900398+645806843+648248121
3338+649242633+647745885+645207299+643461485+642819926+642805922+643245257
3328+643747252+643035308+640507648+638319299+639201472+642218209+643191593
3318+640323897+636867401+636795627+640547308+645017391+646488846+644418088
3308+642057034+642718091+646425221+650217104+651258641+649493570+647115313
3298+645913991+645850909+646248775+647087726+648370723+649492122+650139173
3288+650836569+652072481+653613356+654697027+654590483+653532225+653098443
3278+654488587+656795614+658068046+657618206+656793682+656989445+657624847
3268+657298152+656216774+656048417+657619716+660136812+662298540+663002335
3258+661626920+658687149+655325486+652167435+649968824+649951861+651766793
3248+652992503+652463766+652116849+653952909+657357490+660393906+662333613
3238+663551716+663553105+661221691+657560980+655844685+657570035+660082544
3228+659590087+655778465+651941670+651178537+653754489+657345780+659145379
3218+657968806+654502471+650437919+647801843+647873497+650174849+652864227
3208+654321316+654277491+653387953+652428815+652176550+653127599+654645596
3198+655107448+653478138+650208170+646475324+643364840+641847568+642471621
3188+644634134+646311373+645151944+641174439+637123228+635888886+638069146
3178+641372677+642533555+640470523+637201219+635063758+634767426+635896552
3168+637250236+637553690+637008233+636801966+636905250+635640001+632017321
3158+627498584+624269181+622658464+621236206+619064759+616933213+616105067
3148+616840794+618247056+618803318+617637008+615591180+613865890+612210503
3138+610252204+609204209+609999034+611348311+611610717+611196976+611360323
3128+611804488+611061336+608629233+605656743+603587917+602918590+603156488
3118+603384909+602920280+601812403+600649895+599926905+599914288+600675188
3108+601858160+603123469+604577539+605918787+605857517+603726635+600993975
3098+599652244+599764040+599830985+599035134+597852585+596712050+595569644
3088+594853353+595165199+595840380+595351424+593626376+592391249+592635908
3078+593240644+592667057+591080787+590072632+590537986+591468632+591210692
3068+589666437+588352534+588244903+588305993+586653261+583359087+580935375
3058+581157518+582556656+582400915+580560629+579499414+580808850+583355827
3048+584793358+584215967+582719098+581496588+580641639+580000141+579880558
3038+580303897+580584111+580179063+579137828+577568763+575492089+573238726
3028+571445888+570581281+570522124+570689817+570686678+570628668+570617923
3018+570279517+569354666+568329911+567869508+567850131+567335399+565638360
3008+563182835+561000462+559650944+559050494+558963146+559150338+559352560
2998+559386123+559192714+558793641+558293820+557846033+557508110+557198921
2988+556827737+556416531+555937958+555127619+553768865+552232215+551339901
2978+551396161+551629834+551006385+549637007+548830773+549329145+550141355
2968+549863737+548526473+547170194+546264539+545476596+544370831+542696187
2958+540617159+538935875+538445168+539149627+540501439+541827355+542207231
2948+540904617+538368746+536022362+534843857+534707674+535031773+535312531
2938+534949496+533523616+531606909+530306890+529734087+529076894+528349738
2928+528499081+529507779+530074425+529518705+528488578+527565538+526573863
2918+525402179+524494714+524340723+524876884+525438338+525246860+524085560
2908+522484079+521143434+520312692+519828746+519595255+519673246+519841664
2898+519550223+518602252+517470530+516545800+515584851+514451378+513820927
2888+514299983+515177991+515016455+513431996+511418403+509963608+509192748
2878+508829050+508729206+508761200+508625741+508106844+507338096+506680119
2868+506342920+506187269+505929662+505467629+504925552+504453196+504027352
2858+503409125+502373625+500969476+499456158+498163111+497399193+497220513
2848+497393730+497731471+498161602+498396150+497912476+496490037+494546678
2838+492820996+491796845+491438519+491340878+491046207+490357353+489472584
2828+488679600+487893528+486799142+485467281+484374706+483679060+483010851
2818+482159675+481442510+481244090+481603412+482379856+483316720+483798764
2808+483163121+481491284+479707169+478698833+478577952+478808486+478825569
2798+478442011+477737914+476763504+475517964+474133404+472866495+471869598
2788+471055276+470295794+469741131+469646690+469825582+469745689+469301222
2778+468844803+468412952+467682838+466677943+465799815+465226046+464849641
2768+464599881+464353984+463816374+462862337+461737708+460723124+459877261
2758+459190550+458705065+458327422+457755826+456781717+455551842+454441128
2748+453710229+453282091+452846136+452259328+451758179+451651876+451949596
2738+452336505+452341636+451621995+450368397+449294113+448910312+448954017
2728+448746150+447928960+446690181+445432780+444337971+443275398+442210470
2718+441474078+441258696+441057168+440175659+438694032+437357643+436681888
2708+436645940+437001369+437420905+437570339+437375239+437004387+436519446
2698+435870493+435109351+434247189+433200190+432155273+431517608+431290425
2688+431030916+430469190+429681247+428797202+428031262+427768433+428119334
2678+428553087+428328831+427254305+425843094+424724200+424038183+423516660
2668+423037362+422800370+422912558+423133825+423153444+422823278+422122140
2658+421247965+420629677+420438320+420267367+419751156+419186352+418990951
2648+418953585+418605883+417964717+417374378+416958252+416669466+416557399
2638+416560025+416295506+415482903+414398176+413593209+413345623+413600091
2628+414124994+414496118+414332438+413757976+413232107+412894848+412478933
2618+411811026+411075449+410669495+410900662+411571739+411947420+411495770
2608+410494527+409596327+409122070+409036744+409199880+409376961+409323629
2598+409037831+408764317+408705462+408803917+408795949+408501549+408063903
2588+407776023+407671682+407486482+407037005+406425297+405845583+405421247
2578+405271452+405460122+405751594+405723434+405368700+405209880+405508384
2568+405824093+405692980+405273957+404972434+404809419+404501558+403997993
2558+403663632+403849586+404393203+404782858+404805676+404679695+404577406
2548+404456284+404315573+404233960+404194964+404109638+403941945+403752248
2538+403687295+403828972+404005509+403979250+403830300+403843218+404034635
2528+404113532+403873823+403381969+402872338+402628132+402789457+403138608
2518+403265405+403016882+402607699+402320633+402289696+402528922+402988994
2508+403514591+403842614+403809926+403558990+403351727+403209416+403007828
2498+402851271+402977675+403361807+403741382+403943424+403944721+403774975
2488+403581747+403599042+403854204+404089959+404128804+404089265+404083531
2478+404014020+403885594+403938262+404213919+404383484+404217239+403875151
2468+403632454+403664417+404059686+404686365+405156577+405219206+405060416
2458+405004397+405067268+405002677+404722463+404494917+404599741+404881223
2448+404883094+404428033+403853570+403660463+404054072+404746669+405116918
2438+404736830+403852091+403190341+403227405+403753787+404182680+404151381
2428+403764774+403395159+403342129+403582653+403810651+403857343+403972550
2418+404418858+404977897+405254520+405250958+405222164+405227748+405219598
2408+405296533+405548467+405865775+406057282+406022995+405841327+405762158
2398+406002501+406531328+407144847+407678564+408081198+408394250+408643255
2388+408667069+408248952+407509813+406798503+406066216+404801088+402755925
2378+400297684+397821726+395234636+392343398+389487292+387356893+386182886
2368+385470730+384677173+383760501+382909507+382355749+382615681+384177170
2358+386893411+390263917+394094464+398359336+402595595+405840633+407186137
2348+406291227+403686088+400750511+398806218+398032973+397837059+397733020
2338+397475593+397058774+396733980+396762472+397217865+398009702+398902862
2328+399552630+399729982+399590328+399605691+400096035+400954998+401925152
2318+402890720+403814816+404671394+405480767+406201162+406708107+407091967
2308+407715416+408741167+409867909+410739005+411366710+411956233+412504558
2298+412859987+413152606+413800140+414928904+416092710+416795448+417052331
2288+417191623+417329195+417309214+417048286+416685644+416371052+416101221
2278+415861482+415749565+415780834+415724906+415351368+414751039+414223208
2268+413908586+413719312+413592334+413624629+413918214+414397240+414838508
2258+415111297+415368542+415890849+416739128+417688909+418471239+418923281
2248+419000911+418843177+418710857+418678260+418502417+417951980+417163010
2238+416495102+416053805+415560955+414821394+414062879+413560009+413247439
2228+413012378+412968553+413144728+413344536+413520832+413812787+414132962
2218+414220643+414116483+414145337+414454255+414900684+415373703+415960058
2208+416716370+417454693+417938609+418239196+418708744+419564598+420607101
2198+421428607+421878024+422200644+422661138+423209704+423666968+424037549
2188+424434267+424879066+425349671+425838778+426287078+426639971+426974393
2178+427418135+427996130+428649640+429306682+429883469+430336991+430726405
2168+431113797+431469920+431796132+432205678+432724182+433149936+433351555
2158+433584654+434230528+435294038+436402157+437262146+437899841+438458820
2148+439000625+439548769+440145929+440808615+441548538+442486096+443819919
2138+445560240+447358692+448840289+450126786+451697633+453685661+455700099
2128+457435832+459064145+460895074+462986900+465147451+467083656+468576933
2118+469684660+470700783+471812493+472903136+473791044+474544368+475396842
2108+476410459+477424469+478341624+479277340+480386878+481687138+483048277
2098+484214286+484851619+484739008+483954868+482775307+481364971+479688214
2088+477751013+475703616+473589697+471260818+468676867+466024191+463440512
2078+460932108+458626379+456790078+455542939+454754573+454224116+453852298
2068+453652068+453624813+453651766+453583916+453401553+453169541+452930677
2058+452729511+452605642+452527590+452491552+452649648+453150586+453876746
2048+454522319+454980911+455537536+456576205+458168843+460100008+462217337
2038+464507190+466888194+469267900+471812372+474873538+478610097+482779593
2028+486827182+490202788+492782423+494947501+497095527+499158347+500710571
2018+501424598+501332722+500771087+500138221+499638128+499199818+498635919
2008+497847221+496831038+495587430+494173080+492814778+491773544+491067516
1998+490551667+490358077+490940297+492377344+493854957+494351307+493865943
1988+493394765+493696710+494622859+495677525+496809095+498389781+500612418
1978+503161055+505492047+507337010+508836535+510266640+511861965+513830525
1968+516118235+518167504+519459434+520259148+521238026+522625815+524319353
1958+526432126+529113234+532122184+534996520+537393310+539196048+540651205
1948+542426839+545288378+549555997+554567070+558710519+560817375+561542660
1938+562452540+564218214+566369077+568307757+569989826+571654388+573331507
1928+574991060+577031394+579944545+583387398+586382404+588608662+590427035
1918+591625460+591508352+590373189+589635590+590380856+592352736+594267874
1908+595226469+595623187+596233235+596965764+597236259+597112813+597323486
1898+598365566+600031396+601601729+602585134+603362755+604515243+605585513
1888+605557684+604488863+603320741+602531108+602053863+601827253+601715517
1878+601441823+600922986+600370768+600354349+601891904+605455305+609153804
1868+609291617+604880269+599163469+595204436+593191507+591774440+590115129
1858+588277319+586551727+585120113+584045738+583298782+582839949+582729783
1848+583329387+585103090+587343051+587503682+584127955+579323269+575799950
1838+574162068+573417769+572787076+572846354+574507778+576834363+577133713
1828+574616133+571405685+568705079+565673130+562167678+559516209+558393301
1818+558070711+557821524+557994832+559292678+561405933+562826260+562351429
1808+560513679+558942561+558960430+561035655+564570504+567853873+569195363
1798+568785968+568744739+571175332+576169262+580629687+580610129+576756734
1788+573345512+573035960+575493718+579013476+582370732+585044476+586842143
1778+588382656+591124552+596301991+603623170+610206267+612440312+610301583
1768+606439978+603142846+602369752+605282843+610239407+613352849+613399330
1758+612740326+612832201+613706768+616569575+623041298+631742419+637883162
1748+638860168+637236291+636340476+637323277+639864399+642878541+644789211
1738+645756137+648816216+656093992+663687719+664696658+660302514+655731984
1728+652900446+652053043+653367852+656317222+660340302+666467463+676182835
1718+687631224+694245832+692563341+686905819+682063707+680069129+681716850
1708+687007353+694224704+700431788+705177739+711486598+720940348+729558951
1698+732686578+730707755+725116334+718861743+716604758+719880703+726104930
1688+732621142+740637846+751580135+759673925+758150858+751768534+747597077
1678+748242861+753539460+760837157+766396706+769825193+773136088+775596562
1668+774712880+772065999+771605415+774145027+776587694+776113527+774340549
1658+775047604+781168064+794522837+812137021+820720732+817137711+814408432
1648+816987644+818836501+814047933+807278006+804642474+806221982+810124696
1638+815789883+821349433+820507221+811341773+801586982+796673579+795837525
1628+796089971+796182571+796817972+797130783+794767436+790807437+789326745
1618+791593871+793473152+790140706+783666085+778665756+776298244+775082977
1608+773440750+771323873+769741708+769321447+769688707+769954796+769642709
1598+769042501+768745023+768923582+769058920+768421285+766804713+764803193
1588+763380090+762997557+763016995+762184925+760263268+759109935+761327260
1578+767540320+774109835+775048630+771032612+768504649+770246298+773191684
1568+772640673+768775990+765098740+764095112+767823492+778947600+795884187
1558+803975804+795251623+782556880+774278917+770820610+769890024+769505681
1548+770257586+774638873+783635118+795330037+807457170+817808305+819976674
1538+812093498+803735370+801472651+803871010+805541308+804798095+805251375
1528+809177208+815274307+822092042+830385579+839484203+844806216+844595603
1518+843185056+843316048+844064029+845051479+847844745+854285682+865585755
1508+880535310+890456587+886082544+875387751+869353190+870584333+877609965
1498+886577597+891618008+890114378+887245475+889681260+898601445+908633009
1488+913288473+912813099+911398930+911022434+911559138+912787202+915189183
1478+919552541+926262283+935174199+944961104+951591225+951804373+948937884
1468+947950556+948919715+948220991+944366992+940781436+941530867+947850772
1458+957092160+962891418+961666131+957444932+954268349+952988612+953124675
1448+953429759+953223854+953785429+956607671+961359779+966919026+973407652
1438+981365862+988665188+991640817+991027147+990013197+988752114+986420820
1428+985299421+987586769+990673892+990421445+988485059+990974449+999701466
1418+1008478707+1010995019+1008662518+1005383918+1003085463+1001841403
1410+1000562753+998815249+997581812+997394500+997498448+997935369+1000076453
1400+1004233483+1008655093+1011170922+1010674240+1007611625+1004397435
1391+1003965041+1007133052+1010981377+1010054534+1002874186+995191120+993299283
1381+997933257+1004633280+1008869691+1010694402+1013030524+1016421101
1372+1018680319+1019817594+1022115204+1025670577+1028707295+1031253609
1364+1034271251+1036420967+1036330057+1036603148+1040430043+1046074767
1355+1048520271+1046239201+1043010161+1042442610+1044273357+1046392528
1347+1048120897+1050249605+1053579455+1058168155+1062752268+1065436334
1338+1066389617+1068059914+1070397485+1069427059+1063710501+1057893978
1330+1056155830+1057093177+1057642498+1058150046+1060420008+1064118567
1321+1068045185+1071325415+1072846008+1073109682+1073568455+1073741823
1312+1072658273+1070831751+1067953189+1062787279+1057311456+1055600594
1304+1057804638+1059850405+1059437871+1058126262+1057208232+1056152329
1295+1054651898+1052684002+1049029268+1042187990+1033152327+1025206733
1287+1020140426+1016366411+1011347248+1004765359+998511492+993915247+990454767
1277+987434347+985274490+983966383+981718755+976989344+970658150+964913281
1267+960587108+956430137+950795192+943365236+935304345+928096592+922059255
1257+915966925+908571014+900430019+893443504+888568794+884719987+880010255
1247+873611755+865793169+857058123+848440849+841356964+835746890+829553629
1237+821695263+814163894+809355586+807092807+805552475+803672892+801817637
1227+800899667+801099173+801354879+800681207+799674078+799671422+800938180
1217+802660935+804225714+805631251+807060753+808846830+811781049+816692158
1207+823217063+829422939+833530712+835882349+838227284+841439966+844691221
1197+846684350+847668479+849584522+853467858+857879569+860797971+861971828
1187+862498874+863282954+864982830+868508745+874525740+882561156+891172877
1177+899648173+908794002+919028996+928805639+936270788+941157087+944221392
1167+946105864+947427554+949078172+951587482+954377006+956308562+957106466
1157+957582142+958271026+959081546+960391887+962931802+966277769+968346596
1147+967344237+964090326+961148743+959890496+959441985+958925986+959378662
1137+961865033+965560332+969059204+971657974+972943385+973550354+975862271
1127+981256420+987646470+991772171+992556975+990469436+986312948+982195336
1117+981216760+985501704+994132500+1002424226+1005349872+1002300116+996209959
1107+989775179+984907049+982865870+983310940+984311730+984483106+984448396
1097+985387735+987194699+988820930+990010602+991306335+992387772+992564219
1087+992512547+992779058+991757563+987471351+980884331+975330395+972582765
1077+971426113+969237341+964278543+957699250+952385205+949788185+949260414
1067+949720395+950599610+951159133+950251546+947369845+942962602+937933057
1057+933488568+930444184+928816323+928808234+930991875+934538013+937086137
1047+937693348+937999881+939675490+942758931+946674139+950756317+953169164
1037+951974300+948535794+945739871+943282898+938798629+932993999+929814880
1027+931546689+936601950+941542819+943888419+943624866+942520791+941663670
1017+941180931+941892332+944215657+946176612+944553882+938185744+929487219
1007+921633320+915158216+908380442+900599765+893713456+889640815+887323164
997+883960355+878428513+871897934+865553158+859359958+853360530+848745148
987+846509714+845809662+844746515+842573438+840044450+837726195+834997882
977+830863971+825410604+820106821+816534183+814972059+814232166+812896110
967+810381428+806722830+802349150+798261720+795529060+794543241+795237015
957+797739382+801902872+806427887+809742223+811834834+814135764+817752951
947+822636896+828085917+833354386+838036592+842264370+846592173+851969420
937+858956298+866479699+872896008+878736857+886100835+895088086+903200588
927+908356839+910289241+909342780+906524341+903571712+901072604+898416970
917+895604387+893356337+892294759+892793736+894555667+896137107+895925408
907+893715991+890984659+889555399+889908413+890855539+891239399+891617465
897+893739714+898695795+905452562+911164955+913575689+913322036+913061138
887+914492451+916548903+916635647+914337796+912449461+913486832+916774849
877+919830702+921541565+922472030+923296253+924501801+926775747+930457283
867+934071633+934808146+932193680+929287653+929001161+931668204+936083958
857+940376387+942556587+942428674+942249753+944237328+947931843+950526206
847+949825732+947049488+944994123+944420053+944490740+944889813+945385771
837+945640390+946394952+949202102+954203275+959372384+962879949+964384484
827+965230015+967775846+972534171+977294368+980593311+983955638+989005465
817+994394725+997268699+996243824+992286058+988550918+988581221+992097176
807+994264035+992615590+991543871+995343058+1000874477+1001266366+994878007
797+986893659+982194008+980191583+977178830+971949718+967081770+965027189
787+964810841+963151168+957330480+947151384+935210961+924105686+914826873
777+907733330+903056497+900667978+900478432+902746403+908028877+917053735
767+928379764+937219543+939206395+934467989+927350240+922932614+923890485
757+929656482+937776108+945702868+951915264+955101505+953689389+948674090
747+944113037+942801548+944063175+947001197+952434342+959522210+964676892
737+966025142+965489222+964448591+961664501+956102235+949619827+947149875
727+952575716+962169695+965015901+956707394+946352334+944049714+951290004
717+961587294+966910454+965838977+963145252+961562363+958844734+952901144
707+945279468+938983165+935833142+935906304+939087355+945996302+956322990
697+966617865+970110037+962969289+949510265+936610159+926696669+919974612
687+919473765+927962944+941465974+951312822+951732479+943588767+934365550
677+931412921+936596819+946419279+953278907+950244906+936775922+922758643
667+921453976+929018063+931822919+924617339+913332056+908284884+912625243
657+920100534+924014656+925094282+927071596+928998022+927499040+922676788
647+916165163+909866928+906857797+907765927+908206651+901828856+888800173
637+879049608+881354099+892654474+903501688+909670742+910260930+907197410
627+905790545+910754232+920800706+926744177+920028880+904637998+891770792
617+886091720+883326825+878121678+870932880+864319299+860469465+863263154
607+874022417+885102701+885335408+874257176+861013836+852442741
##END=
