##TITLE=<SNM>
##JCAMP-DX=4.24
##DATA TYPE=INFRARED SPECTRUM
##DATE=29/4/2025
##SAMPLING PROCEDURE=Instrument type and / or accessory
##ORIGIN=Admin
##XUNITS=1/CM
##YUNITS=ABSORBANCE
##RESOLUTION=4
##FIRSTX=4497.3318
##LASTX=599.83466
##DELTAX=-1.4281778
##MAXY=2.1595514
##MINY=0.40511391
##XFACTOR=1
##YFACTOR=2.011239e-09
##NPOINTS=2730
##FIRSTY=0.41791698
##XYDATA=(X++(Y..Y))
4497+207790816+209188869+210230063+210058146+208801337+207141970+205876892
4487+205657306+206667501+208457414+210064044+210631021+210252112+209796758
4477+209662375+209457577+209087915+209033904+209353481+209520449+209250112
4467+208658018+207910589+207289260+207138843+207531518+208248037+208852681
4457+208774620+207821830+206539119+205592685+205261861+205688261+206724357
4447+207598509+207657336+207181726+206817147+206725869+206743250+206842456
4437+207059479+207208725+207076342+206947589+207441010+208571630+209454569
4427+209256157+208053448+206580387+205646400+205683563+206327727+206690084
4417+206360741+205726817+205215007+204805233+204434993+204377233+204855614
4407+205583780+206106184+206474291+206995332+207340752+206731737+205170094
4397+203739530+203466229+204287881+205249844+205651438+205822303+206449293
4387+207322215+207396423+206250614+204769122+204151867+204731706+205752570
4377+206182971+205767477+205056100+204436771+203731291+202879781+202318287
4367+202369305+202769699+203088476+203307174+203680718+204147600+204275389
4357+203912366+203468185+203311619+203324140+203311678+203479772+204153542
4347+205173087+205824941+205471016+204210072+202775700+201825873+201478823
4337+201425049+201431614+201680391+202382033+203334231+204336098+205502504
4327+206580387+206825282+206182837+205532880+205319917+205000459+204077674
4317+202871053+202130722+202287065+203023752+203583957+203653408+203654698
4307+204021085+204684660+205405728+206049951+206429778+206441158+206454790
4297+206875292+207265907+206791942+205658091+205111178+205836469+207250215
4287+208383517+208724062+208228670+207123670+205779465+204560234+203819028
4277+203916796+204906809+206207746+206913641+206622292+205830631+205320970
4267+205315146+205511261+205743694+206143140+206693951+207095931+207158210
4257+207025457+206941751+207025813+207300136+207706324+208035148+208005216
4247+207550988+207018211+206896008+207185772+207275672+206775790+206138176
4237+205986826+206261861+206583602+206964837+207580743+208304508+208901372
4227+209305012+209465312+209212104+208458643+207467475+206810020+206964170
4217+207926325+209260336+210345361+210528985+209475744+207623996+205971342
4207+205275523+205718830+207172658+209249119+211165072+212146417+212064118
4197+211369737+210508714+209726018+209264129+209326172+209772813+210108364
4187+210000134+209689136+209594583+209637985+209393623+208818066+208357689
4177+208426000+209090878+210097962+211009959+211526821+211711112+211755654
4167+211777066+211939678+212371293+212933469+213449487+213929113+214225782
4157+213966024+213178720+212435277+212134622+212181120+212423245+212834634
4147+213236539+213305872+212912472+212278281+211797218+211671237+211733086
4137+211731190+211659279+211599029+211445219+211090464+210719943+210608334
4127+210759284+210960526+210980871+210622500+209976218+209696041+210455755
4117+212026051+213439130+214059718+213894009+213051523+211803471+210980767
4107+211300182+212355705+213140979+213457089+213877799+214532142+214919719
4097+214772295+214265346+213514093+212562207+211720284+211426875+211853630
4087+212776503+213705037+214143543+213968840+213616693+213676631+214196428
4077+214597207+214455104+214079440+214038928+214440538+214912547+214997750
4067+214482502+213660465+213198369+213433484+214008937+214386645+214379577
4057+214092377+213703496+213399536+213337909+213617937+214202592+214762116
4047+214851882+214456467+214089620+214126354+214358476+214455859+214409983
4037+214253240+213812170+213060118+212402959+212318882+212844117+213555998
4027+213967358+213886111+213500328+213223915+213422045+214124724+214912828
4017+215208179+214753892+213740526+212632310+212024732+212296078+213132222
4007+213762130+213856698+213826114+214206296+215072032+215981524+216390232
3997+216240111+216008493+216032498+216127688+216020110+215737918+215489659
3987+215465447+215713172+216032809+216189983+216274504+216568476+217139350
3977+217831272+218475465+218885431+218899731+218621554+218372154+218273067
3967+218131289+217874021+217808052+218196696+218801873+219137884+218970427
3957+218324559+217342222+216448495+216384052+217690739+220021845+222018867
3947+222416268+221557483+221022823+221621362+222568967+222791472+222158659
3937+221115894+220191762+220030588+220915112+222084614+222367769+221736112
3927+221335422+221897598+222826931+223062047+222578969+222461463+223540176
3917+225271172+226157386+225513860+224137796+222931931+221845068+220723235
3907+220460395+222356419+226413543+230787681+233463348+233957569+232745510
3897+230327393+227573843+225893405+226228067+227751851+228468340+228227060
3887+229022218+231593108+233980507+234600384+234315673+233649875+231789637
3878+229356080+228454219+229806751+232385154+235409411+238239080+239006766
3868+237259647+235639993+235956236+236610727+235307094+232574171+230500229
3858+230523537+233749570+240762123+247843401+247849847+241588769+234804026
3848+230530591+229382041+230842833+233822133+237216972+240472196+243313305
3838+245040656+245022964+243640454+241643210+239356764+237005906+235197590
3828+234512944+234926630+236435773+239775029+244734637+248188465+247860783
3818+245988453+244603262+242509567+238759144+235110742+233864765+236008647
3808+240389853+244022045+245612493+247097543+249578710+250978408+249966909
3798+248380076+247515689+246685368+245441332+244698052+245263488+246848513
3788+248875719+251317767+254244805+257456287+261050900+265285439+269531950
3778+272729740+275140937+278188267+283026397+289822416+297226235+302832200
3768+305770588+307488604+309382064+311955576+315826069+321504137+328022409
3758+333378959+337417575+342433313+350859804+362778517+374277083+381260459
3748+385523181+391037364+398244964+403456713+404565981+404779892+408040125
3738+415712029+425779779+433957241+437381300+436118223+431822101+427331865
3728+425572892+427160007+429616991+430296392+429329435+428301992+427852595
3718+427598972+427541834+428802778+432439800+437025226+438850672+436802661
3708+433465139+431277869+431188518+433080525+435851560+438056759+439144037
3698+439620728+440648942+443482271+448356054+454200675+459485773+462674939
3688+462847360+460835683+458400688+456598595+455632083+455636114+457630039
3678+463157943+470978411+475219914+473636415+471367085+470876079+468233871
3668+461465176+454901561+452288752+453173795+454784115+455279328+455223198
3658+455882061+457020816+457757117+459090461+462969163+468886629+472306035
3648+469917154+464678614+460456196+458239203+457406318+457311988+457753502
3638+458663468+459950817+461590802+463717674+466943707+471907641+476874303
3628+477705823+474282446+470992755+471006862+474838472+481022927+486591906
3618+489037658+488823747+488175553+489006778+492443284+497766434+501621042
3608+500856498+496602874+492482522+490289711+489982062+491655802+495613869
3598+501000528+505836496+508763326+509988588+510629669+511518802+512785968
3588+514100256+514888272+514866697+514238596+513324569+512614318+512512489
3578+512702396+512625461+512450788+512663810+513272588+514439112+516864623
3568+520073586+521447086+519564917+516347775+514124439+513492367+513787421
3558+514138072+514152534+514198291+514882463+516063271+517216696+518622618
3548+520737664+522872982+523913850+523651692+522452272+520706665+518958154
3538+517666745+516845004+516455531+516403727+515875499+514158580+512122068
3528+511431672+512429983+513882255+514604539+514681533+514824318+514978483
3518+514394717+512716976+510154726+507213196+504870132+503759205+502942561
3508+501400671+500341073+501719077+505265058+508530448+509400969+507841890
3498+505587318+504454520+504517762+504336569+503248640+502393588+503103839
3488+505160918+507248700+508779507+510116970+510821768+509439673+505860560
3478+502175231+500639979+501808163+504369287+506272853+506524520+505870932
3468+505466878+505489223+505201993+503860500+501494320+499275488+498741452
3458+500039914+501442753+501133119+499074736+496538327+494508217+493279902
3448+492891407+493140081+493341160+492727699+491315672+490086736+489865030
3438+490124699+489626788+488108369+486562567+485975274+486533879+487817049
3428+488912240+488706034+486964309+484894368+484098084+485017831+486516394
3418+487091476+486502287+485763052+485570034+485625038+485715161+486406001
3408+487977794+489545023+489895733+488615941+486209308+483781041+482371118
3398+482073812+482206225+482259065+482021623+481316914+480431575+480203913
3388+481028173+482375060+483688755+485003635+486257436+486775796+486108072
3378+484867933+484130565+484240218+484636122+484788124+484905956+485566330
3368+486845885+488019047+488466873+488732736+489953019+492392162+495186402
3358+497300026+498092487+497559814+496492155+495717979+495487917+495944841
3348+497173096+498392520+498285594+496628687+494755616+494194255+495347947
3338+497246208+498293714+497659449+496117588+495312058+496201339+498270480
3328+499956400+499737036+497181542+493375507+490362111+489646259+491038015
3318+493039052+494394593+495185632+496084455+496965646+497040180+496229848
3308+495267071+494246266+492533081+490249377+488594426+488669789+490442187
3298+492579609+493595138+493588648+493867432+494628538+494725240+494108904
3288+494570630+497114536+500102860+501118716+499973055+498614492+498446931
3278+499052568+499523481+499910287+500715195+501677409+502003225+501555606
3268+500985355+500632926+500033868+498886726+497916213+498047381+499097377
3258+499922141+499732294+498896387+498370708+498659598+499306843+499252550
3248+498001683+496323557+495329276+495209933+495456532+495783119+495952932
3238+495380013+493874278+492151253+490976935+490450722+490369372+490590573
3228+490935386+491270448+491623618+491791712+491063086+488988611+486365370
3218+484856257+485465983+487604087+489712969+490553855+489808989+488002984
3208+486092484+484685821+483620622+482525284+481512421+480958114+480838444
3198+480700549+480270208+479728110+479309742+478965996+478491587+477729828
3188+476610366+475257670+474004492+473066045+472425467+472149795+472408160
3178+472995690+473285320+472812777+471572757+469860105+468168257+466955680
3168+466169413+465395207+464706027+464627048+465003600+464880019+463846441
3158+462484173+461274203+460177086+459337001+459077925+459120926+458707033
3148+457591186+456324938+455521957+455239705+455035011+454331309+452929181
3138+451414318+450671557+450713047+450509864+449330715+447599304+446088501
3128+445129695+444784378+444914183+445030207+444811436+444670607+445219284
3118+446396684+447477797+447801627+447254521+446096977+444612728+443062925
3108+441788467+440998644+440412952+439483040+438240382+437529983+438002199
3098+439196107+439974342+439747036+438932971+438188727+437561219+436638894
3088+435322680+434081711+433480431+433666721+434268743+434669685+434485469
3078+433902207+433472370+433580451+434060433+434216317+433448839+431983853
3068+430666602+430109568+430359190+431030677+431406104+430987083+430222836
3058+429969539+430238631+430331717+430007028+429560179+429057231+428377445
3048+427686694+427139914+426415141+425155768+423622531+422480161+422114603
3038+422352905+422702133+422815371+422744364+422560237+421957089+420746793
3028+419472514+418929912+419215246+419571053+419163590+417982278+416865039
3018+416468483+416488546+416278458+415863112+415723350+415846101+415642118
3008+414794831+413777998+413327919+413562309+413886198+413744628+413149956
2998+412385146+411555551+410630085+409669056+408753725+407803987+406783834
2988+406035116+405976644+406418158+406665736+406467146+406306787+406579584
2978+407032152+407158608+406759681+406015349+405262363+404710781+404276528
2968+403816996+403464241+403422662+403563788+403623089+403567729+403319826
2958+402509287+401094030+399830212+399500959+399909103+400091985+399465336
2948+398408495+397697858+397656279+397970685+398165718+398091599+397948340
2938+397887972+397722515+397158605+396229198+395292114+394668222+394391008
2928+394209252+393793255+393056242+392329840+392088664+392456562+393063888
2918+393374501+393078914+392230293+391168206+390386680+390255957+390610460
2908+390782911+390343442+389603703+389098057+388886754+388648571+388173954
2898+387570155+387105080+386885598+386700196+386302869+385739552+385212391
2888+384829200+384652630+384693854+384728824+384499828+384192179+384290451
2878+384866393+385371920+385239567+384424820+383297653+382297860+381783234
2868+381882988+382313507+382531567+382212123+381515564+380923441+380869326
2858+381351589+381798111+381579874+380783471+380155163+380153740+380353960
2848+379991129+378941933+377825938+377169891+376912741+376778787+376674144
2838+376581502+376429530+376196563+375908918+375555274+375191258+374984815
2828+374943384+374780150+374298006+373739371+373507916+373638313+373782639
2818+373652301+373239919+372670290+372032705+371352949+370670971+370135689
2808+369913717+369977375+370156642+370391328+370672067+370742838+370188085
2798+368944627+367523769+366536868+366082670+365798166+365455843+365206014
2788+365198634+365278117+365172288+364847006+364579869+364622515+364815740
2778+364764322+364387503+363923288+363388895+362512210+361263002+360062605
2768+359384301+359335224+359633063+359891458+359880819+359539770+358917152
2758+358197506+357611547+357253962+357108806+357147036+357199047+356941482
2748+356279774+355540925+355066278+354802549+354452402+353871363+353213093
2738+352780974+352780618+353118644+353400006+353257073+352740995+352233038
2728+351961426+351823590+351658370+351445852+351244003+351078131+350878653
2718+350516889+349943673+349218130+348403146+347592548+346973249+346676743
2708+346672742+346854498+347044671+347050006+346931848+346913029+346876784
2698+346458357+345720515+345183159+345143506+345381570+345460816+345068705
2688+344226960+343272273+342492674+341896580+341454532+341275888+341359046
2678+341452754+341360883+341173733+341042269+340902032+340583714+340078039
2668+339560361+339244859+339269516+339584514+339921829+340035067+339962371
2658+339874323+339734560+339343042+338680149+337996599+337540179+337338626
2648+337291979+337320755+337296187+337000807+336414819+335909055+335861815
2638+336181200+336456250+336487190+336421131+336404358+336324904+335985367
2628+335419057+334876544+334500110+334200522+333915485+333771722+333880189
2618+334136598+334319984+334295564+334087758+333817983+333586439+333406253
2608+333273189+333237359+333312456+333378485+333302054+333087817+332806544
2598+332499517+332257215+332229179+332451803+332781442+333018706+333023359
2588+332798275+332541511+332488226+332652438+332841158+332879359+332713606
2578+332399970+332101331+331996687+332100916+332230809+332203752+332040696
2568+331921975+331948736+332031835+332054387+332055069+332140805+332252028
2558+332167181+331811255+331422908+331288539+331443624+331725993+331941979
2548+331931636+331692831+331468103+331523551+331859147+332216466+332298320
2538+331994108+331488640+331099552+330991945+331129158+331379729+331552594
2528+331538340+331533242+331880959+332597908+333259704+333440749+333137605
2518+332682310+332327866+332057855+331787962+331570702+331522751+331681955
2508+332004036+332398103+332704923+332745198+332481558+332080526+331745879
2498+331557810+331528352+331688978+332018558+332363666+332523700+332421812
2488+332205619+332144954+332362303+332705486+332904905+332773233+332304247
2478+331725786+331378543+331418315+331701366+331971437+332062685+331980179
2468+331895569+331991026+332248680+332458886+332445935+332226868+331944617
2458+331713191+331607361+331727297+332054061+332250547+331929947+331220703
2448+330740070+330862051+331307892+331616163+331725045+331829896+331925531
2438+331863326+331725934+331796497+332182859+332694254+333062597+333133189
2428+332876277+332381329+331906831+331803402+332220733+332919397+333483958
2418+333715977+333767691+333910210+334229269+334606177+334962369+335345678
2408+335746769+336045053+336182208+336232322+336331839+336619839+337093686
2398+337507253+337643400+337660737+337932230+338567088+339253512+339589819
2388+339530162+339428482+339587537+339891660+340007476+339778451+339265367
2378+338581462+337877730+337351903+337117157+337141874+337359963+337718260
2368+338095316+338341026+338419354+338381865+338272509+338218097+338532711
2358+339452517+340759632+342080292+343620642+345929625+348728369+350797836
2348+351147034+349974020+348746417+349003063+350699712+352499434+353555475
2338+354162238+354858175+355629358+356187163+356489566+356659557+356702381
2328+356546259+356211790+355858324+355726830+355998472+356672271+357532953
2318+358167011+358163277+357504770+356640798+356031960+355814908+355941778
2308+356340231+356862414+357293615+357450477+357233395+356735454+356325473
2298+356377247+356857109+357368415+357618126+357667885+357737440+357969696
2288+358373780+358805632+359044349+359041504+359009378+359130085+359309974
2278+359347078+359179843+358858977+358445113+358022981+357665070+357321591
2268+356873172+356341209+355925745+355763786+355737854+355618333+355355316
2258+355132306+355134233+355355019+355682554+356094017+356639345+357254910
2248+357777656+358175783+358549520+358851657+358864726+358562115+358241130
2238+358142798+358149200+358020225+357753829+357532005+357430087+357347907
2228+357174479+356921508+356709819+356654726+356779167+357050068+357447247
2218+357956863+358540303+359158654+359852635+360780087+362058160+363524005
2208+364837670+365908056+366988280+368289439+369764145+371296997+372845674
2198+374373251+375847098+377324056+378920388+380680576+382511860+384242175
2188+385755615+387113734+388482048+389860112+391006305+391762462+392297270
2178+392869122+393512189+394070764+394389082+394410420+394168621+393711667
2168+393094176+392432972+391802145+391111483+390278302+389384013+388527657
2158+387734574+387030250+386395926+385731373+384978476+384182370+383452381
2148+382875283+382415247+382186340+382895287+385404757+389745214+395158842
2138+401000500+406982216+412911833+418830781+424977568+431272268+437298498
2128+442854437+448138794+453451660+458869141+464114615+468770486+472638993
2118+475836487+478606070+481057986+483118592+484921129+487104249+490390324
2108+495082114+501164770+508484690+516564590+524539224+531586495+537395346
2098+541992509+545148838+546441077+545978344+544401601+542049824+538635722
2088+533695674+527123465+519290668+510583200+501051146+490844345+480505279
2078+470511885+461113696+452612049+445207222+438807137+433332222+428818722
2068+425169727+422172571+419632103+417356134+415274249+413488190+412040748
2058+410892806+410056188+409445780+408919211+408632248+408910409+409829770
2048+411319739+413433423+416328868+420288921+425686012+432716153+441415501
2038+451868042+463947588+477017028+490208953+502740682+513922619+523289780
2028+530742646+536458974+540783428+544061916+546502304+548240088+549272954
2018+549319008+548193145+546194270+543690935+540674664+536993426+532731385
2008+528224908+523705866+518974691+513715525+508089586+502541767+497139548
1998+491655358+486210701+481340178+477401434+474237577+471492207+469050722
1988+467016463+465478573+464497806+464089040+464071466+464169264+464339344
1978+464819947+465838233+467321533+468891845+470270205+471677727+473530704
1968+475742038+477724998+479164615+480368747+481737890+483316618+485040443
1958+487048386+489404846+491763765+493757187+495589982+497799567+500488837
1948+503241408+505864175+508733512+511998664+514874699+516550069+517514714
1938+518990101+521461430+524458378+527436241+530371962+533450349+536457729
1928+538896932+540821362+542958042+545674281+548494363+550964090+553138112
1918+554907606+555885587+556306178+557048436+558570174+560417135+561819915
1908+562542614+563002739+563711034+564812241+566098256+567310004+568424665
1898+569664448+571120455+572466690+573416813+574311814+575565585+576754395
1888+577184114+577082404+577146002+577467728+577740674+577865500+577850089
1878+577668126+577397788+577181565+577330337+578489511+580922431+583411718
1868+583801429+581475909+578038454+575208830+573524687+572636443+571942966
1858+570984841+569592671+567874625+566119060+564708041+563956774+563891160
1848+564346070+565215821+566040051+565576370+563175753+560013199+557510932
1838+555869287+554475220+553077359+552324136+552966403+554503018+555124717
1828+553940353+552040581+550255617+547971172+544768789+541521892+539270699
1818+538103938+537413128+536908727+537014764+538046682+539342240+539773559
1808+539086127+538108383+537853871+538868541+540976890+543276331+544679704
1798+544822015+544472905+545018559+547178119+549680327+550255677+548955199
1788+547851207+548049944+549277340+551205266+553707179+555991386+557034981
1778+557212855+558291775+561684302+567117431+572261432+574545699+574061391
1768+572483641+571007720+570740761+572572371+575733798+578076744+579015783
1758+579921749+581350787+582897360+585068181+588823153+593494701+596739642
1748+597394711+596749303+596534859+597482848+599451968+601769665+603505255
1738+604724767+607183885+612163053+617253769+618105620+615260644+612011555
1728+609902791+609380253+610442221+612365584+614622052+618047119+623814421
1718+630908872+635251878+634352728+630676646+627486058+626232464+627348133
1708+630873961+635879386+640481883+644206686+648671791+654206748+657850171
1698+657903279+656240355+653786157+650749200+648689217+648678370+650284215
1688+653346658+659237659+668167040+674688157+673252896+667757651+663962078
1678+663889233+667019068+671113193+674094019+676542231+679627731+681798256
1668+680984221+679090079+679187996+681248275+682581352+681560103+679948509
1658+680498549+684956957+694062077+705309213+710146011+707061340+704520605
1648+705626494+707176327+705142423+700546269+696692313+695300675+697194521
1638+702531866+709422305+713098090+710891232+706450547+703919651+704533526
1628+707532786+711688612+716430397+721045341+724240849+726422339+730126457
1618+736814423+744142523+747730943+747407913+746134641+745215220+744255732
1608+742906533+741683998+741527699+742890886+745378276+748406164+751883272
1598+755765915+759555324+762885142+766047339+769284693+772233039+774471193
1588+776080653+777374314+778412100+779108422+779610097+780517663+782832811
1578+787216358+792284492+794540131+793585918+793289323+796429353+802139813
1568+807203976+810452295+813248669+816394744+820345846+826825118+836622412
1558+844044517+843988683+840766621+837852653+835274577+832860327+831073763
1548+830734493+833329639+840301339+850823762+860470862+862842910+855543972
1538+845910386+841055096+840371695+839899952+837272799+834497052+834629761
1528+837931188+842039596+844743269+846499604+848595980+850600071+852068405
1518+854041674+856588870+858331632+859222128+861139623+865631756+872590712
1508+880055136+883974943+882368091+879398111+878337802+879407832+882392452
1498+886879072+891152434+893357099+894230881+896156199+900452321+905790556
1488+908614016+906968697+902831541+899820190+900238943+903780716+908501815
1478+912965083+917225938+922012473+927234535+930563404+929185696+924305749
1468+920026638+918939064+920598016+922924247+925265356+929044689+935189313
1458+941086835+939939100+929985210+918639565+911493073+909593834+911444589
1448+913714275+913622582+911696790+910358971+910833973+912588412+914673112
1438+916514798+917150722+916020769+914917547+915820846+917876029+918376755
1428+916832968+915705148+916177839+916942264+917599645+920096757+925080429
1418+929373528+930459086+930080045+930160891+930239663+929142606+926979430
1408+924922588+923494973+922147908+920646323+919790678+920396848+922034640
1398+923429656+924232015+924894790+925063714+924194556+923272586+923819959
1388+925474703+925983312+924316952+922408526+922553682+925084400+929141479
1378+934337047+940482442+945986815+948530158+948567262+949140063+951330325
1368+953487336+954892665+957510749+962818163+968734354+971568543+970559563
1358+968126702+966244297+965164665+965171896+967316460+971825663+977243855
1348+981696276+984486367+986315843+988230730+990806968+994307666+999265436
1338+1005830355+1012842775+1018688374+1022714929+1025617102+1028409860
1330+1030649732+1030451054+1027297214+1023805407+1023341429+1027222295
1321+1034724179+1043864210+1051801622+1056567767+1058861577+1060935845
1312+1064041201+1067834700+1071444457+1073741823+1073505922+1070889912
1304+1067763218+1065770508+1064808293+1064157136+1063844301+1064008957
1295+1063730025+1061512676+1057445935+1052891507+1048408443+1043901551
1287+1039651069+1036449693+1034821147+1033545267+1030379098+1024736208
1278+1018175201+1012846212+1010820547+1012669702+1015614432+1015745541
1270+1012356748+1007415396+1001571812+994075381+985574000+978126053+972920409
1260+969470744+966448191+962922836+959394755+956830904+954468636+950055571
1250+943077115+935522479+928423227+920475087+910754194+900206522+890260041
1240+881361541+872958551+864635401+857071518+851277723+846812440+841926032
1230+835901136+830032303+825855080+823672582+822829918+822231038+820800934
1220+818489164+816389173+815356603+815154605+815152709+815446044+816949763
1210+820289657+824785761+829001570+832392971+835756158+839788047+843966160
1200+847351574+849917144+852407439+855138198+857651906+859722202+861984420
1190+865198006+869365983+873738743+877303572+879766010+882113105+885468231
1180+890010389+895494906+901532427+906828816+909819896+911298781+914657227
1170+922339652+933149008+943521829+950884721+954975704+956547053+956723860
1160+957414314+960054804+963683528+965889971+966228471+967022532+970538522
1150+976463901+981382611+981606717+976905652+969726205+963019449+959930037
1140+962636318+969242845+974516830+976183665+977166624+980175486+984193269
1130+987547269+990692871+994174483+997069425+998189302+997554385+996991186
1120+998603728+1001866747+1003918373+1003572701+1002739936+1003053482
1111+1003626046+1002822916+1001160348+1001603581+1005758755+1010642851
1103+1011032502+1006473452+1002832992+1004665432+1010001414+1013595405
1094+1012987397+1008925280+1002351351+994913125+989569556+988063110+988703776
1084+988758839+988097250+988254912+990547715+994827418+998160022+997375384
1074+992101163+984740227+978798608+975961930+974780944+971931048+966573313
1064+962056582+961423443+964406226+967867389+967601793+963511699+961268982
1054+964786334+971007656+974219227+972807497+968390342+961966964+955266372
1044+952321227+955803669+963594917+970800146+974887040+976936473+977729526
1034+976553875+973201830+967643283+961008128+957009134+958381508+962721609
1024+964385777+960766774+954709456+950714316+950151473+950733282+950871148
1014+952244589+955748665+957968148+955485914+950127468+945524675+941659872
1004+936067244+928334616+921055474+916607439+914357609+911407782+905391124
994+896403361+886825254+879608347+876357539+875596314+873814314+869618954
984+864702259+860485798+856939876+854565872+854510038+856040964+856170235
974+853102991+848506480+844842608+842082983+838556088+834004091+830092345
964+827884657+826620453+825199121+823329222+821202321+819378357+818939865
954+820822745+824853805+829850576+834792877+839548531+844242661+848232646
944+850493323+851290347+852338684+854822577+858544298+863293077+869795702
934+878809130+889526141+899193986+905370676+908350139+910097998+911806264
924+913719610+916025333+918615441+920439228+920484689+919285329+918404968
914+918629785+918855728+917133000+912623916+906814946+902880855+903137797
904+907089848+911984909+915585716+917448681+917808933+917565149+918141210
894+919843726+922198052+925123401+928157809+929581689+928494234+926767060
884+927127728+930287199+934320629+936568681+936106185+933843078+931179177
874+929457160+929112022+929171827+929070887+930092373+933514417+938385296
864+942701807+945579205+947291323+948430049+950163564+952755036+954504732
854+954466858+954495427+955977335+956644555+953884989+949106811+945421601
844+944269481+946102276+950736898+955586083+957243494+956522337+958109392
834+964585878+973583243+980338720+981869053+979794192+978732461+981250021
824+985566117+988891785+991708608+996115982+1000737268+1001139485+996681433
814+991031074+986125759+981999332+980591691+984502192+992199080+998906962
804+1002279633+1004095832+1006447135+1008472682+1007685318+1002879935+995552191
794+988943470+985383916+984982944+985460139+984528094+981854116+978004902
784+973325649+968251173+963528473+959811257+957672264+957031776+956006437
774+952898769+949243195+948048814+949410697+951277810+953156245+954763749
764+954578526+951677953+947160392+944846667+949509443+961447804+973455157
754+977171544+973179900+968802635+968208734+970142291+972805067+976428338
744+981366845+986374226+989464467+989311547+985237397+979980661+979451484
734+985799528+993763256+996020318+991722655+985487404+980915492+979606301
724+982023989+986326927+987777006+982958286+974367880+968194094+969619279
714+980095588+995645129+1007200595+1008987278+1003006776+992082670+979560129
704+970723864+969723538+974977192+978576458+973121992+960018944+948164156
694+946305933+956491693+970701933+976293910+970126169+963338745+967633622
684+982450151+995997913+995828159+980953959+961873670+948327035+943197614
674+946625348+957700596+970436871+974025231+964069563+952553453+948994551
664+950508525+954307299+959803077+963210837+957709368+942209438+925497582
654+917331323+918860944+923549681+925072901+923106152+919875792+915892565
644+913029748+914524458+920470286+927458404+933787956+939051390+940241207
634+937270872+934370121+934923303+939472810+944652138+942242097+926349018
624+903113437+884442003+877074369+880600376+890315993+899218228+903298897
614+903807981+902404193+899194697+895946970+898149561+907218763+917658798
604+922555697+919636928+914583849+915549797
##END=
