##TITLE=<SNM>
##JCAMP-DX=4.24
##DATA TYPE=INFRARED SPECTRUM
##DATE=29/4/2025
##SAMPLING PROCEDURE=Instrument type and / or accessory
##ORIGIN=Admin
##XUNITS=1/CM
##YUNITS=ABSORBANCE
##RESOLUTION=4
##FIRSTX=4497.3318
##LASTX=599.83466
##DELTAX=-1.4281778
##MAXY=2.1114616
##MINY=0.38563427
##XFACTOR=1
##YFACTOR=1.9664519e-09
##NPOINTS=2730
##FIRSTY=0.3969737
##XYDATA=(X++(Y..Y))
4497+201873080+201885704+202023209+202492677+202939942+202620088+201409825
4487+200209807+199899273+200371454+200920428+201138423+201011557+200663362
4477+200416390+200643554+201328986+202171216+203122247+204214858+204831334
4467+203991377+201697792+199390219+198614370+199465269+200742973+201554407
4457+202035091+202395319+202328256+201735878+201142045+201067041+201592872
4447+202527019+203483520+203843764+203059731+201228537+199349739+198709046
4437+199685113+201239191+201919273+201383500+200546423+200320760+200729864
4427+201263833+201544193+201410310+200787121+199770165+198683236+197962158
4417+197977859+198691329+199476787+199695509+199325218+198651758+197823411
4407+197164879+197235564+198084265+199098448+199863007+200480800+201001388
4397+201281459+201347097+201271911+200842969+199806553+198374415+197202738
4387+196826596+197165561+197612812+197683118+197492387+197404016+197356534
4377+197009961+196543691+196656204+197515332+198348469+198474956+198190717
4367+198248156+198917932+199799354+200236753+199843259+198777942+197513862
4357+196527323+196328212+197221409+198635906+199309244+198673552+197506845
4347+196889840+197227123+198409469+200042052+201290537+201332775+200233359
4337+198793431+197578561+196658629+196107034+196106640+196569910+197185082
4327+197866831+198751769+199784714+200633309+201006237+200873006+200382063
4317+199781107+199427183+199501899+199767119+200000936+200433288+201244480
4307+201923259+201786361+200985717+200383397+200539800+201265243+202050761
4297+202575259+202822685+202972193+203203085+203481384+203635074+203731963
4287+204059485+204562235+204678158+204048968+203109986+202584958+202656037
4277+202936805+202936487+202350732+201346900+200746095+201373816+202969192
4267+204274495+204480108+204010488+203608340+203381479+203102499+202725100
4257+202307281+201994641+202096970+202694228+203440282+204147644+205001695
4247+205841273+205990872+205237634+204350287+204224512+204861841+205480908
4237+205500186+205183226+205220160+205795625+206333641+206262380+205714832
4227+205318518+205502823+206091897+206469312+206259758+205959288+206544195
4217+208159318+209699938+210108709+209504101+208590898+207652083+206607286
4207+205619322+205275341+206086260+207726905+209047105+209203327+208474217
4197+207626425+206997234+206613273+206662331+207263090+207940308+207909149
4187+207096684+206405265+206610893+207390516+207866623+207830159+207855923
4177+208408352+209413577+210551292+211507823+212122586+212562607+213026392
4167+213211864+212673530+211785667+211522812+212117964+212733499+212606437
4157+211869052+211129333+210825013+211087004+211795821+212625154+213199285
4147+213367328+213312920+213293976+213386908+213544297+213612360+213254481
4137+212279869+211120467+210558172+210945529+212019014+213334638+214526396
4127+215248747+215273253+214762608+214199949+213874351+213678786+213546131
4117+213625575+213903904+214194857+214555434+215141719+215730188+215936301
4107+215748313+215481624+215448131+215789642+216312336+216540561+216307547
4097+216067258+216181636+216317140+216080550+215766151+215959746+216767664
4087+217784151+218536615+218871519+219105700+219627560+220222833+220217650
4077+219499952+218810033+218773782+219218668+219552177+219380103+218789513
4067+218294372+218351962+218811731+219123568+219145270+219265937+219682165
4057+220102060+220246521+220214134+220277119+220515483+220656868+220365506
4047+219743923+219254798+219137435+219307069+219757517+220510497+221283239
4037+221700194+221672839+221384477+221205068+221545352+222371865+223091473
4027+223242603+223011619+222899894+223153686+223592207+223835648+223701265
4017+223345265+222978581+222703950+222642919+222839515+223100157+223271201
4007+223430514+223542330+223375530+223029078+223039248+223692566+224662722
3997+225536869+226219195+226549385+226149116+225136979+224365662+224438013
3987+225081662+225789797+226332496+226438387+225844235+224947098+224728512
3977+225731646+227347725+228300877+227982659+227105011+226722626+227003016
3967+227435687+227805084+228248409+228598119+228406676+227676854+227011791
3957+226834700+226935756+227095827+227702239+229201334+231127506+232337572
3947+232441750+232362503+233028445+234060587+234311894+233499172+232408287
3937+231722355+231708821+232681008+234702160+236721932+237017629+235202227
3927+232879347+231784113+231990575+232355092+232527106+233448644+235593417
3917+237651715+237726097+235720571+233384203+232151085+232092571+232961610
3907+235341429+239924612+245861686+250749387+252911256+252426981+249639074
3897+245044069+240445094+238240274+239399524+242074706+243084994+242352944
3887+242906418+245912184+248834702+249716775+249728036+249112727+246429862
3878+242906524+241764551+243792326+247247040+250951635+254240171+255147190
3868+253381588+251847758+252183040+252396246+250212841+246661981+244429246
3858+245500428+251341007+262301862+272508979+271635878+261444734+250653393
3848+243824682+242091816+244727761+249635315+254650336+259208801+263530993
3838+266239926+265431599+262004150+258298175+255227513+252594342+250556504
3828+249417926+248976359+249789127+253784767+260952366+266368505+266480988
3818+264659190+263517505+260774412+255315354+250378474+249258507+252643870
3808+258181781+261960836+263421420+265647442+269258211+270510651+267819177
3798+264196557+261293484+258204211+254729507+252201712+251527904+252428936
3788+254332558+256765329+258939763+260390072+261839532+263912060+265557328
3778+265371887+263896420+263066875+264566075+268799488+274033458+277484005
3768+278633480+279138881+279848456+281042488+283883606+288955686+294397043
3758+297713707+299367098+302276718+308991309+319543544+329638602+334572223
3748+336477042+340073110+345519408+348090851+346231044+344115141+345809785
3738+353439093+365957224+377625804+382308149+380149781+376049766+374196081
3728+376229872+381351299+386804325+390322313+392067758+393226266+394567062
3718+396754438+400728663+407642849+418106032+429864332+437335509+438084518
3708+436213314+436564979+440811789+447553599+453604777+456595115+456934838
3698+456620304+457737194+461821145+469025436+477911792+485711204+488773621
3688+485667435+479713463+475107531+473428740+474171111+476363397+480169094
3678+487101558+496806790+503843250+504592926+503329574+504162574+505275524
3668+503092362+498648502+495354571+494818616+496361343+498813423+501973349
3658+505892318+509817106+513388077+518031443+525259467+534046919+539885316
3648+539079353+533895426+528898576+526610235+527123033+529107902+531312161
3638+533465195+535777603+538319099+541485482+546293374+552919790+558551711
3628+558750610+554507043+551315684+552307210+557729198+565169943+569634415
3618+568422954+565319315+565546706+569976684+575564775+579509538+581480465
3608+581873413+580679169+578883318+578200234+578862828+579458858+579602895
3598+580684201+583308506+586076424+587446046+587690229+588404533+590728216
3588+593848648+595560417+595082720+593492011+592136211+592286552+594630301
3578+597978064+600002762+599784645+598196907+596871479+598236372+604438013
3568+613727048+619339206+617203086+611651670+608530087+608683338+609235479
3558+608582828+608312941+610267560+613951772+617499646+620217005+622910965
3548+625854139+627714553+627172596+624686872+621800803+619776651+619394250
3538+620811036+622995410+624256035+623772396+622069962+620217854+619101569
3528+619188379+620461310+622195025+623135446+622742073+622351853+623766092
3518+626585417+628946018+630420273+631747581+633097925+633869637+633411460
3508+632156776+631189439+631018486+631426347+631752976+631663135+631878038
3498+633468747+636908957+641927085+646703636+647660546+643053978+636417135
3488+633160790+634751680+638117993+639704215+638728391+636985098+636607426
3478+637633748+638356720+638206015+638020756+637402598+634777747+630511144
3468+627176173+626416707+627948067+630997390+634559449+636954787+636892589
3458+634844431+632686305+632361313+634577090+637680002+638565258+636350087
3448+633861332+633727722+634811938+634391891+632600101+631736851+632197332
3438+632135377+630652271+628924134+628166911+628655944+630403420+632998445
3428+635178880+635711440+634845522+633934017+633574228+633271969+632710008
3418+632237645+631730910+630309760+627707945+625058239+623842293+624076231
3408+624994102+627038684+630893302+635554188+638883400+639824367+639249978
3398+638632184+638515912+637950253+635839533+633268575+632782269+634332422
3388+634140554+629627647+623654669+621388213+624560779+630255867+634436630
3378+635719017+635327160+634934696+635972173+639404320+644358492+648460447
3368+650746727+652174788+652454617+649365344+642787607+636605061+634829094
3358+637547544+641279344+642857928+642695584+643322713+645309886+646904050
3348+647560399+648648798+650076010+649957435+648563140+648749854+651252128
3338+653069016+651754863+648560776+646035587+645152755+645416156+646081113
3328+647058029+648700508+650587717+651538080+651679995+652555855+654363952
3318+655514124+654897967+652737234+649901057+647712802+647359742+648256759
3308+648191288+646187565+644060113+643997431+645367841+645636758+644344004
3298+643608119+644378982+645263935+645321708+645524487+647118590+650095349
3288+652899276+653892498+653687719+654418026+656860649+660044733+663056471
3278+665401796+666335003+665340386+663038284+660708660+658966822+657748754
3268+657019902+656568696+655686592+653886558+651725158+650274000+650286610
3258+652338769+656655869+662578167+667954265+669607716+666178903+660136817
3248+655762430+655453139+658212691+661150833+662178247+661242978+659127045
3238+656029952+652318521+649588250+649569275+652518512+656939699+660318439
3228+660722421+658590848+656198480+654873051+654045447+653405465+654120799
3218+656784690+659596498+659978838+657614781+654444215+651847007+649674878
3208+647957289+647480864+648376426+649713433+650756972+651427810+651390770
3198+650369237+649209062+648889587+648944692+648276764+646934482+645719870
3188+644517503+642387808+639299991+636580025+635558977+636319352+637768995
3178+638729542+638937535+638920621+638853877+638021786+635895305+633394546
3168+632135740+632225218+631823176+629598973+626491938+624080536+622726251
3158+622170594+622463032+623461590+624435899+624779017+624531560+623883213
3148+622689696+620977623+619491608+619020579+619265005+618905762+617048683
3138+614433349+612926965+613726866+616134207+618310944+618974689+617997045
3128+616246175+615345218+616313040+618026023+618252262+616412399+614020274
3118+612562024+612172834+611963750+610812669+608203822+604815201+602001210
3108+600517560+600260039+600985376+602164646+602394038+600590669+597947874
3098+597122209+599243659+602564324+604164610+602858823+600148617+598172962
3088+597406827+596814252+595679781+594378419+593595613+593632411+594178429
3078+594368962+593549238+592099474+590997012+590685781+590712394+590435353
3068+589870361+589431946+588859315+587304373+584930010+583182110+582851663
3058+583117367+583036437+582835962+583167258+583840339+583848341+582560800
3048+580499669+578802449+578085539+577965023+577521698+576247858+574969047
3038+575485300+578373733+581540055+582052368+579260262+575208017+572392269
3028+571718097+572170091+572430824+572554371+573025097+572905430+570938868
3018+567934163+565912678+565701715+566755681+568114694+568675503+567755754
3008+565968692+564739894+564752564+565357082+565502513+564751291+563279219
2998+561482337+559994867+559562878+560298702+561323629+561529864+560544401
2988+558970060+557806127+557375411+556949909+555677463+553701383+552055813
2978+551448567+551449294+551151158+550357198+549576150+549119973+548775643
2968+548303947+547791695+547448214+547373043+547496044+547557939+547201727
2958+546252030+545032871+544138461+543532731+542337578+540090823+537684695
2948+536363024+536184009+536054582+535159021+533975628+533638936+534490850
2938+535647448+535910788+534756009+532559934+530350158+529110570+529021274
2928+529473874+529688171+529473693+529375425+529711571+529832572+528910337
2918+527033677+524971757+523424393+522725184+522611943+522266158+521052698
2908+519229202+517721667+517250516+517673776+518167841+518152322+517855337
2898+517820783+518000041+517633462+516247533+514542190+513685850+513816065
2888+513975803+513476827+512562291+511789306+511432609+511316579+510907324
2878+509884154+508598129+507604027+507050674+506768056+506463403+505776895
2868+504661277+503630378+503244734+503510681+503973132+504195491+504067004
2858+503812515+503639138+503356793+502669466+501838103+501547332+501993748
2848+502439438+501790969+499569676+496463248+493903868+492904098+493234122
2838+493733825+493462240+492594656+492116140+492549129+493260219+493245973
2828+492253175+490806321+489466252+488485002+487919858+487634876+487225075
2818+486233307+484590524+482714864+481164257+480392848+480643730+481592912
2808+482230499+481736100+480412975+479105035+477996025+476834850+476028736
2798+476353425+477462374+477763633+476356244+474278744+473209138+473594146
2788+474398957+474264195+472751537+470629541+469059020+468562075+468675558
2778+468412037+467229584+465760088+465166118+465612960+466005878+465482957
2768+464448481+463747969+463512515+463268665+462730407+461973941+461028761
2758+459866495+458840476+458536944+458938228+459236516+458723810+457471884
2748+456040489+454909868+454230816+453834169+453422974+452831156+452119793
2738+451461413+450967196+450605922+450243193+449739368+449038704+448231953
2728+447521803+447001124+446467807+445634261+444561503+443634509+443006197
2718+442424200+441758424+441240383+440940095+440544751+439940476+439453746
2708+439247512+438995629+438412693+437721183+437376580+437526800+437856642
2698+437895470+437416166+436506237+435332787+434022604+432797080+431985964
2688+431701800+431580406+431147144+430494129+430149405+430187202+429992183
2678+429116687+427933234+427147094+426960956+426935040+426501808+425523165
2668+424405516+423670632+423453880+423499437+423523594+423377103+422974273
2658+422389123+421918761+421721711+421560761+421195243+420767256+420497793
2648+420273524+419773154+418861649+417803076+417104898+417038851+417388303
2638+417803045+418109457+418075084+417373542+416122102+414984872+414457859
2628+414420517+414535152+414671217+414770030+414659456+414198642+413438115
2618+412555193+411752594+411200180+410943842+410895891+410925686+410879765
2608+410652495+410357087+410203260+410095384+409676641+408918993+408286286
2598+408132308+408304260+408486095+408588212+408656259+408649348+408443660
2588+407962204+407243111+406477067+406025255+406206999+406892446+407457014
2578+407382177+406781084+406099395+405539101+405075771+404748930+404595709
2568+404519296+404394628+404124983+403638677+403042010+402650213+402661610
2558+402933558+403215660+403467209+403830453+404374016+404958953+405341657
2548+405336928+404922217+404303453+403825907+403678687+403726609+403714636
2538+403569175+403439930+403459723+403508735+403366244+403111240+403062288
2528+403271887+403475727+403584633+403773439+404008014+403954182+403520920
2518+403115695+403112755+403339571+403392008+403234301+403092296+402967718
2508+402728021+402510572+402590440+402934558+403189290+403087870+402714411
2498+402359291+402223407+402334284+402620115+402894397+402899701+402598776
2488+402327646+402440251+402856054+403151098+403133943+403152462+403604820
2478+404307757+404736139+404741049+404580887+404436396+404354466+404448672
2468+404744626+404998963+404961196+404712739+404568369+404653572+404696220
2458+404359679+403730943+403260672+403255034+403657621+404221705+404649783
2448+404740261+404645267+404765661+405211927+405640157+405698051+405350538
2438+404817493+404440579+404422513+404531844+404380776+404051813+404007620
2428+404400447+404942464+405397792+405754853+405939688+405750973+405180555
2418+404580432+404334552+404435001+404543029+404453855+404356830+404601711
2408+405270305+406011161+406373496+406320240+406254435+406520957+407047577
2398+407493145+407634423+407587502+407682011+408118607+408781473+409358105
2388+409549578+409213977+408424443+407368113+406126008+404531329+402284211
2378+399362466+396379463+394197058+392952256+391855492+390209497+388066556
2368+385665793+383079922+380654091+379023554+378603750+379454937+381391734
2358+384075478+387312031+391257794+396019856+401007340+404924308+406549571
2348+405490119+402506874+399343552+397499021+396948730+396876499+396932453
2338+397046724+396968371+396583394+396266889+396555751+397512358+398591209
2328+399246891+399496258+399756536+400370329+401425234+402788309+404106736
2318+404952436+405179828+405058100+404931158+404864444+404803580+404950224
2308+405690867+407159969+409046692+410841968+412189039+413012400+413420565
2298+413589092+413761985+414214616+414992390+415737519+416055115+416077606
2288+416356434+417091743+417779555+417815261+417210773+416497561+416113221
2278+416078909+416114191+415898802+415344358+414711803+414366715+414379930
2268+414465740+414339375+414064274+413981980+414304305+414876845+415427046
2258+415932265+416563729+417332319+418021859+418474520+418732373+418872318
2248+418873045+418703335+418435843+418174049+417885521+417380271+416521113
2238+415467996+414614111+414191337+414054090+413967613+413936575+414058545
2228+414212797+414135323+413769381+413394922+413358731+413697181+414111801
2218+414360319+414540608+414864327+415291860+415636887+415967093+416575187
2208+417495027+418346366+418806180+419008777+419316098+419906097+420745068
2198+421753537+422796470+423629561+424063005+424179277+424292306+424701713
2188+425497461+426506900+427382608+427861185+428024196+428221307+428693518
2178+429347564+429914951+430251037+430420898+430507526+430460757+430298049
2168+430347758+430949306+431920553+432720575+433178419+433631898+434319407
2158+435094726+435787418+436441675+437140187+437877829+438622383+439324562
2148+439915470+440407989+440924636+441592837+442502190+443725138+445249254
2138+446908768+448501386+449974670+451464535+453205858+455372804+457876957
2128+460364925+462563364+464559509+466592482+468687319+470676250+472447399
2118+473971727+475188825+476056501+476664716+477212613+477943830+479058842
2108+480508090+481931907+483086050+484310756+486245310+489021957+492008415
2098+494430821+496015558+496884143+497117839+496718282+495727727+494036387
2088+491358431+487774700+483947360+480415551+476990587+473189982+469101394
2078+465492111+462983289+461311196+459695391+457889991+456387547+455568642
2068+455229495+454978037+454603093+454081232+453592926+453434249+453700378
2058+454143915+454401435+454303531+454016519+453917433+454259065+454964579
2048+455796336+456680016+457813305+459424473+461426984+463458501+465393813
2038+467615500+470577468+474315087+478573324+483182226+488034008+492868635
2028+497428554+501710403+505681628+508888263+510843550+511729048+512230812
2018+512740397+513059509+512793198+511816161+510416896+509078554+508046200
2008+507076074+505677809+503608584+501101339+498661717+496687093+495229933
1998+494119923+493382220+493385281+494292270+495500063+496120282+496015709
1988+495783468+495885525+496421570+497471080+499016050+500677352+502050308
1978+503248887+504710502+506485136+508140346+509514908+511143323+513539995
1968+516338951+518661906+520276075+521739115+523378199+524877369+526035847
1958+527291742+529121967+531391818+533647241+535780573+538106984+540860171
1948+543934651+547242767+550929586+554758805+557707617+559117188+559819185
1938+561052530+563046796+565400184+567942711+570530219+572719928+574278265
1928+575640673+577604325+580558775+583924845+586692763+588723280+590600911
1918+592177494+592687261+592327957+592226476+593075178+594705290+596412089
1908+597451202+597766555+598105551+599011721+600097998+600650442+600613160
1898+600640682+601245139+602200777+603129074+604323318+606053698+607368942
1888+606960656+605098060+603199940+602058195+601613536+601723685+602320625
1878+603180845+604055067+604853513+605644988+606757635+608517781+610263135
1868+610104791+607018368+602341115+598003525+594829625+592762189+591434093
1858+590317990+589080281+587820202+586647054+585517736+584607019+584317491
1848+585018821+586787636+588537839+587805653+583694605+578710546+575466144
1838+574183392+573485396+572487445+571990348+573218722+575501850+576278896
1828+574566278+572163241+570151334+567622387+564255407+561347636+559869562
1818+559408050+559157987+559131737+560011901+561905838+563585903+563608939
1808+562208158+561065564+561509374+563694597+566786901+569319971+570192375
1798+569932491+570364419+573018307+577782188+581973196+582141300+578839306
1788+575959360+575787680+577654035+580068953+582661190+585387582+587567107
1778+589132961+591531269+596362925+603409085+609547619+611186097+608713649
1768+605023496+602242666+601861660+604573018+608873871+611939138+613318398
1758+614654436+616061461+616931865+618708560+623412365+630360076+636024126
1748+637947767+637055055+635633541+635560189+637671273+641169619+644082786
1738+646079780+649701733+656724736+663737250+664914096+661163140+656754925
1728+653512402+652106892+652918189+655441257+659183847+665079653+674370143
1718+685293351+691810528+690542204+685413624+680987648+679126264+680657866
1708+686080340+694140758+701409823+706341504+711700628+719762259+727428213
1698+730389634+729082695+725014749+720132110+717811337+719447815+723255998
1688+727484106+733750491+744177088+754385508+756824979+753544627+750720029
1678+751185481+755144065+760811571+765671113+769505120+773318092+775733071
1668+774918318+773347372+774832054+779510943+783545305+783527664+781030846
1658+780239068+784320230+794807630+809150802+817032387+815690044+815033574
1648+818617094+821099605+816400771+807810036+801819903+800772060+804573817
1638+812321428+820627727+822111681+814120250+804147708+798550463+797987411
1628+799767319+801204291+801946480+801865611+799493249+795445126+793253537
1618+794872738+797370890+795599711+789862673+784213839+780427601+777703755
1608+774866062+771958412+769823868+768835677+768604951+768575974+768583734
1598+768818339+769279002+769471111+768929822+767909744+767039704+766385658
1588+765449056+764140359+763124645+762902589+763148166+763572759+765098239
1578+768918304+773559911+774588901+771579103+769285852+770172745+771949076
1568+771310308+768885993+767263276+767925808+772385673+782856038+797536023
1558+804159954+796972607+786075890+777733157+773149564+772275887+773618532
1548+775261315+777344027+781630211+788937286+798402607+807060329+808624001
1538+801871370+794821149+792940609+795206944+797037168+796923988+798375934
1528+803792345+811408832+818346843+824628444+830932718+835569172+837958569
1518+840092204+841917093+841914002+841730864+844762364+852002270+862254823
1508+873948652+882852195+883124385+878164576+875276021+876955116+881878977
1498+886778711+888773704+888044609+887650206+890383933+896481972+903128697
1488+906856435+907378750+906730403+906566118+907584257+909770086+913435445
1478+919718501+928776507+938806640+947544443+952646470+952115668+947921569
1468+944887462+945609828+948054330+948322277+947417865+950372436+959398252
1458+970152690+972531660+963762880+952806572+946607295+947227816+953403209
1448+960900574+965734110+967427693+967339367+966590995+967040261+970763755
1438+976984068+980977450+979543205+976186774+975437795+977785848+981401679
1428+985010841+988392491+991446543+994424150+998201113+1002786888+1006001040
1418+1005585541+1002905463+1001106399+1001010981+1001170476+1000397188
1410+999187182+998603943+998768166+998774532+998070292+997772640+999700768
1400+1004614505+1011471889+1017479481+1019221986+1015207569+1007721964
1391+1000792197+996561907+995369482+996740801+999163782+1001251587+1002562588
1381+1003187717+1003683783+1005607486+1010542744+1017165947+1020947275
1372+1019762245+1017147882+1017117086+1020144524+1025455333+1033099706
1364+1041413461+1045763418+1043862085+1039533224+1037334603+1037837277
1355+1039249152+1040269412+1040414297+1039475876+1038198217+1038384083
1347+1041078952+1044963578+1047744530+1049335238+1051938932+1056740762
1338+1061716818+1064159017+1064623741+1065472927+1067044479+1067639904
1330+1066763438+1066424200+1068427135+1071528532+1071946578+1067132259
1321+1059190235+1053859058+1055602775+1063163854+1070127326+1071796842
1312+1070067189+1069079544+1070127447+1072214403+1073741823+1073157795
1304+1070244325+1066396678+1062622019+1058922894+1055826590+1053962963
1295+1051932264+1047188024+1039497943+1031314887+1024921136+1020754619
1287+1017899589+1015502129+1013205180+1010246789+1005752007+1000049948
1278+995026061+992507965+991807059+989844195+984674453+977945828+972490741
1268+968916496+965635478+960732532+953245290+943508808+932774435+922691865
1258+914568158+908587482+904076211+900335257+896664200+892326004+887396868
1248+882758898+878478656+873168211+865687516+856790642+848383469+841452793
1238+835188409+828229847+820590627+813931717+809792965+807992507+806890226
1228+805119350+802912121+801426772+801116148+801360574+801641554+802361556
1218+804078418+806395130+808285733+809516410+810912524+813070589+815642578
1208+818184741+821021100+824768419+829410087+834160389+838128855+841018864
1198+843263073+845626948+848581944+851813313+854612693+856928859+859458413
1188+862377824+864866337+866398970+867490400+869175133+872772595+879430110
1178+888841661+899163262+908894894+918106636+927261090+935632012+941747086
1168+945230398+947100814+948099675+948255897+948113375+948773423+950971195
1158+955016408+960421664+965400752+968235293+969049743+968922377+968083921
1148+966844453+966397309+967383560+969292592+971029156+971215810+969406197
1138+967351613+967747350+971209263+975664762+978954995+980718717+981536804
1128+981498795+980739025+980428825+982127258+986335785+991613312+994900999
1118+994322306+992022023+992186671+996806212+1003981010+1009820559+1011843984
1108+1010801234+1008706336+1005485636+1000545468+995592751+993118363+992948441
1098+992794522+991973465+992337861+995369361+999483622+1000991400+997937894
1088+992201583+987281178+984409961+981154101+974703305+966500972+961057766
1078+960483377+963115018+966109357+966366877+961870337+954907653+950089212
1068+948132168+945629530+941990966+940703002+942637798+944210077+942616399
1058+939373390+937731941+938511776+939184312+937434047+934724447+934040940
1048+935877469+938222309+939599751+940740223+943202427+947098632+950467127
1038+950567880+946946896+942696661+940457970+940084299+940054412+939785434
1028+940097514+941127170+941486353+940338666+938983048+939315375+941963020
1018+945808849+948714680+950101397+951956234+955452398+957704244+953914248
1008+943385079+931002044+921803942+916064721+910473781+903165554+895184187
998+887326305+879198354+871200982+864611606+859646158+855567846+852629036
988+851624356+851716864+850487702+846605804+841300573+836788756+834128078
978+832734632+831478372+829840136+828018763+826127735+823971246+821533898
968+818882191+815618632+811334934+806562869+802462430+799814543+798477051
958+797733770+797357674+798133145+800877663+805304549+810319585+815044062
948+819463552+824545696+831246131+838779385+844866997+848590491+851749721
938+856542882+863107343+870065299+876764400+884122822+892829223+901158800
928+906097696+906829761+905470203+904237646+903579902+903255517+903618882
918+904468856+904122889+901551385+897781576+893758005+889475459+886033187
908+885308397+887199424+889932848+893068071+897455069+902062182+904076756
898+903189197+902544063+904324213+907348075+909404539+910316286+912040544
888+915858548+920153885+921856440+920596967+919688009+922016056+926162447
878+927725269+925433776+923887928+927637671+934926075+939733179+939217714
868+936063759+933590946+932525463+932309589+932306922+932031155+931805703
858+932566018+934827201+938321001+942043646+944548285+945460760+946112926
848+947724792+949750520+950444636+948680065+945283018+943026685+944317559
838+948712498+953080702+955213306+956565045+959303319+961812868+960564307
828+956667132+956081770+961744850+969677660+974670448+976539288+978354054
818+981356273+983520340+983215172+982742081+985431312+990327288+992748026
808+990139967+984813761+980983209+981872890+988455901+998100239+1004363653
798+1002225533+993835515+985121415+979674026+976617611+972575065+966107841
788+959121090+953463951+948645814+943828223+939452440+935196871+929755544
778+924025053+920869401+921439910+923745225+924911219+924114470+922465989
768+921146865+920436866+920293557+921561516+925676505+932575779+939887582
758+944803380+946662460+948167874+953280753+961919561+967721222+965249441
748+957772444+951881063+949070468+947210903+946903673+950911422+959204688
738+968907464+976926175+981076808+980532912+976495034+971371062+967338155
728+966143972+969016098+975711562+983549863+988091384+986426293+980488840
718+974536959+970086734+965887239+961094927+956826021+955104673+957667993
708+964841336+973627273+977991598+974074963+964203477+953961169+947910900
698+945339578+941087160+933912180+929273179+931498534+937949633+942566446
688+942462420+940066900+939146302+941093283+944032032+944253664+941243746
678+937834452+935498099+934173155+933775600+933390592+930519376+923688301
668+917198404+915871096+915141213+910908255+903148217+895955353+896011852
658+904813126+915505488+920174193+919015292+918084569+918645015+916021316
648+911070600+911487433+919636177+926388565+920866794+905179947+890866844
638+886808658+893891857+904657329+909236375+906821699+905290217+907360927
628+906029860+895841809+882628683+873170090+866262875+859309830+855242126
618+858043810+867970401+879837729+883316677+872054109+852786591+839445494
608+840115725+850596821+859861122+862977007+864443320+867902444+871431768
##END=
