##TITLE=<SNM>
##JCAMP-DX=4.24
##DATA TYPE=INFRARED SPECTRUM
##DATE=29/4/2025
##SAMPLING PROCEDURE=Instrument type and / or accessory
##ORIGIN=Admin
##XUNITS=1/CM
##YUNITS=ABSORBANCE
##RESOLUTION=4
##FIRSTX=4497.3318
##LASTX=599.83466
##DELTAX=-1.4281778
##MAXY=2.1902723
##MINY=0.61518586
##XFACTOR=1
##YFACTOR=2.0398501e-09
##NPOINTS=2730
##FIRSTY=0.62692147
##XYDATA=(X++(Y..Y))
4497+307337036+306526325+306151343+306533191+307493773+308360938+308882722
4487+309358951+309734722+309480244+308315881+306643176+305398107+305115665
4477+305256097+305065465+304658458+304832990+306284411+309002992+312058130
4467+314162971+314687823+313872816+312261063+310424638+308862648+307635871
4457+306350419+304838571+303694837+303826065+305494036+307940666+310014475
4447+311069292+311075574+310123642+308303462+306082588+304451551+304375286
4437+305954662+308209549+309831850+310293031+310190819+310326838+310590170
4427+310248324+309230996+308268340+307752167+307372539+306826094+306292914
4417+306229565+306905017+308075136+308976022+308971697+308244146+307608258
4407+307723502+308468585+309083961+309027537+308486848+307927575+307421395
4397+306758537+306129106+306175742+307170570+308498185+309185851+308795178
4387+307756462+306954341+306884271+307126155+306813617+305678415+304422798
4377+304039372+304823698+305867206+305779751+304490706+303689256+304698490
4367+306760407+308237396+308606475+308327774+307728381+307024966+306558350
4357+306331777+306157625+306354101+307229653+308180037+308383409+307933770
4347+307420431+307145616+307366432+308205458+308953756+308739310+307937130
4337+307518902+307364299+306702522+305725547+305323859+305700623+306223254
4327+306222465+305593414+304985431+305119084+305653403+305628332+305152629
4317+305332712+306410408+307387646+307609572+307443310+307295573+307093253
4307+306943968+307381539+308400123+309011904+308595547+307838950+307472296
4297+307232312+306807305+306504848+306539532+306806224+307249581+307647383
4287+307619186+307171008+306458768+305336102+303897713+302700039+301970413
4277+301583860+301813033+302997529+304806195+306649984+308287537+309470894
4267+309700184+308992823+308240756+308023505+307616439+306200024+304500611
4257+303983941+304945400+306440271+307572492+308072039+308160781+308397785
4247+309082675+309764935+309826853+309301534+308713362+308327627+308034784
4237+307896222+308305070+309326400+310247769+310342471+309769961+309060030
4227+308199643+306983152+305710499+304837636+304484452+304761722+305956620
4217+307839126+309281489+309258346+308117272+307354510+307925822+309004044
4207+308936049+307451550+305958695+305545668+305871502+306142986+306220711
4197+306424171+306767215+306895900+306687503+306485329+306659714+307141525
4187+307417684+306880472+305430453+303891109+303346855+303950396+304963224
4177+305900138+306886112+307958051+308815223+309325903+309655740+309819723
4167+309671928+309454413+309709651+310361552+310612962+310141320+309597329
4157+309578073+309897361+310118470+310164491+310189913+310271788+310438050
4147+310769669+311253875+311692236+311942593+311965122+311559927+310567232
4137+309445209+308971931+309292914+309857242+310119375+309940870+309460024
4127+308787610+308021751+307581171+308154498+309813704+311405206+311631867
4117+310580323+309459556+309104970+309323361+309468059+309108564+308123467
4107+306563726+304708804+303215423+302919628+304159408+306361260+308603933
4097+310393402+311595371+312072944+311860456+311305186+310696648+310060029
4087+309396353+308780890+308246483+307841142+307721456+307967782+308399889
4077+308692616+308663805+308487198+308546954+309025228+309789919+310548940
4067+310950746+310837138+310505315+310350097+310233129+309597855+308202449
4057+306498624+305363890+305506747+306756725+307957993+308135593+307634322
4047+307413243+307624066+307694457+307331894+306742057+306353692+306606066
4037+307382883+307924799+307991713+308349835+309330316+309985430+309533015
4027+308516506+307849265+307691915+307681337+307593706+307516185+307649166
4017+308026339+308380341+308338673+307800204+307095561+306674178+306655448
4007+306909400+307467855+308395184+309392525+310099506+310562206+310883540
3997+310822061+310248148+309509406+308938065+308542103+308382795+308581813
3987+308817035+308499296+307593034+306739193+306531175+307061082+308026631
3977+308913228+309244876+308986950+308549525+308344371+308619975+309561564
3967+311085889+312560453+313205457+312834128+311937392+311144154+310722362
3957+310460023+310026572+309538275+309635403+310845466+312904753+314784308
3947+315508440+314981427+313760902+312379785+311267141+310727066+310517412
3937+310030517+309456167+309961587+312089425+314626490+315830329+315422767
3927+314477438+313907880+313621990+312892773+311598118+310834859+311762568
3917+313834771+314947473+313928684+311769114+310038991+309446495+309991859
3907+311591163+314104765+316850169+318642560+318974676+318468642+317598759
3897+316192454+314597913+314099096+315557735+317914074+318977773+318466275
3887+318193593+319074930+320056580+320282422+320152539+319469928+317503940
3878+315320877+314931694+316616350+318995773+321141084+322861155+323587187
3868+323531056+324118906+325414321+325218020+322289698+318543329+316482230
3858+317168932+321053395+328119519+334564423+333935986+327372507+320620265
3848+316671518+315856832+317420692+320436763+324176353+328133661+331477319
3838+332579676+330678382+327330488+324316551+322079810+320387205+319288675
3828+318914512+319052548+319934089+322618658+327020375+330182020+329857210
3818+327836493+326231286+324955799+323156395+320812826+318648287+317771859
3808+318810897+320927164+323327596+326752105+330974966+333132053+331803707
3798+329059968+326553525+324176849+321926930+320564046+320553088+321552387
3788+323032064+324869103+327092052+329558142+332261995+335419404+338854315
3778+341981130+344717360+347678088+351486082+356207116+361126673+365234465
3768+368223273+370175936+371002398+371304096+372434534+374925052+377636912
3758+379176987+380095375+382742074+389298979+399512928+409145892+414373078
3748+417567157+422650375+429647277+434053144+433322378+431171603+431905699
3738+437110181+445345314+453171687+458172446+460348760+460828466+460889303
3728+461493983+462701183+463735575+463976816+463361002+461995371+460154154
3718+458421752+457582959+458587810+462076457+466683563+468573812+465789135
3708+460937720+457647156+457739813+460711206+463890091+464686748+463707436
3698+463525862+465269397+468069064+470892866+473638826+476226004+477637043
3688+477002090+475177937+473771631+473642507+474515020+475440655+476367750
3678+478717953+482623864+484869517+484328185+484666233+487223051+487582078
3668+482628831+475898300+471590671+470083819+469368336+468443461+468102345
3658+468821335+469711146+470079436+470641398+472506693+476044225+480026663
3648+481659980+479449391+474785598+469913934+466316938+464799099+465741682
3638+468621645+471950312+474552393+476913962+480768007+486704686+491666115
3628+491147341+486238917+481753513+480432881+482725988+487206746+490446058
3618+490155464+488600399+489175217+492314450+496319359+500085305+503206130
3608+504434134+503066633+500860106+500104590+501054244+502423440+503685924
3598+505373327+507390216+508691271+508693433+508223924+508806164+510975933
3588+513291100+513966786+513409851+512890785+512301766+511023386+509291919
3578+507911386+507506746+508134569+509115079+509821154+510675550+512247007
3568+513653430+513440941+511978533+510841520+510477963+510084252+509130799
3558+508159581+508072856+509186376+510853383+511815076+511528134+511024321
3548+511441409+512198444+512028090+511157740+510665966+510529332+509818524
3538+508128199+505962989+504237950+503858732+505202214+507579153+509655300
3528+510784249+511326925+511347495+510382355+508778288+507414469+506238067
3518+504708102+503096204+502065961+501710586+501829512+502180738+502406317
3508+502579417+503174397+503964158+503943470+502898910+501907121+501551804
3498+500937013+499316641+497746878+497871823+499661555+501548940+502357578
3488+502158004+501673243+501602822+501984262+501815954+500076481+497234065
3478+494806225+493742496+493989464+494956065+495773644+495646478+494549847
3468+493323304+492800556+493045245+493474021+493525156+492951449+491851662
3458+490856951+490591574+490549322+489385193+486780220+484074525+482814233
3448+483371957+484766925+485440565+484732241+483431683+482441793+481577141
3438+480340283+479202393+479205140+480482409+481805175+481987567+481433436
3428+481577170+482838193+483858121+483336221+481783581+480459793+479624682
3418+478754537+477806373+477471365+478150089+479032186+478787760+477373244
3408+476344696+476958990+478571502+479387269+478711174+477848596+478276203
3398+479597887+479986340+478501607+476071838+474127474+473326521+473613083
3388+474493368+474943621+473930238+471668747+469846611+470090102+472377189
3378+475133288+476926497+477775225+478457777+479224367+479847778+480320209
3368+480606741+480405648+480115814+481082181+483955921+487500875+489899554
3358+490742642+490952209+491418620+492298847+493183223+493396588+492474635
3348+490869983+489883103+490346593+491506456+491775807+490688293+489456461
3338+489243592+489543332+488881993+486967345+485349282+485553969+487275472
3328+488935641+489599581+489547043+489113387+488112336+486599377+485239297
3318+484596367+484582546+484731335+484708309+484539388+484509174+484976901
3308+486069353+487295984+487928015+487921090+487929768+488182785+488038526
3298+487128290+486293354+486690514+488177905+489158445+488362635+486443341
3288+485152806+485309572+486357083+487602357+488956767+490541374+492318132
3278+494012431+495022278+494834685+493749684+492605424+491948322+491901512
3268+492341800+492756200+492396384+491170717+489931755+489429841+489294523
3258+488638707+487557270+487052405+487417803+487802106+487581143+487173406
3248+487300805+488142608+489290461+490175889+490594379+490878048+491244877
3238+491138049+489843247+487702260+486074379+485913435+486751263+487325993
3228+486925327+485835125+484787145+484329062+484421777+484315445+483173436
3218+481288329+480110788+480431157+481276758+481320384+480651185+480100561
3208+479654837+478855580+477883865+476905576+475407577+473531383+472719795
3198+473518702+474143048+473008227+471369124+471392442+472903882+473879746
3188+473348816+472066871+470768914+469502456+468513034+468399572+469214317
3178+470170136+470357437+469422598+467567617+465329941+463460234+462360477
3168+461569167+460423563+459208036+458850440+459472741+460114882+459978775
3158+459226561+458407463+457789867+457465436+457467774+457567414+457309196
3148+456330206+454678071+452937751+451796355+451328278+451010860+450494540
3138+449917940+449451762+449034616+448553273+447920102+446995929+445675940
3128+444096359+442718660+442118303+442498895+443466607+444374505+444795245
3118+444688563+444288656+443818826+443244037+442493899+441831245+441634389
3108+441881241+442087067+441760503+440906575+439973810+439266070+438658262
3098+437955343+437176657+436294765+435092036+433581151+432285327+431810968
3088+432176365+432810880+433318112+433823298+434352475+434456118+433839808
3078+432970860+432658293+433213884+434173852+434763017+434639591+434164940
3068+433956191+434278548+434805766+434903186+434286554+433228494+431971795
3058+430498517+429089494+428422867+428740606+429357180+429304525+428241614
3048+426580480+425054109+424345405+424737568+425835251+426858276+427405013
3038+427675855+427917768+428041048+427720211+426656307+425030529+423629834
3028+423013611+422817573+422373982+421580393+420754341+420170026+419983456
3018+420115531+420138498+419727254+419143728+418879286+418979599+419069422
3008+418912977+418662795+418556317+418495772+418003969+416743530+415119944
2998+414030881+413861521+414136979+414315456+414404489+414524146+414357211
2988+413483647+412061212+410788822+410243604+410453054+411007447+411427398
2978+411533497+411552285+411732369+411909764+411688948+410926566+409785637
2968+408524497+407430730+406719016+406397273+406406507+406789875+407465268
2958+408026411+408017061+407308502+406180460+405097154+404381875+404124854
2948+404296669+404672030+404805011+404473538+403982202+403714926+403621187
2938+403392306+402988017+402752620+402944567+403268121+403174354+402626564
2928+402077255+401737279+401469448+401247726+401095138+400793119+400227272
2918+399728514+399591208+399586328+399306195+398702742+398060659+397667298
2908+397646931+397919964+398199980+398176546+397793645+397260408+396820440
2898+396631328+396751949+397061623+397238609+397006339+396423193+395796977
2888+395353299+395091370+394857258+394514623+394125966+393940068+394100545
2878+394379977+394340062+393771000+392858632+392002658+391611254+391894280
2868+392661513+393434122+393806824+393585540+392747654+391557051+390542354
2858+390058965+389973818+389964497+389954299+390042164+390179118+390139350
2848+389784881+389270256+388900826+388770797+388668702+388406013+388038716
2838+387639160+387167606+386737077+386614236+386789849+386914180+386750723
2828+386382462+386015457+385834205+385899395+386020951+385907255+385501826
2818+384997107+384567688+384262426+384073050+383978757+383952722+383953657
2808+383881162+383591620+383060135+382492856+382133887+381977296+381831342
2798+381602461+381320750+380976741+380600445+380406306+380569968+380906145
2788+381001900+380677323+380129621+379597464+379097654+378611227+378293108
2778+378265057+378377817+378389300+378179149+377649009+376733514+375670428
2768+374947551+374825616+375095639+375337581+375280748+374950999+374607166
2758+374493412+374579962+374619614+374475734+374215266+373874180+373417353
2748+372974434+372797915+372870849+372832015+372453965+371943344+371578122
2738+371298515+370884320+370363617+370019930+370042547+370271165+370285366
2728+369788858+368924088+368125883+367685915+367581541+367662715+367800926
2718+367846772+367629784+367132311+366581366+366236043+366126292+366079306
2708+365960234+365810452+365755255+365836750+365971309+366040414+365948634
2698+365619761+365078430+364498118+364010756+363572250+363155396+362888090
2688+362882947+363115218+363465976+363716831+363645651+363301964+362998747
2678+362908018+362824566+362425507+361733428+361208606+361216057+361520735
2668+361613421+361395322+361130530+360909567+360619149+360297786+360130121
2658+360151948+360202557+360146309+359979287+359731471+359433163+359173893
2648+359048860+359089973+359327970+359739068+360067473+359995533+359541189
2638+359019932+358689978+358642116+358829125+359016455+358903840+358437341
2628+357876052+357523395+357474831+357605299+357733254+357756834+357667333
2618+357540781+357499668+357578971+357686414+357761509+357837043+357881020
2608+357764052+357449556+357048597+356668239+356365285+356232392+356339571
2598+356567108+356650999+356434946+355983144+355449585+354975489+354711397
2588+354780035+355167465+355698277+356108382+356184763+355952609+355707131
2578+355735504+356002020+356197035+356102421+355821645+355619062+355603721
2568+355636243+355536047+355316867+355164075+355204311+355389070+355611435
2558+355804872+355875819+355704092+355338928+355043075+354979784+355008303
2548+354952902+354874037+354864540+354788685+354470565+353998894+353665580
2538+353691908+354076649+354622364+355096109+355407508+355615555+355783337
2528+355891802+355902029+355864861+355891861+355920146+355637237+354900452
2518+354111099+353856037+354238850+354797509+355034367+354883241+354692521
2508+354823077+355271635+355685158+355731442+355423784+355063733+354882160
2498+354833216+354816473+354923243+355247586+355614942+355753007+355629435
2488+355435676+355317978+355244635+355116973+354949687+354870238+354917954
2478+354959710+354896039+354864657+355132547+355786697+356564771+357032643
2468+356961638+356515418+356054032+355814457+355825706+356024257+356307867
2458+356534528+356626162+356618623+356478513+356054763+355396258+354843355
2448+354614913+354609039+354716043+354968447+355335481+355698570+355998572
2438+356184734+356161650+355933499+355615526+355262109+354887507+354636272
2428+354711164+355101018+355534060+355751867+355753883+355729484+355809109
2418+355949307+356020780+355965349+355920292+356179007+356890750+357797859
2408+358441111+358649625+358651408+358689774+358760048+358806274+358956524
2398+359356489+359873802+360233589+360487570+361169509+362955238+366323615
2388+371563804+378937733+388723840+401130436+416277002+434351014+455638361
2378+480021491+506330695+532694832+558088160+583076322+608116963+631284888
2368+648960834+660007731+667249409+672545905+673361496+666943825+655262677
2358+642161080+627904355+609018930+583145106+554320636+530912405+518659828
2348+518837253+530009796+548201477+566736845+579740554+585858778+587448293
2338+588075707+590071499+593307451+596089615+596920343+595816758+593854043
2328+591415332+587859771+582814276+576526809+569066214+560488592+551542037
2318+543069841+535041966+526898555+518440736+509703630+500499588+490819374
2308+481236639+472356589+464187815+456357351+448674098+441308264+434568353
2298+428565870+423099868+417958707+413256694+409270428+405979250+402990793
2288+399987404+397095635+394677876+392858953+391456738+390315547+389450924
2278+388863775+388447242+388101276+387763638+387330771+386690968+385839698
2268+384902960+384062473+383432487+382932268+382315899+381443036+380511469
2258+379893201+379725711+379804752+379889812+379914093+379867400+379736698
2248+379626275+379683050+379870526+380055577+380248518+380479152+380567514
2238+380331737+379913363+379617100+379520557+379429361+379138738+378642873
2228+378131608+377758672+377407855+376842680+376085733+375402012+374896650
2218+374424511+373940363+373636796+373627825+373746254+373803233+373846567
2208+373980190+374104814+374065396+373932503+373910237+374058383+374286359
2198+374534876+374821963+375145313+375463257+375795840+376238087+376800515
2188+377324958+377673028+377917337+378215879+378597114+378989628+379358795
2178+379716595+380078953+380441283+380717851+380772989+380640973+380610876
2168+380905795+381371651+381707273+381899279+382129212+382349414+382335623
2158+382125647+382041434+382264764+382666453+383069369+383465827+383914239
2148+384370394+384745230+385060339+385394091+385702977+385883908+386039593
2138+386485083+387366478+388394529+389168190+389743710+390593723+391942143
2128+393500539+394976710+396428891+397966044+399495892+400933113+402320571
2118+403628960+404707883+405515381+406202375+406898720+407526251+407864094
2108+407732077+407131312+406293133+405547757+405028340+404538436+403831601
2098+402953712+402139114+401451507+400774447+400147705+399819096+399853108
2088+399947197+399802908+399485227+399250940+399173273+399107089+398956781
2078+398816963+398824882+399003329+399299533+399637990+399921921+400173886
2068+400585335+401169357+401589163+401661395+401698007+402016156+402520495
2058+403023724+403561812+404181892+404769742+405252225+405743590+406355927
2048+406986584+407453376+407822134+408394614+409308151+410346400+411228117
2038+411906491+412510939+413153167+413886534+414778156+415892319+417171926
2028+418440313+419590738+420697303+421879461+423150682+424458925+425774502
2018+427084323+428393588+429777423+431344469+433106120+434945497+436703203
2008+438256486+439616361+440996076+442610984+444373395+446007734+447445130
1998+448847870+450338505+451934712+453585239+455083909+456135658+456668837
1988+456955078+457415996+458356679+459759507+461381895+463107839+464979680
1978+466916915+468780310+470620593+472482586+474243507+476012901+478207974
1968+480845002+483296978+485153916+486768298+488637567+490825978+493154470
1958+495489975+497741443+499872641+501981457+504242216+506757016+509458182
1948+512190028+514988438+518107568+521475127+524364938+526178104+527333409
1938+528743221+530782960+533213664+535749970+538323794+540899196+543327153
1928+545547648+547838797+550518281+553374664+555921606+558269734+560916900
1918+563623559+565536249+566586128+567569443+568872543+570162377+571192386
1908+572227538+573575987+575052947+576080326+576401338+576613593+577611285
1898+579495280+581449755+582799374+583872336+585414048+587272564+588340617
1888+588081610+587358178+587192617+587779825+588897494+590204743+591118222
1878+591260115+590968674+590881130+591457234+593039854+595525667+597669780
1868+597750486+595670716+593008763+590949155+589617477+588722758+587864271
1858+586667649+585317855+584573268+584781900+585329952+585426262+585101568
1848+585181456+586320222+587829440+587623672+584630306+580414487+577062180
1838+575296000+574468486+573585805+572635333+572519096+573417673+574011542
1828+573228326+571644421+569950648+567818924+565025014+562263246+560312395
1818+559225465+558531721+557944455+557643605+557830029+558221345+558211352
1808+557526666+556564273+556139295+556933323+558874415+560921283+561893495
1798+561740440+561539406+562363296+564328699+566115626+566025335+564436580
1788+563368935+563889579+565504575+567468224+569653071+571776964+573085031
1778+573545598+574347574+576845601+581368465+586327702+589027991+588717323
1768+586897436+585208104+584794231+586146070+588509509+590407122+591570842
1758+592813865+594148582+595193493+596756243+600048706+604585654+607992778
1748+608803753+608091483+607602923+608187851+609818100+611812957+613217334
1738+614294270+616992689+622402734+627597777+628098493+625063283+622185219
1728+620762609+620770907+622162019+624571626+627488027+631237493+636601428
1718+642652154+645781102+644085575+640311623+637501700+636585299+637556459
1708+640367083+644089783+646683535+647787822+649849008+654576063+659721958
1698+662086858+661860870+659994231+657401121+655982543+656721228+658883808
1688+661910252+666887313+674269073+679932457+679228661+674818879+671422508
1678+671228779+674215717+678151783+680433874+681523959+683286107+685023243
1668+684676225+683356060+683953202+686844474+689310008+689076598+687520861
1658+687451200+690510838+697134920+705510923+709967165+709412100+709365991
1648+711938588+714409850+713217318+709748657+707684958+708320612+711192891
1638+715770163+721153384+724506683+723874945+722126589+722830443+726668563
1628+731873775+736649159+741184412+746186428+751008330+755277330+760491776
1618+767856705+775387721+779278437+779516931+779148232+780033835+781951551
1608+783393505+783428861+782904127+783033396+783662856+783835956+783361772
1598+783327117+785109076+788572185+791652219+792735408+792719045+793665426
1588+796497906+800404635+803443819+804009579+802708699+802063753+804060655
1578+808841066+814534429+817892170+818503221+819700428+823713050+829117017
1568+832528231+833170548+832854094+833291870+836338592+844274073+856046739
1558+861858151+857035898+850811605+848929538+850528755+852279974+852125108
1548+851355275+853045424+858359744+865396707+871739808+875283097+872149708
1538+863117363+855541465+853316412+854707581+855136182+852649083+849760733
1528+849122157+851355684+855554847+860085543+863042267+863645429+863969889
1518+866044458+868571647+869464497+869221736+869660564+871718244+875958608
1508+882719382+889678151+892212236+890725341+889030458+888666317+889267725
1498+890170919+891504057+893703105+896276403+898588882+901087319+904463936
1488+907784685+909392843+909785678+911031741+913751548+916136728+916792485
1478+917189704+919408153+923274675+926761803+928424310+928860975+929572836
1468+931368704+934146835+936971602+937970520+936152971+933068730+931403184
1458+932634577+934439211+932850222+929136872+926484445+925119340+923255682
1448+919660089+915040973+910884413+907744887+905698369+905424226+907669499
1438+911871351+915526436+916525004+916333963+917439535+920038664+922537334
1428+923649569+923003571+920245660+915949135+912807856+913725952+918764142
1418+923980282+925591420+924292294+922062274+919623037+917132374+915228683
1408+914656729+915183392+915367479+913929557+911855397+911464081+913261644
1398+915238443+915644369+914927015+914409819+914996091+917366894+921789826
1388+926444823+927577394+924385857+921245689+922105578+926203114+930358506
1378+933517668+937148091+942183651+947439823+950615757+950548960+948348861
1368+946378841+946455398+948750462+951990855+954697573+956965170+960813576
1358+967076965+973261927+975809629+973868595+970503958+969650906+972905033
1348+978996432+985067202+988865232+990273992+990661919+991434732+993691577
1338+997913181+1002729123+1005348063+1004759336+1003259176+1003826981
1330+1007254734+1012163946+1016727076+1020248449+1023065619+1024908823
1321+1025128792+1025003730+1027099981+1031785835+1036477299+1038913906
1312+1039824989+1040677281+1041480483+1042750155+1046073534+1051859116
1304+1058730517+1064933128+1069022541+1070563259+1071302762+1072881466
1295+1073741823+1070849850+1064662901+1058812801+1053878927+1047089576
1287+1038257973+1031204238+1028686750+1028842084+1027788407+1024757580
1278+1022644265+1023597775+1025809037+1025325619+1021042769+1016075818
1270+1012842203+1010012177+1005903479+1001249534+996975216+992766468+989205238
1260+988003356+988870726+988289363+982991055+974627032+968741868+968411623
1250+970366273+968651753+961826987+953091694+944312336+934605240+923895777
1240+914186168+906742696+900209488+892330519+882899670+874025055+867419147
1230+862711671+858507598+854226384+850619454+848561481+847497519+845696216
1220+842409772+838961974+837057465+836831127+837457723+838834983+841048407
1210+842746270+842544885+841605050+842269807+845034439+848569254+851651859
1200+853806316+855631287+858881382+864204292+869450062+872375463+873817826
1190+875879830+878807744+881521825+883400093+884509932+885541869+887751552
1180+892139186+898244085+904197449+908700969+912807973+918897385+927984664
1170+938835611+949083571+956028198+957789294+955998160+955441283+959139672
1160+965036174+968954883+970170615+970810652+971182332+969896004+967615725
1150+967566869+971990852+979540978+986509040+990076932+989617007+986581856
1140+983472018+982344356+984123042+987235101+988003356+984772430+980465386
1130+979695670+983811556+989578904+993083681+994075412+994906315+997356947
1120+1001473476+1005293480+1006272237+1004117078+1001440282+1000458487
1111+1000889074+1001838143+1003365303+1006513244+1011824876+1016125492
1103+1014258911+1007295174+1003265137+1007224579+1015798460+1022425114
1094+1025570133+1027660306+1029327722+1028935121+1025490187+1021071288
1085+1018532060+1018414946+1020814618+1026010772+1031556048+1032817188
1077+1027736161+1017368165+1003687893+990117723+981423104+980301169+984449256
1067+987938020+986853603+983207518+981753174+984576772+988496942+988844895
1057+986047829+984949036+988668172+995689765+1001935972+1004152727+1001121900
1047+993426258+983166025+973538349+968413317+970648364+978677992+986003298
1037+987205530+983074157+978050869+975177305+974834846+975984657+977269348
1027+978129179+979232297+980864649+981305873+978575137+974463984+973486396
1017+976556787+978832800+976225139+971285829+968753322+969266311+969594979
1007+966047073+957531222+947303073+940838708+940502268+942774131+941539874
997+934661401+924909598+915532923+908717332+905552327+905148856+904794007
987+902315265+897554900+891361522+885187546+880797400+878362254+875825481
977+871411959+865750738+860684379+857348436+855753310+855270594+855274802
967+855162071+853865574+850746444+847143839+845136125+844659369+843407288
957+840011794+836405448+835980821+839820578+845614926+850202775+852442380
947+853425169+854962790+858161457+862671756+867362285+871831559+876501751
937+881330491+885319387+888010033+890831060+895988818+904113529+913763879
927+922586015+927706138+927406165+923807065+920823926+920427642+923062537
917+928299891+933013562+932939402+927826642+921805604+918228595+917017422
907+916953839+917619473+918526524+918901125+918737785+918227836+916893996
897+915431296+916681741+922044683+928550424+932189672+933031036+934227716
887+937594808+942407769+946506124+947433336+944521961+940027850+936847007
877+936140757+938337759+943707188+950161969+953549924+952673963+951030449
867+951567281+953686849+956057886+958685183+961267364+961804605+958761097
857+953855975+950995326+952545102+957025071+961321012+964377085+967317622
847+971381321+977340003+985915871+995270982+998941145+991618819+978247988
837+968625397+966644975+969724190+974341376+978769158+981013789+979651313
827+976529437+974402972+974554157+977013497+981028282+984490514+985246030
817+984122107+983743882+985614203+988596758+991094610+994434702+1000878555
807+1009271740+1015522973+1016167919+1011617296+1005716003+1001477684
798+1000324659+1001857546+1002750746+1001676615+999960225+996223791+988802000
788+980702302+977017530+978650875+981474999+981288575+977814420+973678957
778+970905091+968867865+966358968+964305613+963451567+962496070+960465038
768+957487450+954054906+950723112+948289719+947726063+949009820+950876342
758+952609971+955577565+961641206+968993687+972368610+970006047+967128158
748+969762527+977672528+984553396+985622501+984408464+987923760+996587056
738+1003513157+1005205235+1006374390+1010540360+1015601867+1017723248
730+1013866544+1003466639+990940678+981824939+978745782+981212135+986212280
720+989175667+986495832+978691374+970553457+967262454+969553252+974242554
710+977714254+977780174+975348594+972972590+972164303+973722728+977134936
700+979984832+979512226+975940593+974683544+981063580+991495510+996060042
690+992836246+988516578+985614787+979485928+969535428+963916518+967327206
680+973195364+972299183+965365368+958228414+952450254+946751982+939464194
670+930146485+921528481+919919446+927085854+937789297+945803906+947623209
660+945895248+946091140+948199838+946704645+938723113+928099382+924054735
650+931357483+942340329+945191978+937604451+927313186+921963042+922737551
640+927370574+933659093+937934872+932148647+914732818+900850051+902797922
630+916649073+929208987+935670488+944140522+954878620+947913423+917920557
620+890870624+885537428+901353397+924861093+938175704+934365635+918413266
610+899127584+882304281+868089866+855073358+845035958+841645198+846980148
600+860021667
##END=
