##TITLE=<SNM>
##JCAMP-DX=4.24
##DATA TYPE=INFRARED SPECTRUM
##DATE=29/4/2025
##SAMPLING PROCEDURE=Instrument type and / or accessory
##ORIGIN=Admin
##XUNITS=1/CM
##YUNITS=ABSORBANCE
##RESOLUTION=4
##FIRSTX=4497.3318
##LASTX=599.83466
##DELTAX=-1.4281778
##MAXY=2.2049477
##MINY=0.51577377
##XFACTOR=1
##YFACTOR=2.0535176e-09
##NPOINTS=2730
##FIRSTY=0.52608997
##XYDATA=(X++(Y..Y))
4497+256189658+256320157+257063707+258047705+259071148+259852954+260021332
4487+259619181+259238220+259335020+259640718+259501424+258697734+257722501
4477+257180970+257097057+257205120+257740236+259170764+261040131+261955600
4467+261036996+258723247+256258971+254943152+255358015+256770983+257910733
4457+258482160+259048741+259617614+259253313+257303342+254594206+253009842
4447+253812459+256356352+258648651+259234476+258168306+256503686+255537684
4437+256101449+257839359+259298158+259252065+257937233+256645592+256232384
4427+256413852+256552710+256621356+257038803+257824991+258254077+257566518
4417+256060784+254956214+254927188+255401496+255720894+256167076+257174207
4407+258354622+259015274+259141158+259252007+259484938+259337139+258430350
4397+257193190+256506444+256718128+257315359+257793353+258479925+259943862
4387+261730535+262425612+261339240+259420704+257938975+257036974+256119300
4377+255001610+253997613+253239783+252607518+252217268+252431013+253291216
4367+254283545+254806383+254665087+254095459+253492161+253071405+252782078
4357+252623395+252821175+253422673+254063792+254451400+254723660+255069791
4347+255408781+255645950+255776362+255629463+254985036+253973348+253015270
4337+252414671+252127666+251798631+251318141+251348008+252574254+254424725
4327+255422510+254962164+253760706+252567607+251595829+251165989+251747053
4317+253111403+254298464+254770363+254962454+255323446+255519630+255121921
4307+254508784+254407397+254861329+255286090+255458038+255840334+256712642
4297+257440546+257056392+255490982+253791763+252984241+253037387+253169425
4287+252974227+252803528+252994284+253399395+253896807+254626395+255478269
4277+256020961+256126788+256119561+256337166+256923542+257758261+258387392
4267+258379061+257764327+256918753+256174594+255685628+255466775+255369335
4257+255091473+254510960+254063734+254352597+255279588+256138224+256547660
4247+256558109+256084295+255186068+254543672+254702675+255227284+255420130
4237+255418998+255810409+256561563+257018427+256797106+256180137+255623832
4227+255247167+254847977+254242270+253648174+253651192+254515024+255689546
4217+256391967+256512568+256518054+256743757+257181957+257674174+257975431
4207+257800290+257079787+256192793+255674424+255667951+255937077+256347964
4197+257059759+258118382+259022182+258922827+257541062+255716743+254540218
4187+254154148+253958516+253695398+253594157+253655923+253622979+253643471
4177+254252748+255584735+257048962+257874102+257767288+257128347+256777775
4167+257268541+258259011+258749661+258093797+256625100+255326319+255054727
4157+255881086+257074272+257912706+258358511+258651322+258643165+258169641
4147+257689644+257737827+258033134+257934534+257537927+257468353+257749205
4137+257753849+257292922+256997877+257418574+258249839+258731868+258654311
4127+258590455+259019570+259570157+259447205+258382864+256877972+255778597
4117+255733201+256746573+258063117+258650770+258068516+256909552+256201384
4107+256276096+256562434+256679088+257036016+257956738+259064618+259953412
4097+260655861+261136119+261007361+260037992+258574897+257277161+256589892
4087+256601474+257228746+258193878+258898649+258832238+258167232+257571481
4077+257454450+257743110+258277907+258956120+259486679+259479481+258874268
4067+258016734+257389026+257414598+258231408+259378211+260024931+259854231
4057+259498638+259818297+260908674+262064330+262497595+261949591+260808942
4047+259822535+259584380+260115229+260919559+261425795+261273497+260379711
4037+259082120+258112693+258047008+258781153+259712702+260254814+260105245
4027+259424594+258851889+258982591+259798647+260766100+261340779+261310505
4017+260917382+260662305+260728483+260668284+259966183+258883991+258319994
4007+258759965+259827324+260902550+261729548+262324544+262675058+262681647
3997+262285563+261661628+261217188+261187088+261400368+261595595+261646448
3987+261541984+261506109+261891134+262714997+263642134+264459641+265163599
3977+265614280+265554226+265002594+264386061+264223517+264606452+264954383
3967+264581984+263634007+263093811+263724335+265244900+266616332+266994536
3957+266307993+265114517+264216174+264266214+265328088+266701581+267438338
3947+267255303+266822153+266990328+267847048+268624442+268633933+268110136
3937+267864144+268411364+269610442+270763834+270857906+269288664+266820266
3927+265260748+265807011+267798256+269385726+269665214+269475096+269924238
3917+270846673+271098325+270283924+269256997+268704901+268382890+268172977
3907+268959920+271542737+275057160+277435985+277843592+277168136+275996197
3897+274189120+272144583+270983152+271436938+272861603+273741835+273794255
3887+274246532+275690732+277116906+277776804+278187720+278192625+276802878
3878+274667955+273686076+274566975+276549165+278702199+280216756+280111132
3868+278634627+277510436+277832011+278920646+279343782+278580495+277105992
3858+275757229+275716826+278366982+282963220+285195378+283336867+279682830
3848+276433236+274714367+274966513+276938863+279722189+282541303+285205769
3838+287253266+287722378+286616008+285130738+284096061+283252054+282199730
3828+281132109+280292136+279930012+280977605+284057689+287253005+287952232
3818+286796867+285761900+285288347+284759848+284043844+283628632+284218317
3808+286042201+288067261+289447923+291020764+293130695+294125404+293384873
3798+292580427+292489171+292347961+292062842+292610672+294350207+296629213
3788+298990042+301612217+304484594+307221420+309930615+313213588+317049035
3778+320623512+323505467+326150283+329480829+334444009+341226602+348544980
3768+354778815+359689719+363908682+367808421+371513514+375028634+378004690
3758+380092910+381722409+383858492+387340494+392359490+398202205+404135914
3748+410381940+417143113+423014940+425510448+425019276+424519106+425921102
3738+429818925+435931288+442773558+448249853+451479593+453362805+455248688
3728+457758476+460571698+462962307+464670233+465737361+465904026+465142800
3718+464045021+463220577+463224496+464780066+467755281+470148154+470161041
3708+468099496+465014623+462041063+460332033+460044273+460016002+459614055
3698+459649612+460934693+463236861+465916014+469040971+473273140+478184829
3688+481319394+481065303+478610722+476299353+475799096+476931473+478579200
3678+480894575+484496133+487310168+487103854+485910494+486343092+487534246
3668+487105944+485024167+482524103+480057011+477903861+477213660+479058442
3658+482453919+484492708+484034480+483289334+483967402+484825342+483544499
3648+480533989+478151130+477010771+476416210+475986195+475977081+476712968
3638+477992128+479047499+479123489+478414683+478337881+480196334+483045200
3628+483972569+482421584+480737169+480754120+482893018+486402188+489497830
3618+490916196+491494213+492534259+493907868+494851898+495517049+496541132
3608+497660940+498229378+498692221+500170148+503018317+506315397+508698866
3598+509424448+508987903+508931419+510298526+512761816+515680517+519029204
3588+522257551+523503157+522069233+519718911+518438532+518896325+520437818
3578+521752795+521951330+521062508+519580169+518378043+518958498+522450862
3568+527690453+531270300+531333576+529725149+528742690+528229517+526720184
3558+524423095+523691359+526399276+531866718+537559864+541660547+544122095
3548+544914727+543265200+539542024+535891122+533852710+533031865+532177757
3538+530423680+527904139+525681995+524795610+525291542+526332575+527096414
3528+527426261+527659685+527858337+527411458+525797981+523575198+522090944
3518+522203157+523319773+523959033+523568465+523091864+523298352+523768277
3508+524107412+524714048+525756242+526455992+525632593+522945574+519940899
3498+519209279+521677387+525463084+528066915+528790814+528570974+528598258
3488+529573229+531402831+533156385+533662592+532556890+530668250+529152880
3478+528467353+528275900+527817353+526388247+524212253+522516401+521932174
3468+521524712+520211534+518315580+517085299+517420197+519168063+521012235
3458+521320081+519594623+517005711+515239443+514880106+515176168+515274158
3448+514966080+514167527+512761177+511091565+509537010+507991105+506786889
3438+506832634+507786184+507907569+506729825+505857256+506251715+506875534
3428+506650411+505717933+504477320+503254992+502738046+503491493+505191641
3418+506965745+508351313+509354729+509797138+509122640+506975498+503862499
3408+500837854+498647696+497427052+497024582+497418983+498504716+499759494
3398+500585969+500816549+500597347+500041042+499368402+498981491+498901148
3388+498525382+497629999+497101733+497605153+498143753+497364589+495889506
3378+495610570+496854086+497896687+497487077+496525864+496629544+498052961
3368+499433536+499250210+497439939+495431424+494718960+495692364+497763343
3358+500089921+501952903+502831566+502589435+501766152+501449656+502389158
3348+504115370+505337930+505366027+504696812+504189792+504310306+505155184
3338+506417625+507354631+507513575+507304068+507208225+506964816+506308257
3328+505797986+506065486+506915241+507778289+508387885+508591006+508171354
3318+507154586+505919139+504996066+504683460+504648339+504442489+504407890
3308+505101023+506221934+507190578+508076324+508887881+508961373+508176172
3298+507617022+508022743+508594083+508221858+507140247+506431093+506533147
3288+506998312+507382785+507995633+509650384+512497740+515293083+516471291
3278+515766375+513923421+511558587+509449527+508873948+510398607+512988332
3268+514874011+515013334+513725815+512218456+511550286+511844548+512505984
3258+513049053+513390104+513611744+513841105+514172577+514507707+514744440
3248+515103836+515807649+516550009+516776467+516266138+515028775+513079008
3238+510872479+509332379+509001603+509680222+510875498+511971099+512138403
3228+510957814+509042471+507285724+505700808+503793940+501853577+501036563
3218+502068250+504295677+506284630+507072327+506591140+505257122+503602777
3208+502142092+501261686+501190573+502065348+503863428+506007899+507211766
3198+506479160+504364584+502419577+501355439+500463655+498868523+496630298
3188+494445191+492973475+492626329+493422153+494783107+495563606+494692315
3178+492247544+489675235+488449076+488632518+489044275+488640413+487389118
3168+485955426+485043876+484966871+485397611+485402807+484117290+481766098
3158+479585344+478379997+477641904+476556665+475356426+474874542+475167353
3148+475487999+475435521+475274951+475245664+475203200+474983389+474671479
3138+474293594+473762338+473245450+473001054+472704528+471660883+469929765
3128+468441853+467721437+467270930+466585403+465980915+465747897+465220646
3118+463712910+461858375+460925463+461215400+461952476+462266795+461771502
3108+460802974+460337113+460964473+462030004+462432038+461960226+461155578
3098+460297696+459252251+458017268+457001662+456767512+457432025+458287729
3088+458367811+457535907+456526715+455881301+455496828+455208893+455039384
3078+454836146+454408395+453986885+453855776+453685860+452959610+451858784
3068+451054658+450826110+450952749+451178104+451208145+450607257+449318083
3058+448066846+447737173+448371383+449108838+449151244+448506672+447729017
3048+447227832+447059715+447146705+447193436+446626537+445286162+443951215
3038+443464716+443638406+443667925+443236778+442568608+441848947+441209715
3028+440819901+440559396+440082737+439403944+438939882+438911553+439129564
3018+439351436+439459818+439296810+438684659+437671839+436541000+435543273
3008+434731368+434024159+433381444+432859157+432418548+431876146+431290206
2998+431073907+431276389+431241559+430613241+430045209+430179337+430626767
2988+430682002+430372763+430030406+429447891+428263122+426811522+425897417
2978+425762564+425804274+425490391+425088763+425084555+425311767+425166262
2968+424356795+423056766+421660778+420700784+420597830+421154687+421601247
2958+421451068+421038991+420937343+421197268+421491268+421614540+421466481
2948+420907563+420052874+419407083+419305958+419370975+418873679+417701711
2938+416638183+416388824+416650722+416603962+415979417+415094745+414247313
2928+413587734+413152872+412720942+412034602+411185776+410500800+410200095
2918+410188629+409984840+409184372+408181304+407852647+408420736+409167217
2908+409285120+408696538+408024536+407835725+407947589+407694051+406842322
2898+405793336+404920797+404278517+403923186+403983269+404279882+404250827
2888+403536854+402527982+401999831+402186147+402515297+402390023+401928399
2878+401643222+401682465+401774476+401698081+401455484+401153066+400910006
2868+400672141+400127214+399170674+398317233+398181538+398674655+399099039
2858+398984474+398555040+398296364+398236281+397959870+397331871+396739023
2848+396486093+396402615+396187855+395818765+395502937+395327883+395017861
2838+394226506+393102807+392203448+391802140+391688185+391622994+391550226
2828+391347163+390831726+390149130+389763380+389832548+389928506+389693515
2818+389402068+389450686+389652473+389478000+388767481+387868354+387194901
2808+386866680+386757572+386777890+386935180+387099842+386983914+386496748
2798+385896846+385437312+385041490+384499378+383835620+383275774+382938902
2788+382742137+382531498+382191289+381731958+381306675+381021585+380777218
2778+380417097+379929815+379419922+379005929+378767135+378648594+378422369
2768+377839012+376882356+375907791+375379321+375326059+375278544+374918888
2758+374482836+374318377+374400374+374490092+374497842+374511745+374586573
2748+374596152+374319131+373713569+373043106+372563748+372122675+371345339
2738+370263902+369380275+368961812+368681076+368165901+367537379+367155838
2728+367136536+367321487+367516046+367603152+367555172+367444265+367369118
2718+367322590+367215021+367017705+366732615+366283066+365645982+364998478
2708+364565358+364424845+364475988+364455496+364127129+363607686+363245621
2698+363100434+362929212+362668214+362465644+362319674+362113302+361893926
2688+361763311+361585558+361108144+360348950+359631465+359251374+359276627
2678+359583631+359881521+359808115+359248007+358477232+357839335+357433847
2668+357222280+357194676+357245036+357104871+356657992+356194656+356104909
2658+356391885+356718772+356859227+356849329+356760714+356581858+356301993
2648+355932613+355458247+354889315+354360991+354055206+353969609+353883722
2638+353634305+353311134+353101133+353090742+353288087+353662750+354094274
2628+354395735+354424383+354124374+353526997+352783274+352122563+351694290
2618+351476366+351402437+351506581+351822003+352195447+352365275+352240117
2608+351970237+351687614+351285261+350583856+349700926+349097773+349164938
2598+349820860+350600604+351097262+351213103+351015555+350562726+349994172
2588+349600468+349559513+349690883+349672742+349418797+349067296+348748101
2578+348554297+348568171+348729119+348853842+348885741+348886408+348791814
2568+348521295+348243258+348133484+348026176+347711973+347336962+347133289
2558+347069636+347070594+347230235+347562549+347870279+348035203+348140072
2548+348235857+348303312+348433754+348685145+348823452+348623059+348299220
2538+348169969+348076158+347660337+347057010+346772385+346945000+347183097
2528+347177640+347124640+347364507+347836174+348130204+347958517+347390369
2518+346762197+346468515+346675903+347188264+347697664+348086694+348383830
2508+348571219+348558448+348305925+347960810+347816466+348032648+348426004
2498+348640939+348522398+348247467+348063793+347979648+347836784+347615927
2488+347473673+347544582+347881744+348446902+349016501+349296541+349239157
2478+349076410+349011770+349035252+349036123+348998796+349057079+349332881
2468+349748179+350103801+350318910+350434897+350395132+350040642+349426401
2458+348955606+348997693+349458620+349909591+350066736+349983490+349856822
2448+349818247+349871712+349926194+349928748+349984361+350231137+350586207
2438+350776616+350661442+350382941+350182258+350203998+350452631+350786455
2428+350978170+350918203+350774032+350859803+351296058+351830623+352086716
2418+351985736+351798579+351811612+352125001+352700928+353382972+353945605
2408+354287295+354469227+354522693+354429143+354298557+354329324+354593138
2398+355011775+355456825+355769460+355837525+355759939+355777732+355950725
2388+356055710+355846203+355215505+354052739+352160209+349399814+345780347
2378+341398956+336443207+331178567+325772137+320255003+314803989+309842638
2368+305670000+302246746+299518976+297633732+296711094+296815383+298261353
2358+301427382+306122452+311858584+318812516+327170969+335332222+340395947
2348+340573816+336675790+331783142+328838637+328160250+328470505+329250278
2338+330662404+332461529+334034515+335049803+335698903+336481927+337766544
2328+339511391+341485279+343541367+345533571+347314380+349014440+350998662
2318+353395802+355912208+358164132+360051785+361804121+363709915+365789340
2308+367738237+369219821+370182282+370849175+371437525+371989882+372461433
2298+372812904+373037185+373270348+373784537+374653013+375567320+376218946
2288+376668350+377091892+377392423+377355154+377059906+376859484+376964585
2278+377255103+377508410+377646949+377754141+377954388+378245457+378425213
2268+378286442+377856166+377351323+377004844+376976167+377254348+377631739
2258+377920254+378087094+378076528+377767492+377250023+376857974+376787239
2248+376897130+376988328+377096971+377378462+377842001+378369687+378892874
2238+379382537+379738565+379856380+379793510+379759550+379916898+380211422
2228+380412772+380326450+379955851+379480875+379091555+378789369+378391601
2218+377818926+377257541+376891992+376630065+376284718+375905788+375709894
2208+375727281+375746989+375657561+375608566+375723565+375902015+376041744
2198+376225680+376585482+377142425+377786417+378345015+378765568+379178980
2188+379627194+379918234+379983367+380112038+380558220+381137194+381464371
2178+381475662+381504630+381875287+382569551+383321286+383925948+384385046
2168+384795527+385166532+385385095+385378303+385263013+385272824+385567725
2158+386114509+386693309+387055433+387134702+387070527+387064025+387272110
2148+387703140+388158320+388447706+388638143+388899316+389245475+389618019
2138+390007833+390355241+390535461+390498047+390296784+390066784+390023710
2128+390299512+390786562+391319531+391895719+392558403+393258066+393940081
2118+394571011+395073416+395429125+395798157+396379540+397192345+398056612
2108+398786316+399399396+400046203+400712544+401232219+401655819+402268986
2098+403144863+403994415+404544247+404845417+405148532+405581333+406026528
2088+406345781+406590032+406835705+407018682+407142418+407391052+407824347
2078+408233463+408458150+408610796+408881373+409266311+409568642+409683061
2068+409836200+410377238+411315695+412269274+412887723+413125704+413125501
2058+413053459+413064083+413263634+413649559+414122183+414576173+414993445
2048+415464096+416135720+417129006+418414029+419723259+420725282+421388779
2038+422017010+422831469+423728419+424528946+425235807+425958865+426788911
2028+427763678+428798007+429743139+430647462+431781929+433275298+434898092
2018+436338895+437576867+438846971+440288616+441779982+443130602+444325791
2008+445555375+447038643+448805723+450670939+452452068+454103394+455626282
1998+457091554+458750137+460784891+462950813+464750925+465932732+466631989
1988+467202604+468061037+469423413+471065625+472575887+473864973+475193070
1978+476737349+478397790+480025663+481628749+483344947+485367221+487838028
1968+490641382+493356323+495601920+497411494+499190591+501348241+503909869
1958+506479450+508731955+510806765+512938117+514982741+516764044+518573327
1948+520815499+523459038+526283058+529271885+532299665+534904947+536904523
1938+538708756+540685286+542793069+545030829+547630481+550549298+553299883
1928+555573519+557685540+560141457+563004197+565912507+568594650+571037737
1918+573147959+574705822+575754576+576671670+577875828+579577194+581570036
1908+583367245+584829730+586323854+588010069+589525961+590679730+591894221
1898+593572541+595437089+596892144+597911873+599137393+600959970+602895806
1888+604162485+604583995+604538366+604495118+604844529+605612431+606315954
1878+606567664+606626180+606916901+607428855+608090930+609202785+610831472
1868+612092055+611987330+610836812+609764780+609208997+608739246+608123903
1858+607785290+607932508+608044663+607688867+607157814+606777113+606329538
1848+605776658+605720058+606317638+606337840+604609944+601842582+599472117
1838+598065941+597367700+597064440+597087603+597176479+596719790+595558533
1828+594434950+593785241+592921612+591160163+588932620+587111435+586042015
1818+585547360+585197253+584621268+583873800+583246208+582682008+581847927
1808+580802192+580078757+580163047+581139412+582534442+583371889+582921237
1798+581600048+580671054+581155260+583145663+585533138+586697530+586296976
1788+585328159+584584116+584284107+584730231+586436764+589367133+592531566
1778+594872367+596377172+597783812+599473974+601042694+602021322+602552026
1768+602832704+602913105+603299785+604632642+606550772+607933320+608766240
1758+610126671+612133503+613889090+615354420+617435558+620158858+622225890
1748+622978873+623281320+623987513+625050316+626102727+627183758+628660466
1738+630826242+633962056+638053799+641568338+642393189+641178234+639905402
1728+639356121+639476577+640080833+640954330+642141014+644246650+647851459
1718+652322509+655536053+656268195+655738652+655514226+656173282+657664967
1708+659777801+661986883+663433405+664108135+665288375+667808787+670492322
1698+671840040+672181904+671971643+671211868+670596466+670982101+672539384
1688+675142519+678986906+683683311+686782145+686579082+685135231+684768986
1678+686198904+688941130+691432864+692557549+693492407+695738991+698252611
1668+698690781+697630359+697853392+700526711+703892581+705253535+704623737
1658+704389906+706444921+711170178+716810612+719150775+717825697+716944827
1648+718066203+719545524+718889370+716206937+713461519+712136615+713052432
1638+716316422+720890049+724343693+724828014+723397225+722108835+722140473
1628+723410403+724802704+725397207+725233328+724950735+725320928+726767043
1618+728709380+729422191+728179256+726846631+726951878+728125384+729442393
1608+730465431+730947430+730724107+730270146+730359719+731256437+732883498
1598+735155334+737683118+739957102+741947796+743760157+745273843+746996515
1588+750196474+755072200+759764251+762496086+764008263+766378612+770116417
1578+773664801+775195554+774975192+775399895+777884024+781734100+784563461
1568+784049185+780625902+776424848+773042027+771580122+773210840+778020271
1558+781981747+781238691+777932671+774538124+771693089+769566207+768428286
1548+768670476+770629184+774112840+778281850+782419744+785927549+787005852
1538+785119534+783168025+783412769+785407526+786832336+786368739+785308259
1528+785694125+788539160+793331814+799014916+804865207+809892678+813249376
1518+815281229+816532175+817341178+818627304+821376031+825601815+830823351
1508+836808321+842360227+845103614+845488262+846246701+848884667+852751752
1498+855604855+856208530+856532805+859237819+864616443+870930157+875948746
1488+878789195+880117117+881183403+883689360+888830786+895539306+901238663
1478+904802952+907255212+910438395+916147330+924752850+933674458+939945097
1468+943123578+944253836+944944704+947013651+950794588+954429642+955758900
1458+953718805+949495575+945999786+943877664+942239225+941689190+943115973
1448+944714589+943216983+938733451+934896379+934480790+937153760+940523752
1438+942453551+942471779+941871412+942316782+944434318+947570131+949965965
1428+950385385+949463763+948031174+945594937+941932598+939217715+940199652
1418+944078696+947056203+947873042+948241029+949436189+951129080+952126749
1408+951430250+949225056+947197210+947025378+948716063+951393271+954596714
1398+957744253+959624650+960161334+961440435+964811820+968812017+971308686
1388+971708252+970553439+968802090+967992623+969437577+973165862+978413406
1378+984392453+990273859+994978101+997221550+996329767+992645602+987694061
1368+984615022+986692677+994561758+1004662794+1010722765+1009437626+1004114906
1358+999917451+998889711+1000496106+1003704599+1007501732+1010699544+1013051549
1348+1015653523+1018426168+1019537501+1019281495+1021192775+1027040511
1340+1033063097+1034351487+1031187809+1026533026+1022444128+1020100598
1331+1019919710+1021675181+1024644503+1028034116+1031521023+1035014780
1322+1038468598+1042065222+1045840180+1049156416+1051414146+1052695338
1314+1052414602+1049799276+1046517058+1045968009+1049261141+1054223131
1305+1058815914+1063571242+1069142538+1073418129+1073741823+1070485612
1297+1065986871+1061335920+1055546583+1048566267+1043392855+1043409109
1288+1048510422+1054370697+1055968732+1051953558+1044498847+1035981798
1280+1028408431+1023886818+1023430767+1026099267+1029416317+1030609386
1271+1029157988+1026955756+1025112860+1023291328+1021902625+1021893337
1263+1022298419+1020509163+1015117129+1008170019+1003037126+999853827+995607725
1253+988806671+981472243+975835233+972170166+969710012+966995361+962266389
1243+955361829+948530299+944290757+942824150+941751769+938592967+933213705
1233+926959494+920359878+913260963+906367957+901024454+897503645+894283019
1223+889548358+883715251+879195495+877182916+876260830+874694839+872686556
1213+871733644+872512692+873863487+874146080+873479884+873626173+875662786
1203+878967702+882145486+883892249+883479330+881686243+880981733+883672873
1193+889790025+897147094+903757333+909458896+914348960+917288908+917959401
1183+918613754+921177298+924551005+926743427+928204462+930899433+935779107
1173+942782643+951126758+959116991+965428383+970310668+974608261+978575020
1163+981896481+983765384+983905055+984222131+987011146+991607297+995807654
1153+999980959+1005800830+1011562418+1012917335+1008442163+1001600938+997205528
1143+997696061+1002561570+1009308056+1014848933+1018085639+1021229231
1134+1026444672+1032113727+1033626542+1027650281+1017228106+1010561382
1125+1013199464+1022733803+1031154139+1033592060+1032713048+1033064838
1117+1035860471+1039042725+1039752924+1038022184+1035700134+1033603206
1108+1033274520+1036066785+1040472760+1043859006+1045132187+1043912994
1100+1040320782+1036990497+1037374100+1042109109+1049592498+1056705751
1091+1057891854+1049972733+1036893203+1026613253+1024763160+1029889086
1083+1036664597+1042568062+1049231883+1057653264+1062990381+1059073430
1074+1047068196+1035575788+1031191756+1033007948+1035378297+1034623167
1065+1031155300+1025830838+1020774457+1019059042+1019794087+1020384121
1057+1020388997+1019769706+1018991703+1019121157+1020052183+1020398749
1048+1018896615+1014846611+1009209601+1005196865+1005621104+1010492185
1040+1016716906+1020178387+1019175609+1014923470+1009397222+1004701920
1031+1002939252+1003185621+1001013227+994472591+986904448+983725677+987751648
1021+996024417+1001873314+1001517344+996653693+990865285+987324855+987471492
1011+989723301+991722935+993859570+997259864+999827123+998724962+994318755
1001+988531625+982377262+976182612+969770675+962751755+955981759+950898964
991+947426338+944156078+940365679+936739797+934324922+933408641+932899706
981+930501260+925063888+918723820+914230071+911427008+908247831+903466554
971+897606860+892458816+889980956+890246830+890975374+890050095+887441445
961+884495692+882787708+883054047+883981996+883327178+881188337+880059298
951+881289869+883920288+886658508+889068970+891320953+894145960+898664031
941+905070395+912011236+918071323+922585622+924970948+925403778+925982143
931+929155399+935141994+942170493+948876226+954948795+959689377+962048058
921+962268304+961931781+962160213+963264464+965394365+967519215+967082321
911+962736720+957248960+955477468+959346758+965482371+967931844+965236698
901+961514102+960177820+960662316+960076811+957482674+954999590+954407409
891+954989431+955934041+958655658+963680285+967873966+968015379+965907306
881+965832652+968368505+970827615+971354720+970379633+970291976+972336483
871+975020077+976272591+976003001+976231142+978199545+980597991+980970099
861+978758346+977038055+979655006+985831196+990754407+993419657+996935009
851+1001642967+1003474600+998668072+990400527+985224328+984714057+985322202
841+984742038+985224212+989316942+995199160+998522015+997792427+995697705
831+995992141+1000631598+1008629669+1017019005+1022404072+1021853979+1015379521
821+1007046494+1003945977+1011664356+1027739912+1041001723+1042114218
813+1035263472+1031774939+1036078280+1043221952+1045612038+1041336215
804+1037290738+1041037367+1049954389+1055291042+1053950058+1049786157
795+1047935831+1049557667+1049362847+1041587577+1029672787+1022571144
787+1022490104+1024177771+1023708716+1021875109+1019416870+1015495972
778+1010822033+1006467607+1001761275+997508904+996563133+999708118+1003630758
768+1003940984+999406948+992626096+987447808+986787649+990803519+994986461
758+993020845+983469787+971026556+962468988+960379723+963452086+969864660
748+976307538+981093981+987662249+997156533+1003892918+1002751398+996416960
738+991222881+989141395+988215477+986910485+985866839+987149888+990920550
728+993454023+992538323+991565964+993840064+997726712+998455488+995168626
718+992856560+995659855+1001807832+1006029552+1005386925+1000725409+994172350
708+991019586+995971939+1004332482+1007169215+1002740832+997113343+996616308
698+1001441413+1005819871+1004657453+1000515843+1000161034+1002956319
690+1000085568+988384058+976275726+970839283+970530683+971352688+970873243
680+968803077+968014276+971197227+976911619+978022953+966413919+943423703
670+920240002+909967715+918509320+938750344+961355797+981080861+993774931
660+996457596+989462186+977031437+962508811+951721261+951023542+957498929
650+960138287+954865607+949200326+950599710+958848969+967157382+968736840
640+962442052+951659552+940902595+936987850+943855837+955748915+965890181
630+973915536+976912664+968121555+949505270+932498862+924935421+924324838
620+925299518+929232317+939970350+954192619+960669573+952251501+941473587
610+935238243+923463937+911530571+910396134+911747973+903920922+890024262
600+879785470
##END=
