##TITLE=<SNM>
##JCAMP-DX=4.24
##DATA TYPE=INFRARED SPECTRUM
##DATE=29/4/2025
##SAMPLING PROCEDURE=Instrument type and / or accessory
##ORIGIN=Admin
##XUNITS=1/CM
##YUNITS=ABSORBANCE
##RESOLUTION=4
##FIRSTX=4497.3318
##LASTX=599.83466
##DELTAX=-1.4281778
##MAXY=2.0961711
##MINY=0.38520372
##XFACTOR=1
##YFACTOR=1.9522115e-09
##NPOINTS=2730
##FIRSTY=0.39711273
##XYDATA=(X++(Y..Y))
4497+203416856+203479218+203911045+204120402+203625053+202498107+201310402
4487+200920205+201873486+203621847+204696660+204106922+202345356+200827526
4477+200655692+201902461+203706069+204984392+205277880+204968424+204604668
4467+204139866+203164984+201936489+201521744+202503282+204107365+205103986
4457+205117252+204528628+203663706+202738225+202162134+202317236+203071327
4447+203814625+204054880+203782720+203225116+202555385+202085469+202385337
4437+203667584+205196818+205863740+205345798+204352597+203820640+204088649
4427+204678830+204732001+203836608+202513067+201690219+201606821+201475778
4417+200516009+198959984+197690652+197316591+197949929+199443074+201299487
4407+202652949+202864871+202064020+200973560+200316041+200317842+200705017
4397+201115777+201394060+201582701+201872937+202417747+202944483+202826340
4387+201845977+200599010+199840110+199660339+199538776+199056861+198350934
4377+197910787+198092604+198774625+199423152+199611518+199422877+199287865
4367+199533738+200099448+200560860+200460472+199747553+198867289+198421860
4357+198759466+199725158+200779346+201508447+201963234+202319007+202439638
4347+202038908+201104892+200076824+199662659+200257862+201426881+202288216
4337+202424174+202151219+202025642+202304413+202783000+203058702+202962435
4327+202670291+202472124+202542928+202845758+203263693+203816457+204470984
4317+204790500+204316187+203318147+202540668+202232113+202134060+202263179
4307+202865314+203652852+203896802+203495796+203271051+203815755+204698523
4297+205163706+205074522+204793996+204626086+204755892+205317052+206094592
4287+206442105+205931094+204968439+204437200+204698065+205207794+205296046
4277+205080858+205227151+205894730+206417833+206145214+205234341+204374305
4267+203983589+204003953+204312844+204924275+205763230+206583071+207208715
4257+207634649+207857501+207820115+207507331+206984443+206395957+205879632
4247+205470872+205316243+205848765+207177419+208445041+208567825+207533116
4237+206304880+205679786+205732301+206078944+206311689+206325138+206327764
4227+206459035+206586643+206621755+206786917+207370411+208338302+209295018
4217+209732356+209365500+208452018+207717330+207630436+207899467+208052768
4207+208199931+208711416+209408718+209733974+209596199+209475904+209810365
4197+210521925+211006237+210703330+209883183+209422183+209574186+209664468
4187+209318374+209198735+209969298+211139722+211610493+211141096+210659807
4177+211124685+212562125+214230691+215310282+215372430+214607011+213740960
4167+213484813+213976574+214756663+215192002+214974462+214294457+213543159
4157+212915241+212383010+211973669+211938771+212560308+213737082+214872883
4147+215343776+215049677+214359551+213723297+213463715+213641151+214043042
4137+214463420+214939641+215566795+216214865+216613489+216636479+216374195
4127+215972564+215546706+215289154+215432135+215909348+216298430+216351159
4117+216289378+216382851+216638250+217049209+217775317+218872938+219994648
4107+220588859+220468930+220002662+219657545+219630006+219981229+220761547
4097+221807065+222638600+222755018+222068295+221012946+220109081+219448066
4087+218815706+218234501+218057157+218550262+219552287+220496439+220894269
4077+220936113+221236455+221867579+222235030+221971723+221352155+220834304
4067+220702712+221014687+221536705+221975585+222378255+222982587+223677782
4057+223958217+223506590+222663666+222156410+222278904+222572361+222553920
4047+222380728+222380529+222439624+222371125+222372683+222600206+222773810
4037+222598343+222203979+221963159+222111040+222634447+223325200+223871751
4027+224092023+224143530+224360841+224853900+225421685+225877633+226235604
4017+226530862+226640548+226356082+225642354+224854999+224558412+224934092
4007+225501221+225708761+225701602+226100348+227054941+227977599+228299160
3997+228028328+227394639+226478683+225483528+224867700+224886111+225297741
3987+225727355+226112652+226624534+227288678+227868951+228168438+228353782
3977+228814172+229650073+230402729+230442115+229657217+228590053+227838328
3967+227577845+227735756+228272537+229060182+229780368+230221523+230458557
3957+230579371+230525544+230337941+230283685+230546763+230911817+230892689
3947+230251032+229375195+228935017+229108652+229425633+229606397+230018303
3937+230888995+231841177+232660453+233719039+235051617+235747942+234974356
3927+233080984+231295084+230638679+231159782+232177470+233143650+233972193
3917+234611561+234674716+233864828+232599924+231720698+231610432+232018506
3907+232842148+234474305+237015502+239633930+241324738+241728583+240739900
3897+238480192+235946994+234682364+235510862+237528498+238693762+238359148
3887+237980309+238784747+240208600+241208244+241838818+242062311+241024228
3878+238876251+237218386+237129508+238319823+240261375+242540944+243989223
3868+243906314+243339551+243308164+243295402+242332595+240577349+238928857
3858+238381711+240207516+245410542+251759321+253624253+250495608+246257801
3848+243164176+241696586+241701700+242739981+244231005+245958787+248083469
3838+250167436+251202283+251174819+250921359+250546779+249411833+247599829
3828+246066641+245436784+245980007+248364484+252526220+255712098+255478407
3818+253474784+252022277+251032663+249700894+248492611+248317556+249632579
3808+251988203+253792636+254226127+254590434+255908097+256862447+256305301
3798+255466515+255281446+254996813+253996772+252893427+252432121+252600565
3788+252991404+253544000+254629484+256485714+258869977+261196596+262801442
3778+263403470+263383410+263458916+264391939+266752876+270234698+273503073
3768+275679719+277062782+277948633+278583238+280110014+283687218+288585322
3758+292629144+295068823+297317952+301262791+307718905+314864672+319396516
3748+321414367+323923078+328172532+331639150+332214156+332062535+334305314
3738+340206420+348728778+357224939+363230403+365979186+366653482+367475583
3728+370231236+375064642+380309924+384144603+386460689+388591110+391745448
3718+395892865+400143327+404372020+409937948+417839531+426339021+432573473
3708+435929841+438032600+441025119+445992133+451910765+456654255+459427769
3698+460836326+461672929+462877136+465520005+470261969+476599894+481831375
3688+482587344+479587894+476601268+475593167+476025529+477015158+479184446
3678+484197472+491840268+497971645+499229588+497432880+495482260+493787193
3668+491595585+489784313+490057482+492606984+495748865+498174987+500863745
3658+505378002+510945273+515155494+517637306+520274282+524639300+530185045
3648+534248774+534875471+532900060+530506362+529123636+528999982+529963506
3638+531961816+534993141+538700136+542194813+544831971+547385351+551113840
3628+554571573+555169204+553706544+553446535+557045020+563742366+568892602
3618+569621703+569235414+571115444+573353795+572594895+570407654+571492329
3608+576932801+582804443+585521351+585482637+584797991+584389841+584046235
3598+583849427+584423670+585859705+587386359+588737944+590747978+594061906
3588+597679076+599432154+598945171+597812561+597126511+597095796+597650376
3578+598635212+599717810+600421936+600707775+601362134+603077903+605359793
3568+606809506+606671441+605785162+605115293+605351732+607472658+611282668
3558+615130537+618695070+622933991+625884162+623316739+616280122+611216536
3548+611148938+613348575+614647645+615307194+616734131+618760103+620770259
3538+623092513+625964156+628124224+628061511+626643551+626298297+627672413
3528+629322538+630508640+631530541+631573896+629545665+626661320+625316087
3518+625978384+627110627+627459912+627489772+628259968+629186061+628257160
3508+624910685+621027521+618559875+618129742+619815162+623152660+626640986
3498+628857782+630726210+634832867+641738196+648558769+651980902+651735975
3488+649892401+648276410+647584925+647058556+644927554+640932155+637227847
3478+635552991+635373342+636055790+638605689+643137716+647478613+649465443
3468+648388584+644811899+640938811+639619713+641372425+643919270+645402691
3458+646155362+646789143+647235640+647466767+647447837+646340813+643172217
3448+638752852+635445519+634560156+635075595+635166275+634333549+633466749
3438+633244600+633741475+635093731+637328297+639587166+640377452+639424492
3428+638417979+638632679+639543505+640436135+641679880+643801356+645944021
3418+646078972+643227235+638752669+635118157+633699952+634189561+635461701
3408+636585884+637728325+639409531+640884220+640838544+639093588+636571534
3398+634846301+635780881+639777074+644033887+644793580+641827044+638230086
3388+636437133+636696287+638166335+639826169+640869198+640956214+639982065
3378+637727104+634639783+632837121+634686986+639744893+644562821+646694433
3368+647140747+647906303+649573404+651484576+652380075+651119110+648118011
3358+645614155+645747518+648700986+652678677+655599843+656901233+657528540
3348+658683622+660621418+661804039+660123871+656019839+652879943+653148684
3338+655491821+656991974+656527340+654691887+652172398+649713606+648070504
3328+647003354+645836732+645255955+646904431+650923950+655592576+659618324
3318+662915459+664942347+664311193+660802655+656369063+653372116+652531391
3308+653019779+654385408+656922361+659811285+661022240+659646108+656992340
3298+655086602+654638578+654629907+653847864+652362306+651363181+651943897
3288+654355548+657771757+660432609+661163847+660630638+660136205+660400428
3278+662080657+665411744+668743564+669745925+668740510+668575516+670926653
3268+674325032+675985659+674779468+671868805+668867584+666535072+664988512
3258+664337511+664888794+666856451+669954274+673129648+675095228+674956430
3248+672171192+667076585+661505132+657389559+654911899+653177751+652623292
3238+655087885+660675459+665962905+667267348+664930562+661753295+658947295
3228+656585472+656256034+659865449+665909352+669505028+667497803+662218112
3218+658462083+658437840+660297475+660666116+658379769+655365725+654113308
3208+654867628+655526139+654662210+653570818+654021773+655288784+655549954
3198+655150719+655574868+656280948+655190289+651634426+647326198+644766224
3188+645268595+647656431+648933334+647666689+645936876+646280970+648170526
3178+648651708+646319379+643763985+644435808+647999242+650444722+649121593
3168+645684744+642947380+641181112+638759081+635634511+633944756+635046590
3158+637378674+637750797+635005555+630995134+627568849+624778238+622179244
3148+620131044+619306990+619661709+620315457+620401862+619940831+619563885
3138+619516621+619424049+618970040+618148550+616856991+615163145+613841421
3128+613651940+614040244+613583487+611951865+610452018+610310839+611245541
3118+612127790+612214561+611388796+610260889+609953921+610713798+611147778
3108+609916489+607531096+605425680+604249776+603781479+603492098+602902711
3098+602178190+602025286+602609971+603340293+603736475+603579724+602722267
3088+601567797+600991294+601314260+602013806+602402171+601934973+600317578
3078+598144504+596775761+596765990+596860334+595431748+592904626+591574903
3068+592821946+595551922+597715592+598443899+597964793+596532666+594652575
3058+593356376+593237973+593900453+594520494+594459309+593584632+592309377
3048+591021727+589648953+588202720+587268201+587449560+588663202+590102596
3038+590668473+589803017+587983440+586024089+584184056+582268731+580381008
3028+579157413+579011532+579284914+578872062+577768213+576908009+576481112
3018+575787429+574731209+573957288+573516286+572781262+571577574+570282901
3008+569077564+567952404+567124685+566786515+566773325+566896490+566933068
2998+566179847+564123526+561456019+559413010+558557080+558855437+560065170
2988+561503709+562342481+562385347+561806341+560515271+558684764+556993482
2978+555715602+554548735+553434689+552743386+552727205+553383151+554544583
2968+555651546+555734287+554121900+551229556+548499336+547399456+548161959
2958+549509391+549944836+549135803+547855724+547109648+547401166+548169103
2948+548027130+546316308+544075758+542791955+542778215+543251398+543399905
2938+542962384+542195118+541418204+540417187+538716074+536604429+535013170
2928+534178857+533556495+532999472+532777017+532567629+531676404+530211303
2918+528957420+528209390+527721063+527607668+528198887+528950520+528732278
2908+527556558+526776469+526995199+527082642+526143116+525102773+525125916
2898+525614548+524981317+522843294+520526964+519520023+519846042+520032042
2888+518776206+516427146+514446849+513867721+514569526+515533539+515697862
2878+514927238+513992474+513444794+512965016+511998133+510550648+509136199
2868+508185193+507661785+507302303+507118532+507345170+507918131+508403984
2858+508366033+507519659+505913103+504270031+503550976+503819717+504143111
2848+503777644+502823859+501746879+500927037+500584378+500586607+500442497
2838+499830882+498885005+497868569+496931669+496151152+495445347+494596134
2828+493755806+493422154+493519092+493222018+492198223+491194794+490872225
2818+490892986+490607422+490040323+489753018+489948941+490080320+489435762
2808+487912344+486056251+484533322+483615260+483036712+482407511+481718865
2798+481224554+480982773+480803886+480366701+479309779+477723955+476379851
2788+475832262+475702898+475392389+474895270+474421568+473810473+472770344
2778+471411951+470255191+469709434+469677436+469792999+469876168+469935247
2768+469911585+469583612+468695715+467311767+465982898+465199725+464786294
2758+464180541+463151862+462000323+461205578+460944745+460876170+460528412
2748+459805082+458872883+457825274+456757453+455952786+455660168+455701936
2738+455512150+454662448+453275783+451864143+450896038+450524588+450503948
2728+450407468+450076655+449682519+449326945+448900171+448300372+447535061
2718+446704655+445969479+445356430+444708605+444033301+443597123+443485773
2708+443452097+443264234+442823781+442034105+440952637+439912172+439160966
2698+438568892+437910198+437217461+436682909+436321747+435889813+435183398
2688+434323254+433619739+433221940+433072486+433065494+433022200+432678137
2678+431989796+431312538+430966673+430779788+430308529+429400572+428365847
2668+427610398+427215712+427000677+426894181+426916409+426832141+426263088
2658+425220394+424188265+423612617+423522121+423656369+423804846+423969626
2648+424219804+424413682+424157458+423172836+421660410+420096630+418769623
2638+417782345+417293225+417322444+417479683+417336122+416978045+416837201
2628+417095226+417504994+417685773+417435625+416817081+416079187+415497829
2618+415183382+415028463+414889330+414754623+414673256+414629992+414599796
2608+414582362+414479256+414092082+413345761+412425653+411665776+411353282
2598+411549999+411985719+412221547+412052950+411667089+411339971+411109791
2588+410796168+410260883+409622584+409170529+408992284+408805368+408400027
2578+408094800+408351390+409027793+409430020+409126441+408403935+407861659
2568+407757851+407824105+407646287+407155732+406695464+406618677+406889433
2558+407111705+406961091+406561918+406357110+406582893+406988112+407159610
2548+407022460+406839086+406772282+406687770+406441653+406153157+406045441
2538+406143601+406291925+406388222+406419212+406327983+406064340+405733192
2528+405518095+405491166+405604317+405765311+405849579+405800545+405750870
2518+405857182+406051425+406143418+406079209+405922703+405707362+405472114
2508+405355696+405518461+405970913+406543538+407041360+407337213+407276913
2498+406725263+405870280+405234148+405182977+405602729+406155142+406625302
2488+406929430+407010584+406836552+406443088+406007887+405871074+406290734
2478+407065144+407585346+407440747+406833071+406263072+406024740+406151783
2468+406595167+407232733+407817052+408064665+407827586+407193042+406442111
2458+405904781+405798957+406109069+406618493+407152221+407707321+408205631
2448+408353344+408025890+407549379+407328298+407428443+407647509+407767377
2438+407725823+407707779+407962842+408412210+408627123+408328949+407736936
2428+407283508+407106667+406999470+406820462+406697968+406757291+406921156
2418+407083860+407230413+407338374+407428717+407675293+408148811+408551526
2408+408587859+408494371+408750197+409313907+409625210+409416738+409087910
2398+409140700+409588572+410098606+410488284+410849446+411246207+411514918
2388+411427597+410872619+409784250+408041186+405489364+401936097+397181432
2378+391285974+384766568+378302424+372263680+366633941+361301644+356275398
2368+351646463+347579925+344432304+342581676+341983099+342244055+343355354
2358+345948119+350562338+357126382+365311973+374428420+382571632+387029894
2348+386119862+380713769+374222940+369996201+368395691+367891213+367710189
2338+367891976+368372120+368953996+369473404+369911017+370571971+371784391
2328+373417204+375083664+376679778+378456457+380677039+383315175+386099467
2318+388822908+391404774+393684282+395497630+396964534+398424231+400142076
2308+402227707+404565134+406702883+408190090+409126716+410058579+411333925
2298+412845985+414321651+415586463+416574261+417291637+417830982+418314546
2288+418767639+419100314+419257492+419307656+419332387+419317121+419188124
2278+418883446+418391395+417837913+417509604+417563188+417686872+417363784
2268+416575696+415895446+415781470+416143853+416671566+417237810+417866369
2258+418529979+419136861+419683900+420298537+421024401+421649297+421911413
2248+421821557+421632779+421542466+421514834+421378540+421073832+420721434
2238+420392514+419979540+419399374+418720406+418009441+417286325+416666650
2228+416305031+416170324+416088957+416036442+416200764+416706280+417433122
2218+418152025+418695981+418984598+419065905+419169988+419540492+420179829
2208+420874429+421464823+422015557+422710431+423593810+424461006+425058057
2198+425340934+425491151+425738245+426182667+426725157+427199286+427615985
2188+428180244+429013856+429933658+430548906+430611863+430313322+430157152
2178+430465890+431109074+431781263+432368635+432908927+433371454+433697870
2168+433971283+434362427+434950867+435671663+436353836+436797373+436980259
2158+437182685+437739067+438688882+439772000+440716900+441461511+442142433
2148+442915530+443790390+444680943+445582793+446590253+447733671+448929756
2138+450157503+451583402+453360478+455335248+457189234+458902804+460775293
2128+462918385+465074026+467046598+469001400+471185099+473543624+475773213
2118+477679134+479299857+480652296+481628094+482294482+483033078+484178786
2108+485703181+487416415+489334549+491668160+494497211+497631490+500807810
2098+503763752+506008546+506938852+506490491+505274224+503791994+501919872
2088+499303353+495866260+491829001+487509965+483119789+478700486+474425842
2078+470780491+468079887+466024086+464142468+462444531+461207716+460385340
2068+459656850+458873189+458143080+457612467+457334383+457255977+457268770
2058+457316888+457420208+457580256+457776362+458048340+458473557+459084255
2048+459844682+460666080+461510958+462553590+464095510+466237625+468819949
2038+471759434+475221686+479393254+484291754+489818540+495786999+501834108
2028+507444123+512208009+516065343+519166952+521543858+523151299+524177902
2018+524911583+525274790+524888378+523618803+521722347+519533457+517283442
2008+515084477+512872321+510491447+507977088+505604671+503546304+501642979
1998+499739287+498178407+497596683+498109893+499012903+499488651+499416321
1988+499249709+499422183+500137850+501402479+502990747+504577854+506065641
1978+507593882+509170211+510618429+512011384+513754875+516013561+518362377
1968+520228973+521526149+522699000+524199824+526074602+528160356+530496348
1958+533172771+535887541+538185369+540070223+541907325+543926824+546205661
1948+548804960+551643324+554509044+557207938+559529886+561400145+563189495
1938+565393712+567996492+570496685+572522107+574263828+576184648+578318336
1928+580247400+581935934+583929848+586444513+588988061+591161013+592964957
1918+594231052+594748201+594898173+595366593+596461771+598005889+599495233
1908+600406060+600711500+600963632+601686810+602813558+603788867+604267546
1898+604531158+604930942+605315582+605554036+606081871+607215763+608461585
1888+609153803+609293029+609199662+608937332+608406078+607646323+606950686
1878+606660083+606743130+606820498+606780928+606981950+607619883+608152114
1868+607647239+605854103+603493991+601398345+599853860+598620434+597215541
1858+595274326+592888628+590560818+588729273+587392527+586173512+584842994
1848+583847778+583922520+584864794+585195699+583968745+581990525+580294358
1838+579005120+577765527+576460900+575489987+575322978+575615595+575136245
1828+573322103+571072699+569250680+567696791+566008807+564345004+563120066
1818+562462288+562170464+562036796+562096088+562473035+563019433+563354856
1808+563399738+563543421+564136349+565114407+566205799+567263056+568238243
1798+569029568+569710245+570769212+572591293+574539836+575372440+575185340
1788+575375920+576747778+578917982+581226130+583599798+586192442+588717060
1778+590749566+592478157+594722554+598151343+602178617+604884534+605176052
1768+603981218+602986307+603377664+605281081+607726012+609476769+610542148
1758+611904724+613745795+615467914+617288223+620211282+624328076+628143825
1748+630238067+630736713+630707036+631325306+633337844+636514073+639761503
1738+642434933+645214370+648835693+652166841+653102032+652070666+651038933
1728+651135658+652733146+655621704+658831946+661558379+664463364+668869843
1718+674562569+679012710+680342433+679809714+679614493+680868070+683524280
1708+687161235+691538405+696265042+700999434+706203528+711825481+715524965
1698+715987767+715632376+716324900+717470333+718476419+719801624+721904353
1688+725221883+730690567+738401143+744916336+746701351+746104392+746424000
1678+748417547+751771716+755821583+759332442+761776517+764158063+767090831
1668+769401360+770445916+771643864+774159017+777145277+779057549+780073771
1658+781663076+785026649+790765722+798005498+802886260+803663784+803253863
1648+802930958+802110079+801311121+801941299+803586905+804647765+804865212
1638+805670765+807451200+807712736+805012132+801851596+800162879+799529587
1628+799020010+798598671+798576688+798179957+796064038+792848362+791039899
1618+791977471+793582286+792024795+787437322+783166709+781102328+780744861
1608+780518132+779506428+777962676+776461974+775136586+773797520+772600977
1598+772220672+772995570+774055636+773874522+772005483+769790031+769033329
1588+770231766+772118024+772839675+771552391+769127734+767594668+768602891
1578+772034855+775315503+775007192+771692471+768961701+768370299+768883418
1568+768873281+767998849+766739409+765793777+766553531+770567311+776882032
1558+779573537+775991295+770850097+767233110+765601365+765735033+767206791
1548+769525503+772405817+775820927+779771689+784255659+788755139+791051073
1538+790033691+788376666+788523463+790478967+792425434+793169557+793865134
1528+796218957+800462824+805517434+810998513+817362146+823368312+826801375
1518+828431532+830724292+834322960+838243189+841954398+845774177+850178581
1508+855623755+861715105+866220874+868171372+869455419+872502377+879037477
1498+888172975+894920943+895091555+891419000+889130515+890359545+894119909
1488+898379104+902076756+905495286+909645909+915328926+921757714+926923460
1478+930237449+933275063+937391674+941802611+944443617+944960460+945342780
1468+946974586+949472153+951678935+952798660+952942587+952901064+954015904
1458+957654080+962554871+964340802+961979956+958519475+956501930+956782884
1448+958908634+961475875+962851946+962770915+962963509+965628635+971663074
1438+979886341+986889067+989051211+986239655+981015104+976725561+976864054
1428+982055508+988972561+994104478+996825111+998357688+999385207+999534936
1418+998518591+997130246+996252333+996237800+997595674+1000184776+1002103764
1408+1001938648+1001359031+1002612974+1004654395+1004872393+1003921387
1400+1005451643+1011103701+1017683438+1020674767+1019213268+1015679999
1391+1012175613+1009643484+1008282740+1006818432+1003486552+999272178+997150581
1381+998724803+1003430190+1009577047+1015427256+1019973022+1022469735
1372+1021616675+1017920793+1015460963+1018077055+1024445573+1029480765
1364+1030694468+1030447526+1031907437+1035640507+1040283303+1044020891
1355+1046168258+1047672623+1049194820+1049844782+1048861900+1047619986
1347+1048468406+1052220038+1057528307+1062326572+1065326388+1066464494
1338+1066242344+1064297342+1060611536+1057014761+1055564620+1056529671
1330+1058504472+1060121073+1061076109+1061468016+1061687601+1063187692
1321+1066940668+1071122678+1072311467+1069587170+1065783145+1064116227
1312+1065338601+1067776875+1069155205+1068993875+1068621753+1068358079
1304+1067438704+1066854813+1068374689+1071566001+1073741823+1072026787
1295+1065453156+1055961901+1046849240+1040367693+1037148658+1036188004
1287+1034745435+1030783376+1025787876+1021979515+1018286137+1012483741
1278+1005243233+998751305+993373973+988306295+983830752+980899938+979424272
1268+978093633+975172223+969255820+960388208+950421511+941639144+934975260
1258+929622354+924280989+918458563+912546863+907123794+902424269+898050947
1248+892965194+886123677+877425883+867999111+859117821+850857915+842467089
1238+834112595+827255384+822919128+820564450+819146184+818319808+817849740
1228+816781736+814308411+811133342+809041055+809092959+810653259+812040016
1218+812148648+811533798+811634431+813217385+816103135+819741738+823365503
1208+826255771+828569292+831343905+835307368+840255666+845583475+850739879
1198+855241923+858978351+862429672+865876902+868671850+870219632+871315176
1188+873128952+875176845+875953454+875730510+876965218+881382751+887998150
1178+894574223+900479268+907410061+917225992+929582052+942084054+952290671
1168+958911566+961877674+961995589+960942667+960907738+962891210+965650802
1158+967557089+968962226+971337910+975032570+979012275+981644549+981811803
1148+980176028+978883492+979261293+979791265+977754546+973492848+971041995
1138+973573330+979888967+985819903+988270878+987378859+985286145+984089907
1128+984590507+986119603+987396995+987614199+987002768+986348226+986374361
1118+987662684+989952695+991810314+992913491+995012862+998399334+1000289134
1108+999401511+998487021+999859978+1002951756+1007099509+1011626834+1013574339
1098+1010936081+1007283494+1007419238+1010464425+1011879760+1010192325
1090+1007800703+1004868302+998872272+991239552+987600399+990005149+993436563
1080+992174254+986063791+978465816+971697086+965880035+960917692+957468325
1070+955407791+953035709+949599227+947175791+948349741+952948205+958115050
1060+960999456+961029927+960207338+959650803+957241839+951232132+944346953
1050+940986800+941845783+944051527+945509790+947138359+950911364+956608914
1040+961521001+963122580+960915310+956510113+952721720+951405308+951541908
1030+950238564+947060014+944636640+943690457+942255460+940364927+940542684
1020+943582802+947781360+952062048+956509563+959826666+959298954+954064938
1010+946146012+937596665+928909679+920310443+912708559+906743062+902389768
1000+899553115+897567750+894904944+890617722+885146230+879281243+873640788
990+868825364+864778610+860947656+857679465+855675048+853924474+850535682
980+845672751+841203131+837760053+834294504+830156582+826056337+823046629
970+821531027+821057722+820488670+818642408+815290376+811392679+808149219
960+806147489+805474873+806220155+808363125+811244844+814051027+817071727
950+821417815+827266498+833457015+838907502+843381029+847103779+850834467
940+855850423+862829212+870858664+878128971+883955121+889512408+896042317
930+903213884+909779333+914981168+918467417+919908521+919295686+917060509
920+914236984+911946973+910745850+910837567+911732029+911613626+909049377
910+905638358+904328725+905210485+905759936+904819005+903091757+900925338
900+899089030+900190559+906514561+916764534+925872065+928830724+925617246
890+920991242+919137103+920450950+922817413+924441647+925316996+926526546
880+928991566+932826306+936763695+938403194+936449094+932488074+929800538
870+930855963+935402645+940227106+942233965+942708553+945621292+951308766
860+955563869+955215989+951796666+948571524+946769900+946437470+947466637
850+949269360+951193478+952414753+951895345+950224824+949891600+951970331
840+954443045+955287861+955077314+954916899+954664096+954760149+957478583
830+964449068+973842927+981107616+983174623+981932037+981304241+982625904
820+985273505+988154369+989944024+991638054+995510226+1000813060+1003945629
810+1002724904+999104192+998482136+1003143862+1006991609+1003594940+997206271
800+996481567+1001005411+1002183147+996852468+990511550+986870931+983890717
790+979032488+972287328+964070045+954137482+943259958+933604685+926783990
780+922989247+921880574+922561495+923287116+922541528+920707357+919731436
770+920773000+923317892+926485389+929781181+932006587+931564302+929808049
760+930891869+936804302+945480479+954394377+962885836+970415725+975587273
750+977585949+976860756+973494192+967949667+963277988+963470399+969274322
740+976081522+977193554+971275197+964513612+963292338+967169578+970307276
730+968974439+964974887+961417498+959629003+959927116+962008839+965536857
720+970608320+974725480+973033832+965133409+956898905+954416055+958315889
710+964514833+968105868+966692243+961681599+955607896+950455951+948716367
700+952431240+960041305+965418393+963157204+955153949+948451717+947472072
690+950233984+951283486+948650663+945526704+944010492+942877577+941351656
680+940565888+940440890+938285830+933570734+929483251+926067347+917845484
670+902071321+890483382+901119033+928155237+947701061+947069052+932594753
660+917726654+910129045+910250684+914534487+917181660+913909988+907096621
650+903961182+909016281+918410750+922109196+914987885+903043211+894922653
640+894044984+899876325+910904432+923924377+931778270+928038422+915968751
630+903735124+892672394+880011321+869887201+868795015+876209555+887028397
620+897554316+904599176+903827392+894701541+883824933+878137642+878439113
610+883794462+894650919+910126358+920571001+916898385+904595817+893194672
600+886126791
##END=
