##TITLE=<SNM>
##JCAMP-DX=4.24
##DATA TYPE=INFRARED SPECTRUM
##DATE=29/4/2025
##SAMPLING PROCEDURE=Instrument type and / or accessory
##ORIGIN=Admin
##XUNITS=1/CM
##YUNITS=ABSORBANCE
##RESOLUTION=4
##FIRSTX=4497.3318
##LASTX=599.83466
##DELTAX=-1.4281778
##MAXY=2.2254827
##MINY=0.66858011
##XFACTOR=1
##YFACTOR=2.0726423e-09
##NPOINTS=2730
##FIRSTY=0.68990111
##XYDATA=(X++(Y..Y))
4497+332860677+332569504+333275278+333489035+331990523+329591260+328217586
4487+328838294+330484822+331151888+330140678+329155033+330214096+333039695
4477+335264485+335262874+333992814+333441901+334267998+335464869+335643484
4467+334463407+333056978+332905683+334186815+335540042+335510163+333895757
4457+331774696+330332377+329649005+328979006+328284936+328616284+330562267
4447+333354247+335927180+337615522+337549206+335339111+332703976+332123212
4437+333720679+335295773+335354583+334414950+333441614+332675362+332065064
4427+331712551+331841098+332667137+333936622+334835533+334801139+334214882
4417+333855841+333891271+334065485+334430307+335126620+335564285+334815316
4407+333269211+332557139+333221818+333891472+333353241+332117892+331370793
4397+331485393+331852170+331750942+331336600+331329324+331694002+331745881
4387+331507996+331370333+330844899+329346790+327601967+326873877+327296387
4377+328116301+328853593+329147210+328434391+326947526+326158757+327244997
4367+329710058+332040303+333270792+333507987+333454727+333677111+334099707
4357+334227651+333789957+333148802+333057668+333935673+335345725+336278111
4347+336038731+334620425+332437736+330255565+329104649+329623440+331388881
4337+333042311+333286321+331935481+330002985+328805942+329011876+330324469
4327+331897866+333118577+333837494+333907145+333141037+331744098+330084111
4317+328285742+326877414+327147393+329532191+332298692+333309098+332615833
4307+331628520+330707149+329545190+328814540+329437751+330885792+331873249
4297+331969041+331337606+330063866+328651483+328069972+328607081+329557728
4287+330228676+330443469+330102804+328964311+326966448+324527729+322671758
4277+322573809+324298270+326356179+327352234+327624743+328414893+330075282
4267+331893322+333085995+333303892+332432934+330529627+328280795+327121798
4257+327961957+329769443+330546048+329911334+329382047+330056216+331532613
4247+332869218+333318559+332481764+330652797+328740633+327642947+327869789
4237+329235583+330588954+330662833+329599945+328783999+329012509+329746552
4227+330210473+330359266+330551857+330911329+331180186+330945982+330114566
4217+329126649+328489462+328301990+328376501+328546230+328795646+329225633
4207+329764123+330039738+329976873+330108354+330745512+331450998+331748325
4197+331730150+331644883+331464313+331110995+330748359+330629158+330679858
4187+330498885+329949438+329349780+328852788+328343200+328086939+328431630
4177+328883904+328731373+328450466+329233311+331197153+333108454+333884944
4167+333470285+332257310+330734814+329776834+330144042+331500634+332682321
4157+332967944+332508768+331738461+331033464+330651991+330469868+329994703
4147+328975814+327904643+327638231+328558021+330245068+331792008+332266368
4137+331376487+330032462+329543004+329985702+330164345+329423027+328493488
4127+328129903+328216694+328626119+329697577+331386638+332834047+333259203
4117+332755222+332048097+331800319+332136182+332647150+332690402+331816021
4107+330211451+328791189+328632676+330064930+332260789+333890983+334399076
4097+334371785+334307971+333655658+331872185+329698037+328328677+328072359
4087+328560005+329434530+330314145+330815911+330923293+330835581+330495146
4077+329622174+328154002+326527949+325561831+325831407+327156423+328871423
4067+330243947+330693518+330312966+330049285+330623435+331473228+331466988
4057+330522207+329651996+329394643+329115376+328279990+327612406+328031551
4047+329186091+330077784+330494025+330893356+331457498+331972435+332217164
4037+332131609+331886075+331753645+331735125+331553204+331073236+330453505
4027+329979519+330006091+330767857+331863673+332288339+331535374+330364586
4017+329936612+330497821+331356586+331802447+331740101+331653252+331961996
4007+332293228+331797271+330447322+329319700+329308542+330193132+331102137
3997+331390923+330984978+330370481+330217403+330631401+331081518+331300681
3987+331576871+331897377+331665848+330617079+329430043+329138842+330132194
3977+331724427+332710619+332549633+331873163+331745421+332653822+334058526
3967+334706785+333869070+332397935+331798565+332391321+333298457+333970959
3957+334619562+335254793+335424119+335110918+335053632+335696830+336348108
3947+336182836+335684981+335809819+336229280+335797482+334505825+333372854
3937+332823608+332751685+333473103+335187845+336912652+337323400+336569169
3927+336010405+336457502+337395812+337880899+337912561+338290381+339167207
3917+339412079+337964756+335488767+333513824+332645454+332576665+333378375
3907+336043074+341377733+348298011+353653462+354902932+352324938+347909867
3897+343588432+340712852+340047569+341382420+343109873+343606865+343667544
3887+345114004+347534060+348476568+347432516+346345529+345456280+343445419
3878+341287721+341501564+344538187+348719629+352613350+354949404+354097195
3868+351167379+349595506+350278705+350617472+348703238+345908324+344244167
3858+344686117+348091818+354806334+360927663+359749600+352704225+345598027
3848+341363411+340645070+342861003+346664597+350859613+354948541+358175886
3838+358944295+356828526+353571158+350694370+348286767+346073969+344378840
3828+343564649+343514409+344698943+348589903+354692079+358212207+356257712
3818+352347657+349611812+347150402+343755687+340669486+339757317+341869750
3808+345938893+349180473+350721748+352832140+356400954+358589337+357321837
3798+354115658+350600217+347422566+345305043+344567894+344832063+345940590
3788+348115313+350996644+353556462+355541959+358016856+361541815+364795444
3778+366338933+366896116+368225934+371311129+376302392+382480431+388146582
3768+392013989+394023124+394434620+394079605+394777010+397514351+400816638
3758+402535377+403259700+405995315+413184364+424032700+433146279+436420183
3748+437626141+441640846+447733762+450615783+449162249+447846292+449768866
3738+454821814+460372387+463436473+463775614+463645140+464951118+467930513
3728+471613640+474707175+476617758+477389387+476471898+473465011+469954516
3718+468243024+469145157+472504529+478005954+483544967+484891292+480917653
3708+475756116+473652713+475834194+480410395+483260092+481719306+477667964
3698+474399265+473377846+474814557+478857818+485466218+493016753+497589129
3688+496495009+492016499+487944623+485917256+485788018+487124336+490594828
3678+497639455+506722493+511255241+508713741+504406627+501536023+498270286
3668+493580233+489868923+488575225+488192228+486662658+484294223+483270272
3658+484638338+486892203+488208332+489342540+492497502+498318427+503598130
3648+503089577+496585136+489087689+484615735+483601850+484088892+484367612
3638+484294913+484256607+484286976+484787246+487089079+492232642+498343158
3628+500566539+498019633+494891474+494317641+496619703+499803940+501146297
3618+500480094+500448172+502193944+503843089+503909462+503814043+505007665
3608+505863440+504338011+501817447+501163724+503024297+505407571+506395287
3598+506692297+508059731+510090780+510743755+510405678+512292765+517782170
3588+523132790+522650521+516460576+509956423+507190382+508596754+512076161
3578+514995826+515608770+513396547+509530693+507061720+509100764+515993780
3568+523644506+526317889+523731642+520677506+519910190+520269318+519972537
3558+519177269+518687006+518300386+517715107+517474231+518173276+519737183
3548+521528795+522176018+520080379+515373934+510456119+507766401+507838066
3538+509572737+511488984+512459330+511961705+510272069+508595316+508357259
3528+509662576+511023913+511177652+510282652+509122504+508347194+508296868
3518+508704596+508837630+508355994+507747651+507857161+509251684+511618337
3508+513678201+514415839+513991259+512821909+510875063+508507893+506629088
3498+505490739+504577621+503744220+503392339+503689465+504305975+504805843
3488+505030269+505236405+505504025+505107397+503371116+500827488+498677899
3478+497589704+497420148+497414799+496754750+495622785+495207982+496200012
3468+498121608+500172673+501648926+501618615+499608617+496738300+494895443
3458+494686373+494963656+494455966+493197352+492177945+492147232+492983164
3448+493986006+494371763+493618481+491832506+489836197+488489584+487790424
3438+486980547+485689781+484451355+483940444+484119030+484319529+484038911
3428+483295982+482495019+482176009+482493869+482952843+483081678+483105432
3418+483448398+484004516+484362839+484203865+483194294+481233644+479059525
3408+477743568+477418231+477375698+477468385+478379720+480284982+482167151
3398+482738655+481434604+478574525+475398139+473889792+475492350+479591458
3388+483611512+485188130+484462226+483401868+482779951+481322132+478519684
3378+476432845+477136146+479771626+481693884+482149437+483109343+486033265
3368+489525785+491141974+490652228+490045841+490840362+492909659+495285686
3358+496943228+497307992+496739278+496188106+496301067+497242482+498767451
3348+499877445+499406277+497596836+496135939+496162742+496938857+496797081
3338+495144543+493006630+491584154+491049719+490908575+490884879+491137603
3328+491912395+493291447+494825676+495222649+493508166+490748394+489264434
3318+489804966+490699909+490227763+488695260+487588257+487689772+488511440
3308+489030633+488901050+488836863+489490068+490506541+491187296+491355874
3298+491072552+490323584+489476609+489390623+490538635+492258927+493342464
3288+493409009+493115910+493090948+493550152+494684245+496524630+498606350
3278+500431895+502006328+503315613+503885938+503574779+502894196+501855292
3268+499616382+496092343+492891829+491675489+492338644+493447487+493899675
3258+493681978+493339185+493203103+493159679+493160599+493597488+494590150
3248+495336530+494808709+492998233+491128113+490493140+491121326+491758714
3238+491375890+490342162+489601015+489252126+488721889+487970563+487597172
3228+487699722+487579284+486879492+486271552+486414018+486830373+486480736
3218+485345435+484805766+485895860+487586819+487777713+485988460+483822710
3208+482646630+482136007+481350286+480225654+479356536+478812208+478038767
3198+476934410+476143656+476033111+476285576+476646055+477166687+477714724
3188+478028817+478076095+477780867+476891043+475600450+474680172+474452697
3178+474134291+472667700+470012550+467262211+465510659+464885924+464699631
3168+464350138+463929929+463929066+464534849+465339262+465537864+464411507
3158+462063835+459715673+458632568+458744666+458934151+458525129+457833993
3148+457511963+457936025+458935877+459742591+459511349+458094107+456120775
3138+454396026+453388065+453163035+453567226+454284704+454750868+454441578
3128+453423638+452295958+451566229+451306517+451326274+451420427+451395522
3118+451061213+450414277+449728950+449214530+448684639+447828404+446673002
3108+445537040+444712438+444294099+444095555+443757650+443183501+442816407
3098+443012651+443207744+442444828+440799507+439417666+439016466+439223033
3088+439471731+439612443+439613392+439545265+439859012+440953189+442396889
3078+443087996+442434101+441121537+440305707+440200914+440043839+439417206
3068+438830949+438775447+438871642+438391156+437288870+436224399+435677742
3058+435453144+435082456+434431494+433823698+433740990+434376567+435377511
3048+436148019+436414661+436177582+435237230+433364263+430998445+429293682
3038+429097582+430021973+430875821+430971412+430598021+430293821+430221150
3028+430176144+429834559+429108280+428272665+427576438+427000017+426550388
3018+426381580+426525053+426821373+427051206+426999327+426586221+425960652
3008+425317858+424798549+424558393+424558393+424409082+423814515+422984277
2998+422309475+421860738+421405991+420753016+419926517+419083683+418468266
2988+418442125+419245963+420576673+421634500+421758303+420901866+419524195
2978+418260088+417541919+417254083+416987268+416750217+416914424+417394334
2968+417580886+417175344+416415045+415509433+414520768+413690415+413313803
2958+413367235+413559308+413647077+413597355+413570093+413703615+413819567
2948+413481749+412445864+411042569+410049418+410067277+410982695+412099044
2938+412737784+412567595+411555493+410026527+408650955+407918321+407691594
2928+407571674+407468520+407427626+407203114+406608144+406086420+406244415
2918+406913955+407349348+407298159+407134757+406943086+406299860+405125161
2908+404063797+403801325+404378264+405251178+405760709+405539935+404730518
2898+403851162+403302348+403041917+402797648+402492126+402350493+402551050
2888+402904426+403075046+403026187+402952222+402873195+402682445+402453705
2878+402289872+402049198+401566210+400938974+400324247+399730859+399262049
2868+399216324+399641393+400081646+400096169+399781587+399491651+399319651
2858+399150353+398924633+398636020+398409207+398661758+399625950+400603198
2848+400442413+399033137+397560909+397061818+397442887+398023996+398381571
2838+398409150+398067852+397456576+396853324+396406399+395947194+395258933
2828+394411930+393751190+393567773+393757661+393859090+393537980+392948186
2818+392513627+392504252+392829359+393044237+392678869+391762070+390802998
2808+390152755+389747097+389525547+389636265+390066309+390410684+390234973
2798+389611590+389125497+389181345+389431020+389204754+388422656+387656060
2788+387372163+387612865+388291866+389227616+389905121+389733984+388678572
2778+387333397+386334581+385871350+385750711+385754824+385751488+385535286
2768+384922141+384083104+383422335+383104504+383055041+383241161+383532737
2758+383547604+383065422+382355938+381825443+381594461+381547902+381565818
2748+381607517+381653385+381644643+381546665+381400087+381164503+380639443
2738+379760316+378854417+378409591+378626166+379214292+379629785+379588805
2728+379271319+378941582+378626137+378302928+378065475+377905639+377681616
2718+377462050+377498975+377690818+377518559+376751617+375826105+375310650
2708+375337682+375684127+376095968+376406581+376554770+376607713+376688379
2698+376798004+376715871+376187504+375255694+374276375+373594355+373317245
2688+373315232+373345629+373283109+373236666+373351064+373624810+373990983
2678+374344618+374455709+374104979+373287768+372157126+370948292+370042450
2668+369811093+370269119+371012537+371549301+371680983+371571272+371428864
2658+371191842+370653697+369849140+369120618+368768076+368771297+368893806
2648+368934987+368816217+368547504+368256820+368170719+368371132+368596421
2638+368476587+367998978+367562032+367493243+367680111+367779958+367652820
2628+367442313+367308215+367221079+367058540+366868997+366870608+367099347
2618+367310660+367376860+367450595+367591106+367617822+367434951+367146913
2608+366888294+366839952+367195111+367803252+368134369+367860365+367226543
2598+366728400+366627460+366774528+366792444+366542999+366388857+366759775
2588+367562492+368269301+368454358+368073230+367404209+366844237+366600601
2578+366566896+366593727+366717444+366981296+367249463+367384021+367433685
2568+367478001+367427157+367170839+366810130+366517922+366298068+366119022
2558+366101854+366298902+366478725+366399066+366113932+365818877+365622174
2548+365607766+365867392+366320931+366664127+366630681+366269282+365883467
2538+365696570+365655332+365584846+365440712+365380522+365628500+366180018
2528+366598645+366359265+365531558+364807753+364711932+365111234+365574522
2518+365868686+366023892+366179011+366413761+366599939+366514385+366205296
2508+366026480+366149966+366282769+366088050+365697605+365539351+365795238
2498+366292835+366781228+367061099+367012614+366711088+366368870+366104327
2488+365950387+365983717+366189738+366351702+366306121+366166358+366162245
2478+366360415+366590852+366636577+366501271+366400619+366471392+366646124
2468+366809296+366901235+366898618+366829024+366747869+366642041+366461154
2458+366254529+366131302+366072032+365940091+365740483+365699820+365945411
2448+366288090+366485454+366496181+366332204+365958439+365497307+365237682
2438+365306269+365560258+365849418+366124170+366268074+366110625+365704824
2428+365368012+365315759+365465616+365734617+366237907+366975229+367598094
2418+367750424+367495946+367247191+367351266+367811017+368344905+368664778
2408+368678381+368493756+368336911+368423961+368797841+369311053+369783687
2398+370117997+370351855+370743651+371686160+373422671+376020277+379666767
2388+384782580+391851306+401337586+413647163+428907551+446844973+466961922
2378+488639930+511046172+533276646+554702937+575140880+594882538+614260181
2368+632373687+646522528+654426381+656606683+654559530+648464543+638486619
2358+625884834+611648224+595110358+575061738+553172964+534568274+523854036
2348+522868391+531097034+545338532+559727443+569500841+574261063+576225394
2338+577674327+579776523+582390837+584779116+586403472+587165554+587190803
2328+586453970+584795508+582164111+578387061+573033795+566044038+558067543
2318+549906250+542108973+534975485+528434119+521925767+514690648+506346398
2308+497242942+488200625+479783187+471947289+464473997+457439924+451039932
2298+445206728+439729199+434609649+429999312+425866873+422025089+418426021
2288+415180932+412360884+409968609+407976757+406241626+404568583+402980376
2278+401697892+400797428+400131138+399560756+398997937+398299439+397409413
2268+396501846+395767256+395218097+394834152+394640899+394555460+394452996
2258+394392374+394431801+394308057+393710671+392794418+392043581+391701334
2248+391602896+391490309+391298610+391141621+391111483+391160141+391188352
2238+391170551+391145963+391148034+391150334+391058655+390822093+390555163
2228+390431188+390458795+390473634+390325934+389992775+389555053+389120120
2218+388732838+388348720+387921379+387484404+387097094+386766926+386505719
2208+386393017+386465199+386610857+386719188+386850870+387107102+387415961
2198+387605906+387646915+387702504+387942257+388368045+388846288+389236963
2188+389431998+389401543+389325680+389504957+390018657+390678217+391370159
2178+392145096+392936223+393525240+393826162+393948641+393986084+393920315
2168+393716969+393425911+393196999+393198063+393480206+393912177+394277487
2158+394478619+394624162+394853333+395119659+395244641+395139042+394909957
2148+394817357+395107035+395753568+396399525+396682732+396595740+396452670
2138+396566666+397002864+397567064+397989660+398154068+398160941+398202352
2128+398421918+398865910+399490386+400192594+400875879+401513037+402106685
2118+402573424+402789165+402823099+402980893+403488066+404240859+404966792
2108+405521760+405941452+406291348+406574411+406783308+406980730+407243720
2098+407507228+407596837+407505876+407494201+407787358+408296371+408748415
2088+409004935+409164167+409416545+409847193+410342431+410713436+410927509
2078+411098445+411221673+411143624+410898119+410828525+411233463+412073335
2068+413078622+413944577+414439038+414565544+414603389+414803687+415123992
2058+415378585+415511475+415605052+415752580+416045133+416578964+417345446
2048+418185145+418995627+419908572+421058712+422252534+423114147+423528633
2038+423720103+423979268+424523625+425455636+426653744+427846273+428929320
2028+430056195+431316592+432521257+433479150+434370614+435588305+437176024
2018+438673788+439688708+440414958+441340787+442681907+444364153+446265331
2008+448203837+449912626+451242847+452311372+453454495+455037756+457056151
1998+458988446+460495096+462036601+464128472+466282950+467508838+467720984
1988+467828078+468561431+469826832+471107733+472201968+473437058+475144064
1978+477131775+478914413+480298555+481497037+482855815+484718630+487322074
1968+490466740+493423963+495580339+497092539+498549352+500259406+502262445
1958+504679596+507541055+510490973+513055480+515105278+516928006+518955143
1948+521431651+524347117+527617742+530953360+533594535+534950465+535502730
1938+536333256+538066201+540666884+543792743+547095634+550373277+553426780
1928+556015328+558334415+560952526+563790691+566114092+567967072+570203279
1918+572752026+574428146+574913693+575414021+577039642+579589367+581952684
1908+583410992+584289370+585230038+586333418+587335455+588242878+589434142
1898+591159208+593076030+594565512+595687412+597214106+599300658+600916501
1888+601304214+601118438+601205057+601421776+601271545+600753444+600151946
1878+599684114+599656909+600437971+602159701+604806339+608331644+611909978
1868+613405729+611414596+607436241+604123687+602622529+602346627+602305446
1858+601951840+601127698+599973015+598942968+598576421+599082098+600220045
1848+601722237+603486356+604722424+603690249+600061647+595947440+593118592
1838+591564405+590506290+589686923+589818576+591746384+594747952+596262510
1828+594944770+592328327+589813285+587118621+584137011+581632437+579827424
1818+578155848+576499801+575588581+576000278+577318536+578326669+578019651
1808+576495947+574770997+573986139+574774908+576797904+578770402+579485034
1798+579040553+578770575+580027809+582896630+585384180+584962533+582066737
1788+579469447+578955948+580440138+582845441+585036153+586194920+586264687
1778+586386965+588209117+592620909+598844444+604005722+605418708+603961378
1768+601983301+600471560+600078556+601676225+604626776+606574312+606677552
1758+606474005+606951844+608118721+610761391+615955626+622632498+627185089
1748+627506889+625450706+623822496+623884211+625525016+627858769+629603505
1738+630724657+633256610+638524580+643713465+644430628+641627259+638504737
1728+636359289+635755720+636761438+638370438+640055070+643355028+650297048
1718+660001887+666841183+666195513+660699609+655196860+652197708+652378365
1708+655516129+660211071+664113908+666696301+670244555+676218701+681997122
1698+684095292+682431423+677633240+671453475+667460454+667437908+670454947
1688+675250829+682199405+690870056+695898301+693119089+687279989+683799662
1678+684445792+688516632+693177064+695986875+698092809+701006090+702491545
1668+700024701+696443606+695879378+698410237+700577713+699820175+697912152
1658+698406441+703790305+715064976+728663680+733575973+729258966+727185701
1648+730599540+733916810+730609720+722947203+716887415+714944193+717522215
1638+724523533+734120933+740537145+739576174+735628418+734184718+736333329
1628+740455243+745443629+751693103+758251321+762091063+763071072+765205476
1618+771190090+778684375+782843616+783549678+784020386+785614776+787749698
1608+789617862+791269826+793149839+794897623+795566012+795232939+795088517
1598+795945155+797696505+799768620+801614066+803062424+804172706+804800719
1588+805020831+805680247+807357000+809313739+810687039+812092778+815127532
1578+820689579+827289611+831252436+832094752+833353482+836638601+839977555
1568+841276717+841321925+841498670+842754063+847110238+856732888+869297518
1558+875341604+873086129+869880324+867237022+863731503+859816242+856891746
1548+855947455+857908794+863166872+870421373+877110152+880525601+878890720
1538+874563418+871501056+870045049+868321191+866100801+865772156+868651330
1528+873059442+876175810+877605476+879999448+884502748+888079989+888114556
1518+886518498+884899893+882573157+880396709+881334156+887574197+899278681
1508+913284596+920442701+914966122+906045163+901382718+901184749+904211623
1498+909162049+912889809+912673090+910826436+911791721+917040480+923727015
1488+927069017+925316689+920916917+917446828+917144468+920072818+924971135
1478+931084470+938606534+947127012+953634731+953516421+947290816+941217685
1468+938545050+937541115+935576899+932735513+931091487+931657268+934113300
1458+937317782+939098983+938300839+935904911+932734420+929394086+927012825
1448+926189029+925790388+924243505+921688835+919825214+920356428+924009992
1438+929836151+934350034+934010059+930293228+927163516+925901220+925333944
1428+925061723+926459352+930010826+933670084+934975746+934056877+933187413
1418+933883180+935097334+934668785+931930410+928316589+925616173+924271401
1408+923996073+924757695+926656343+929783352+934127563+938813763+941877735
1398+942028886+939819078+936062676+931456136+927916683+927466393+930257395
1388+934288952+936534764+935743465+934246046+935298926+939863998+946484218
1378+953067570+957939717+960085682+960132845+960164421+960960667+961100948
1368+959901114+959462385+962171543+967498409+972431293+974595606+974043226
1358+972149122+970655096+971017789+973155645+975395763+976866322+978970013
1348+983100899+988163078+991943004+994380746+997281258+1000908768+1003212153
1338+1002756515+1000812487+1000471649+1003979182+1010748769+1017963758
1330+1022581341+1022969916+1020348470+1018758163+1021540078+1027158433
1321+1030773405+1030990814+1031937866+1037344563+1045726659+1052405947
1312+1055133222+1056169078+1058376757+1061942725+1065614637+1068731523
1304+1071103812+1072754395+1073741823+1073352097+1070924363+1067251071
1295+1063896876+1061988623+1061352270+1060199542+1056458727+1049428938
1287+1040343427+1032140896+1027682516+1027217444+1028330256+1028284819
1278+1026502410+1024873223+1025338639+1027722546+1029651390+1028498547
1270+1024394923+1020686317+1020049849+1021339349+1020850811+1017049489
1261+1013325123+1013385975+1015266620+1014098248+1008938063+1003174768
1253+999723716+997562280+994450225+991496108+990806266+990111017+984111104
1243+972052840+959043039+949415846+942872525+936558978+929073494+921399301
1233+914469417+907869271+901113602+894505001+888151136+881563815+874779101
1223+868588581+863636142+860055335+857645718+856222092+856013195+857215214
1213+858808569+859130944+858145529+857399666+857543168+857749304+857880612
1203+859205829+862072867+864849951+866326952+867613116+870337516+874406113
1193+878948926+884183594+890500936+896839042+901691576+904755778+906393305
1183+906902721+907274502+908956201+912312179+916481716+920593680+924281351
1173+927236618+929752868+933771599+941485018+952137485+961805859+967550978
1163+969814908+970729636+972474430+975972874+979908438+982586710+984585032
1153+987130788+989550700+991043230+992718775+995925846+1000071686+1002630095
1143+1000964213+995135236+988786203+986034771+987545476+989969874+990205803
1133+989742687+992053434+997151503+1001637836+1003789955+1005090843+1007182571
1123+1011108817+1017296346+1024516051+1030272789+1033028592+1033516209
1114+1033043086+1032416166+1031532956+1030083792+1027898889+1025592628
1105+1024537562+1024718966+1023698984+1019536234+1014613473+1013011778
1097+1015097409+1017377788+1017898650+1019050918+1022662668+1027190757
1088+1031269879+1036219903+1043207245+1049286645+1049190594+1042112608
1080+1033731778+1030145794+1031725288+1033521731+1030660674+1023118537
1071+1014168302+1006741541+1003312346+1004125501+1006679079+1008821421
1063+1011191754+1015748716+1021884827+1026673807+1029069562+1030301777
1054+1030689892+1028935666+1023186060+1013304648+1003067904+996284283+992516320
1044+989617418+988984976+994762765+1006637553+1016989788+1018040023+1010740832
1034+1002656553+999101513+999543578+1000186717+998289162+994256282+989775471
1024+985768243+983050286+982746258+984547302+985919624+984818315+981663814
1014+978122233+976400446+978336421+982933644+986154058+984755048+979007053
1004+971046317+963291085+958308565+957235898+957821925+955626324+948453034
994+938998906+931249655+925606913+919960663+913842900+908559286+904607906
984+901748517+900145557+899462904+898329041+895867028+892594792+889546580
974+887151112+884911972+882078350+878693671+875429890+872633884+870186192
964+868109073+866765854+866242001+866145950+865688356+864157693+861881685
954+860224258+860479570+862843404+866233087+869015922+870683875+872806143
944+877041593+883026322+888998974+893223150+894854926+895286293+898027314
934+905066535+914089239+921095906+925238986+928978478+934075627+939222699
924+941578768+940679109+939837138+942083928+946177027+948145498+945919414
914+941064866+936815498+935792353+938320337+942554291+946887229+950813303
904+953109498+951138266+944519714+937574934+934919841+936888830+940665248
894+943607862+944368276+943037594+941471042+942393017+947209144+954836520
884+962641043+968049179+970252832+970957973+972326155+974491502+974163548
874+968512985+961123436+958843575+963523908+971195398+977389829+980223048
864+979658245+976657080+972945138+970255938+969674455+971207246+973838585
854+976137829+976776253+975130156+972038231+970571008+973754957+981806568
844+991859837+999498370+1002470087+1001791978+998388319+993409192+989625815
834+987505560+984650715+981507027+981452617+984960839+988613771+989460631
824+987855945+987185428+991980159+1003609356+1018880556+1033278094+1043070357
814+1046914586+1047719574+1049635420+1050994513+1045338428+1033298110
805+1024185911+1023397602+1027297966+1029755838+1028911049+1027248963
797+1027997011+1033549798+1043745936+1053030451+1055572526+1049672114
788+1035390298+1016931927+1000574142+989340078+982970339+980189344+979542408
778+979000956+977521770+977206009+980037158+984714442+988122472+986820319
768+980768641+975532075+974458488+974798981+973700548+972035816+971101532
758+970919898+970872505+970536154+971434087+977404438+990197406+1004651999
748+1012328838+1010676644+1003838153+995731213+988088078+984669580+990635099
738+1005385553+1019533129+1022769992+1016471342+1011271356+1013023166
730+1016553245+1013374817+1004677421+999300747+1000775792+1003417024+1000926598
720+993674339+984587448+976077898+971598697+974618612+986293131+1003073081
710+1016114285+1018355669+1013423130+1010726568+1014410328+1021647748
701+1028810972+1033323417+1029906414+1014975821+995108089+981160323+976689519
691+978285462+983076628+991690626+1004760013+1016365514+1017365250+1007910374
681+996511815+989272785+986588301+988137196+993868512+998543036+992288673
671+972891303+950518880+939222814+947689630+969469009+983501208+977990752
661+961708600+950115926+950817731+961661725+975049289+984495768+986000491
651+977680513+963042157+947228067+936303609+936154471+946740277+958621450
641+961356489+959788039+961495390+963509299+961241688+955934895+954456457
631+954616925+944455814+923149328+900034552+883312578+874891257+873902506
621+882998715+903782096+928846998+943728817+939511830+922070451+905325183
611+900357559+909182352+923241353+930380306+929757470+930677950+933358522
601+934102487+938122023
##END=
