##TITLE=<SNM>
##JCAMP-DX=4.24
##DATA TYPE=INFRARED SPECTRUM
##DATE=29/4/2025
##SAMPLING PROCEDURE=Instrument type and / or accessory
##ORIGIN=Admin
##XUNITS=1/CM
##YUNITS=ABSORBANCE
##RESOLUTION=4
##FIRSTX=4497.3318
##LASTX=599.83466
##DELTAX=-1.4281778
##MAXY=2.224817
##MINY=0.65777624
##XFACTOR=1
##YFACTOR=2.0720223e-09
##NPOINTS=2730
##FIRSTY=0.67313778
##XYDATA=(X++(Y..Y))
4497+324869946+325055346+324968327+324651465+324503721+324261105+323220998
4487+321559364+320589850+321319366+323255288+325056784+326176747+327158199
4477+328041500+327796842+326095625+324181825+323301371+323481967+324075849
4467+324588122+324902107+325251389+325896993+326595845+326689796+325935224
4457+325007450+324765610+325109312+325170699+324686877+324423204+324797599
4447+324896526+323817613+322246881+321597537+322291038+323678585+325114576
4437+326203758+326429805+325485404+323907393+322768704+322620988+323251404
4427+324201587+324988090+325244974+325327390+326108455+327383124+327520454
4417+325777699+323705396+323084243+324024501+325536320+326560634+326472120
4407+325442973+324270799+323638945+323708186+324166291+324301349+323452942
4397+321701067+319934234+319311729+320432958+322636350+324521384+325604669
4387+326599757+327636843+327813153+326763927+325110750+323376596+321707712
4377+320525068+320270025+320553834+320580702+320388513+320819089+322270872
4367+324136575+325512473+325988845+325661742+324731120+323333101+321776924
4357+320754192+320905561+321963359+322858973+323119596+323457084+324499579
4347+325644798+325782618+324718750+323288053+322373051+322090536+321708460
4337+320631043+319512864+319603967+321078447+322869731+323903309+323656723
4327+322117145+320164135+319270622+320059282+321630848+322608820+322598378
4317+322365169+322689596+323398544+323687244+323213317+322424773+321884942
4307+321729345+321892162+322509317+323528425+324185565+323680081+322300789
4297+321084574+320642377+320939390+321639392+322264083+322604131+323092268
4287+324159646+325318875+325433566+323876728+321178036+318652432+317456152
4277+317891589+319481940+321516157+323362500+324534616+324942265+324900726
4267+324641052+324140545+323567518+323272432+323161250+322675702+321677249
4257+320744699+320428729+320704369+321149874+321407017+321436387+321489059
4247+321827265+322349721+322696299+322843180+323252958+324318206+325716657
4237+326424627+325647847+323736492+321941353+321260826+321629007+322171456
4227+322152441+321588044+320814803+319866317+318852934+318420287+319041181
4217+320199863+321052385+321512503+321990342+322577695+323063416+323318919
4207+323320098+323211793+323367937+323911651+324381349+324406721+324330116
4197+324530704+324649164+324188643+323384852+322904798+322980770+323246255
4187+323318113+323394517+324135914+325656075+326905572+326693938+325170641
4177+323675277+323235324+323804266+324758419+325554242+325923487+325726006
4167+324927163+323801849+322813436+322230197+322103711+322538170+323625914
4157+325153525+326599584+327355652+327003810+325762165+324525066+323951118
4147+323730796+323295589+322955599+323548187+324955469+325906227+325653371
4137+324937173+324737880+324919367+324733363+324095785+323722051+324132347
4127+324941143+325174439+324110772+321948919+319953163+319615675+321119497
4117+322966645+323696420+323478400+323451820+324204090+325372121+326155373
4107+326036654+325311309+324771220+324794549+325026579+324965652+324577104
4097+324225751+324162523+324260904+324261450+324011873+323451618+322714191
4087+322223954+322332202+322805237+322968832+322408980+321363867+320545492
4077+320703218+322062028+323873535+324853233+324528920+323617716+322828509
4067+322346643+322431389+323130672+323650826+323325334+322628180+322202092
4057+321943194+321685850+321593740+321642873+321674430+321772494+322063064
4047+322591934+323354992+323976346+323951003+323511481+323389799+323714054
4037+323923474+323706086+323407836+323408871+323456825+322927207+321839635
4027+321153010+321714185+323372885+325298393+326584050+326650472+325791449
4017+325122947+325339184+325835836+325665539+324889162+324286362+324106342
4007+323824949+323157367+322706597+323287046+324934182+326815908+328091410
3997+328579634+328449868+327739166+326543375+325384433+324898109+325212094
3987+325892563+326447985+326690687+326607610+326066945+324959352+323678096
3977+322958562+323075987+323655601+324304082+324874117+325115554+324718203
3967+323905639+323515883+324280177+326010506+327519045+327774261+327076330
3957+326424684+326134575+325957432+326098617+327075812+328556592+329255414
3947+328525610+327318658+326938884+327398370+327522094+326527812+324955095
3937+323908228+323924193+324748638+325882783+326906867+327357004+326931779
3927+325914742+324958403+324519255+324801568+325961689+327881099+329912986
3917+331143987+330952546+329469091+327526438+326035993+325417716+325618477
3907+326599210+328476449+331150229+334024770+336149543+336571978+334790676
3897+331623494+329210452+329292235+331576029+333681299+333655783+332536799
3887+332380597+333333254+333924203+333696574+333685988+333741363+332337275
3878+329845413+328810916+330744881+334595064+338164141+339859490+339215065
3868+337351778+335918923+335233506+334501545+333442998+332617143+332357239
3858+332837494+335025668+340138697+346036444+346779653+341997323+336025704
3848+331667622+329934877+330626047+332486429+334160490+335657638+337973880
3838+340809414+342166556+341104270+338642153+335953615+333645830+332458180
3828+332946202+334366314+335538257+336755479+338778017+340361723+340101847
3818+339185464+338753536+337983575+336220481+334524212+334317181+336192894
3808+339160121+340950168+341097078+341755944+343894669+345502625+345259664
3798+344405216+343492170+341721223+339353086+337895636+338030780+339098043
3788+340357465+341614759+342862530+344442382+347095565+350862297+354452690
3778+356775290+358269532+359885773+362415175+366669554+372537125+378184403
3768+381986258+384307132+386185032+388096877+390344281+393061556+395544615
3758+396862031+397740125+400383154+406250697+413971112+419179271+419747724
3748+419147311+421187655+426187372+430667137+432508388+434090426+438048137
3738+444737536+452032439+457378388+460562456+462636399+463966242+465054676
3728+466969052+469908289+472336663+472640292+471278663+469962974+469015552
3718+467071374+463956145+462139028+464198243+469229085+472833372+472624874
3708+470695625+469928713+471382308+473766699+474575984+473195714+471698164
3698+471739846+473392793+476579219+481443476+487151220+491268672+491533725
3688+488848208+485864902+483728996+482761178+483467624+485704212+488534597
3678+491357502+493328289+492731962+490634372+490340725+492180970+492927458
3668+490280028+485777164+481955863+480178127+480314710+481225340+481978818
3658+482208518+481846637+481872469+484342008+490472245+498602323+503628505
3648+501719451+495418572+489100432+484576799+481601691+479451085+478297667
3638+478987658+481348949+484009123+486492815+490185271+495851966+500492161
3628+499404791+493263335+486890021+483477002+483832900+486904002+490367593
3618+492859397+495167153+497759697+499292947+498891886+497856065+497382972
3608+496973799+496519692+497327971+500031035+503414080+505860721+507185184
3598+508510568+510740655+513263814+514377592+513695598+513288093+515584343
3588+520086114+522703109+520344666+514516246+509136525+507144048+508966918
3578+512713743+515726622+516644673+516193961+515883514+516261504+516729476
3568+516339404+515011719+514109834+514855402+516906965+518508909+518079024
3558+515982758+513907722+513011418+513656764+515840824+518930337+521722692
3548+523577723+524901266+525825588+525125471+521861059+517549607+515109295
3538+515864470+518271989+519599904+518691000+516489622+514159083+512039343
3528+510425835+509930478+510530833+511285778+511325073+510592278+509729401
3518+509570092+510349144+511304822+511722165+511938316+512371078+512371193
3508+511344865+510003775+509263097+508896095+508362076+508032125+508616313
3498+510068557+511419715+511870427+511983652+512923450+514646731+515997832
3488+516262425+515312673+513201276+510747731+509004372+507726338+505919750
3478+503681435+502039103+501788893+503186135+505518861+506829171+505552575
3468+502479172+499837092+498858459+499195831+500200930+501654439+503048574
3458+503201497+501562732+499264353+497919408+497947772+498593060+498974733
3448+498873648+498701567+498533916+497634909+495760489+494138179+493961093
3438+494636643+494605806+493350612+491788136+491052061+491451741+492438889
3428+493061164+492520126+490844252+489173442+488780953+489672884+490714401
3418+490871293+489787719+487637718+485120945+483272530+482777403+483540863
3408+484888455+485882737+485782284+484777186+483923054+483739179+483577857
3398+483177083+483632916+485662616+488109660+489395518+489409901+488904591
3388+488298770+487843455+487875961+488286228+488388118+487809108+487034314
3378+486932423+487969452+489787259+491418085+492174296+492403564+492965660
3368+494072189+495203341+496094870+496949347+497675009+498028088+498512629
3358+499978911+502136219+503349068+502484465+500433938+499034394+498912195
3348+499169021+498904946+498254940+497885464+498073481+498571025+499179550
3338+500136666+501688901+503454008+504605758+504556682+503312132+501531606
3328+500221987+499907685+500212494+500456261+500258117+499407092+497848183
3318+496136524+495070210+494696075+494506792+494402772+494499427+494311525
3308+493370864+492351152+492280501+493168118+494407835+495788910+497120853
3298+497845881+497931318+498056969+498305338+497782308+496164657+494628589
3288+494547352+495894311+497511443+498701912+499861486+501515095+503433296
3278+504831401+505094787+504302215+503220713+502617826+502364049+501638387
3268+500110488+498397276+497434119+497798014+499377520+501186525+501784808
3258+500564537+498478915+497075114+497060213+498092870+499621862+501303949
3248+502773510+503499517+502960434+501273744+499565307+499032036+499674735
3238+500535713+501011395+501121513+500691225+499437757+497673456+495884185
3228+494144622+492681735+492176079+492856520+494024149+494888177+495237171
3218+495120034+494481247+493364535+492198632+491357042+490583456+489537452
3208+488748504+489036398+489829143+489403976+487559934+486458698+487700141
3198+489937305+490637422+489391088+487730058+486582048+485812144+485388990
3188+485350270+485166511+484253235+482739776+481213200+480135467+479657312
3178+479572911+479579096+479612637+479518111+478801310+477315093+475581198
3168+473974191+472345926+470707190+469506393+468900630+468514412+468242944
3158+468393536+468805011+468671477+467511184+465769234+464280457+463486619
3148+463232036+463092260+462768236+462222479+461547389+460888753+460500637
3138+460516200+460619701+460348204+459737033+459265753+459186760+459275907
3128+459288910+459278410+459266990+458897082+457754078+456031545+454586752
3118+454180225+454717582+455322194+455179024+454169208+452676346+451198932
3108+450288878+450316695+450968024+451326425+450775663+449672356+448906623
3098+448907601+449246412+449259616+448977273+449043091+449666143+450209626
3088+449967125+448919021+447613026+446623145+446158971+446001446+445761534
3078+445222250+444528979+444131629+444311793+444610187+444201244+443091838
3068+442240611+442226631+442576546+442607757+442214607+441652022+441152896
3058+440897795+440949259+441132069+441196621+440981822+440281331+438931324
3048+437257205+436045650+435791585+436213416+436676066+436805774+436557634
3038+436058624+435600317+435422512+435340010+434903249+434057632+433260544
3028+432798613+432508072+432336106+432502750+432941639+433215064+433116280
3018+432824617+432419874+431819289+431120208+430458954+429692732+428721290
3008+427883239+427548656+427596207+427713056+427908524+428285134+428514661
2998+428067228+426953220+425802391+425151695+424968597+424912848+424750663
2988+424394017+423844434+423341914+423331242+423936257+424592936+424582178
2978+423878120+423102319+422692656+422545458+422449177+422343231+422105102
2968+421558051+420774886+420050749+419541929+419187325+418915109+418686934
2958+418481685+418447798+418838043+419486007+419635535+418760317+417277293
2948+416012377+415367491+415329750+415710559+416084321+416008896+415421284
2938+414472712+413239812+411942821+411020656+410694301+410815494+411185056
2928+411633927+411905108+411843174+411610253+411503644+411672072+411962497
2918+411906202+411139519+410000542+409260699+409117212+409013797+408598726
2908+408204828+408214004+408520654+408736632+408570966+408086425+407735676
2898+407799538+407845967+407393730+406818287+406736417+406935136+406809225
2888+406413227+406213128+406201937+406030864+405732441+405698554+406039494
2878+406374881+406268417+405635757+404758123+404077998+403936985+404290870
2868+404643834+404486107+403821747+403093065+402659498+402519923+402421542
2858+402095130+401490776+400896261+400633911+400612135+400590790+400724640
2848+401242091+401781288+401691623+400876239+399848444+399113980+398795133
2838+398685821+398539774+398335993+398196763+398119756+397993989+397778298
2828+397460803+397042425+396705254+396702204+396973932+397201589+397241949
2818+397160367+396931473+396475755+395926518+395511160+395198872+394801694
2808+394393901+394237671+394279210+394137593+393618129+392872158+392147647
2798+391711232+391779380+392192178+392405164+392079730+391474600+391102075
2788+391169273+391440396+391577986+391498447+391259197+390758863+389925298
2778+389082212+388641482+388517815+388301981+387917259+387666100+387682410
2768+387701827+387398601+386778627+386205140+386055267+386354351+386746236
2758+386797440+386334013+385535630+384766618+384289067+384061007+383834730
2748+383490137+383187083+383143272+383366068+383641190+383715666+383473251
2738+382953730+382245760+381470505+380839140+380540832+380554266+380681184
2728+380732992+380591145+380201504+379668980+379236132+378991962+378740717
2718+378386688+378244956+378566565+378941219+378743392+378066116+377570183
2708+377505113+377506551+377293594+377037429+377014991+377187963+377179794
2698+376693267+375986016+375668176+375878746+376064319+375796158+375292890
2688+374877733+374513521+374131503+373861790+373763552+373791858+373995697
2678+374325648+374444424+374103255+373441311+372717865+372103500+371766243
2668+371756692+371838849+371755858+371581620+371576385+371773550+371905501
2658+371761439+371495752+371466813+371788105+372150706+372160544+371790551
2648+371359026+371066126+370779728+370364743+369985660+369860641+369854399
2638+369570301+368880282+368215634+368142107+368656824+369187018+369352799
2628+369310167+369195993+368798355+368076404+367479012+367352440+367432957
2618+367314756+367128465+367321171+367925409+368456466+368554157+368395165
2608+368304205+368224724+367881771+367334720+366971515+366952242+367041820
2598+367045905+367075477+367270197+367515056+367589677+367480767+367373785
2588+367347233+367283631+367134621+367063942+367233491+367587893+367912033
2578+368034290+367966574+367844518+367723239+367530044+367250089+367002151
2568+366871235+366823943+366812034+366817011+366808438+366756688+366671625
2558+366589037+366531677+366493446+366437841+366312160+366103546+365887884
2548+365784814+365832538+365944554+366004072+365953961+365816918+365696559
2538+365709101+365843498+365992163+366150666+366392591+366597178+366487233
2528+366071270+365754006+365828338+366104323+366222495+366134528+366059131
2518+366117009+366238461+366336871+366383587+366339517+366160676+365913832
2508+365784642+365918549+366286501+366695933+366909293+366812811+366527477
2498+366320301+366346766+366484644+366481077+366267745+366028293+365940757
2488+366017822+366214239+366481566+366707008+366778464+366674703+366414799
2478+366090544+365951631+366168875+366531964+366664808+366463730+366114190
2468+365846518+365838521+366145775+366594531+366904489+366969962+366886884
2458+366763563+366680111+366740722+366950918+367109019+367025308+366787266
2448+366632187+366637278+366691791+366688770+366609979+366488872+366378035
2438+366323408+366344551+366459214+366692107+366998383+367206076+367145667
2428+366893012+366786087+367078095+367632625+368106062+368384119+368620147
2418+368850019+368867797+368584793+368239797+368110492+368235109+368520960
2408+368904704+369305018+369597888+369755011+369905114+370161135+370433610
2398+370533717+370518500+370806337+371819259+373638591+376219571+379858320
2388+385162990+392581215+402234532+414213412+428740535+445890379+465267404
2378+486088877+507550518+529017106+549960031+569935254+588454781+604712923
2368+617971822+628061353+634707487+637432759+636810484+633780230+627500753
2358+616550762+601891456+585249282+566327371+545689830+527497262+516292975
2348+514143664+520736292+533160102+546063793+555151620+560047663+562663853
2338+564836005+567099691+569037684+571023027+574157070+577969712+580009826
2328+578659876+574843436+570261465+565659645+560918250+555659002+549702572
2318+543327647+536972514+530662200+524040920+516895976+509306477+501445135
2308+493548065+485867721+478477285+471366199+464690896+458558444+452661416
2298+446555084+440253715+434272747+429146314+425010366+421536678+418214762
2288+414773724+411382452+408469105+406346000+404968261+404008700+403110095
2278+402056554+400827509+399583132+398510518+397674365+397092680+396786202
2268+396621572+396364573+395984856+395592540+395092321+394320058+393480568
2258+393010611+393009978+393148862+393134278+392980176+392769836+392425013
2248+391874539+391302433+391036804+391185440+391495225+391640582+391565818
2238+391443474+391419742+391556469+391869505+392244187+392470752+392475527
2228+392330631+392049842+391632182+391220420+390955481+390771721+390501144
2218+390064787+389489574+388866292+388332358+387996654+387843646+387758814
2208+387669724+387620275+387665956+387742705+387718828+387579685+387502649
2198+387709594+388213467+388732096+388946953+388848370+388719583+388815404
2188+389189080+389762193+390375176+390805838+390924960+390854108+390883018
2178+391229337+391904427+392755050+393581739+394248688+394705614+394915264
2168+394860262+394680328+394664564+394949927+395304416+395386659+395189206
2158+395029323+395119275+395387263+395727742+396125898+396496237+396713538
2148+396830330+396982130+397128235+397178404+397279575+397643902+398158705
2138+398483075+398508994+398442515+398460781+398587497+398869495+399353230
2128+399909659+400365146+400733702+401110916+401498975+401913556+402466562
2118+403207814+403997280+404562885+404688278+404449401+404236990+404412494
2108+404997286+405772282+406552140+407250588+407779459+408040054+408032718
2098+407901083+407836042+407982722+408423165+409125238+409897990+410532232
2088+410988467+411353973+411673251+411910632+412027078+412041461+412059555
2078+412217713+412513921+412750755+412775522+412742671+412980627+413592546
2068+414341940+414946552+415327793+415573890+415850105+416332547+417036000
2058+417729702+418194711+418469977+418691507+418890600+419123205+419553378
2048+420223175+420968052+421700014+422515714+423414434+424197542+424794589
2038+425429866+426291737+427239101+427986711+428469038+428928236+429679010
2028+430788416+432002215+433070283+434048312+435122536+436327791+437646673
2018+439142901+440805887+442478078+444008106+445314907+446420486+447536910
2008+448889133+450434407+452018458+453654260+455364941+457009891+458507758
1998+459977606+461558896+463306714+465190022+467018588+468548616+469732181
1988+470661566+471404459+472117837+473092356+474453727+475996067+477445203
1978+478768803+480167944+481812491+483637346+485482596+487356900+489349147
1968+491349620+493138143+494713162+496318960+498222836+500518569+503003699
1958+505342063+507474747+509657427+512040954+514507559+516905584+519202697
1948+521507462+524078144+527102702+530331846+533111487+534953573+536012407
1938+536937880+538375855+540543519+543181744+545937624+548670893+551374936
1928+554115109+557105147+560392687+563405739+565521508+567153427+569243306
1918+571758296+573774591+575053143+576346826+578196391+580377058+582346579
1908+583774601+584732120+585578255+586601189+587737347+588743768+589612802
1898+590636943+592013761+593621746+595389557+597522817+599883791+601550632
1888+601766092+601042157+600506124+600664914+601235640+601654651+601550977
1878+601072879+600942050+601906242+604022990+606741933+609473131+611468945
1868+611651266+609803140+607264907+605407690+604390164+603670083+602948277
1858+602275776+601721217+601280515+600890673+600518896+600317128+600529137
1848+601283852+602481628+603500707+603200903+601192893+598542816+596405587
1838+595030380+594008079+592992452+592292968+592540877+593528428+593923736
1828+592969151+591428077+589962716+588234661+585975577+583599184+581527254
1818+579796494+578366746+577453758+577446336+578345747+579267595+578986144
1808+577315506+575413069+574568544+575090597+576219564+576935905+576977098
1798+576971173+577690505+579567974+582350146+584488814+584102653+581633115
1788+579371557+578790188+579867605+581920376+584309829+586430834+587826810
1778+588802740+590358887+593305028+597500206+601401219+603006040+602162724
1768+600403715+599192707+599439925+601382233+604184484+606394263+607593822
1758+608445423+609240354+610130616+611922649+615179754+619003961+621600130
1748+622319060+622069425+621971561+622685371+624392945+626704441+628731208
1738+630214174+632311590+635882134+639165820+639510902+637757992+635976949
1728+634732284+634276681+635063558+636822969+638876027+641520293+645743663
1718+651277515+655532527+656313995+654582372+652386690+650997387+651025693
1708+652605257+655065303+657181360+658908898+661813558+666548509+670822104
1698+672542566+672745081+672160720+670614181+669149395+668999119+670273874
1688+672944317+678000129+685664421+691685749+691184811+686808979+683513327
1678+683486056+686472988+690254102+692544484+693697326+695113497+696317774
1668+696116812+695502304+696143967+697788773+698890124+699135846+699957530
1658+702545126+707362810+714624775+722316223+724587273+721678126+720144071
1648+721732782+723290426+721521752+717969963+715748161+715906894+718520207
1638+723631193+730128432+734295534+733754610+731660301+731645630+734455705
1628+738853342+743457578+748060146+752828294+757221730+760957681+765063223
1618+770789062+777724011+783431037+786493106+787877806+789054525+790911512
1608+793223295+794812064+794861945+793751217+792569723+792258643+793029582
1598+794139563+794617028+794467213+794730943+796144122+798243840+800199265
1588+801975706+803971059+806084240+807836057+808761184+808898918+809522631
1578+812478437+817411014+820251352+819150864+817634011+818659016+822019853
1568+825729684+828391210+829814917+830920008+834162788+842174693+853183368
1558+857465191+852043068+845816061+843807993+845763648+848985831+850475011
1548+849838123+849531760+851529242+855676208+861229621+866711578+867449955
1538+861550424+854220513+849091749+846112930+844650216+845130154+848044192
1528+852708435+857249846+859911832+860596933+860140065+859297899+859034801
1518+860072291+862047278+864178236+866832282+871448428+878818670+888132486
1508+896843703+900351249+896715117+891273835+888500408+888607132+890168572
1498+892080733+894259386+897051684+901297203+907800713+915291947+919840319
1488+919277130+916717380+915764234+916906203+918909726+920400171+920940692
1478+921903101+925610573+932834337+940387418+942399456+938255137+934313851
1468+934798450+938862568+942977201+943937251+942130087+940686244+942036712
1458+946055149+949508269+949441358+946616036+942530746+938521571+936235735
1448+935597523+934572231+932888073+932415498+932854013+931367538+927215452
1438+923224055+922041065+923190110+925053656+927402663+929983471+931406200
1428+930914467+929601338+928696807+928516499+929528444+932441618+936058073
1418+937238820+935475324+933339935+931974279+930644983+928969225+927431257
1408+926750816+927469862+929163973+930184490+929489034+928044384+927475327
1398+928676498+931931417+936450677+939724468+939754672+937622046+935774322
1388+935141921+934931638+934772733+935789223+938830177+943177703+947646679
1378+952029645+956412438+959767291+960858689+960704098+961820120+964690893
1368+967588130+969811889+972841798+977538317+982091694+984023186+983079878
1358+980996960+979389608+978598416+978699559+980642673+984349397+987139279
1348+986933081+985815909+987130074+991026772+995296167+998902669+1002718476
1338+1007466200+1012928481+1018425282+1022810203+1025009453+1025516547
1330+1026310615+1028592136+1031652767+1033877907+1034778065+1035406784
1321+1036594952+1037830412+1038723666+1040590031+1044454280+1048928608
1312+1052264591+1054731368+1056874696+1057715135+1056913588+1055848195
1304+1055582048+1056688980+1060479012+1067017962+1072642486+1073741823
1295+1072514303+1072370586+1070938249+1065460664+1058985805+1054298836
1287+1050137602+1045847265+1042791812+1040327336+1035813541+1029255835
1278+1023852698+1022307021+1024784384+1028749086+1030134821+1026636021
1270+1020532824+1016182882+1015120596+1015817204+1016905725+1017700023
1261+1016474804+1012439912+1008687621+1008738250+1010984447+1010426378
1253+1005731700+1000352727+996154212+991182916+984058741+976084462+968340315
1243+960456880+952409879+945231106+939540132+934414648+928525359+921408376
1233+913090626+904102907+895967593+890181057+886690656+884061809+880843308
1223+876296374+870753777+865879424+863405627+863157316+863096791+861532934
1213+858710777+856076636+854928166+855904096+858500724+860972162+862157568
1203+863076310+865211928+868418289+871990445+876217381+881386187+886545501
1193+890498351+893288117+895758001+898566926+901858321+904779665+906188701
1183+906560421+907769013+910549632+913507221+915240628+916263159+918067043
1173+921790624+927829212+934702140+939521319+942441052+947825607+958095503
1163+969784849+978152077+982972637+986297344+987710925+984829221+977917343
1153+971214079+969137950+972332057+978122505+984461701+990871663+996168365
1143+998498904+997286803+994242051+991726025+990203592+989635283+991491982
1133+997194405+1005526538+1012894536+1017141379+1020010771+1023942334
1124+1027905540+1028684649+1025660954+1022378362+1022335557+1023815301
1115+1021804644+1014865841+1007520281+1005259011+1009247761+1016058266
1107+1020811743+1019948405+1015684418+1015533567+1025089538+1042043655
1098+1056116183+1057862534+1049117315+1038647723+1031747121+1029313483
1090+1030707733+1033147010+1032383319+1028296188+1025514591+1026739925
1081+1030275777+1032953124+1031419875+1024289027+1013985129+1005967700
1073+1003931268+1005890491+1008443682+1010159196+1010154133+1007991244
1064+1004712104+1002727682+1004066470+1008392248+1013424644+1016837951
1055+1017543534+1015892457+1012584319+1007956840+1003344548+1001012628
1047+1000998935+999786949+994786656+988961228+987887090+994186244+1004850873
1037+1012294584+1010900449+1004611306+1000021453+996785116+992939853+991267949
1027+993548665+994694834+989200335+979719156+972704064+971444325+975336421
1017+981501177+986764970+990744976+995599595+1001306621+1004244132+1000859246
1007+991086951+978418339+967153758+959470882+955027105+952828373+951731510
997+949741334+945650118+940691537+936787360+934373455+932515202+929935373
987+925375264+918168473+909551840+902315247+898531773+897873770+897936194
977+896251575+892399523+888160332+885022722+882053165+877823295+873349255
967+870480438+869032452+867667083+865895073+863905070+861759786+859860743
957+859204408+860055779+861502557+862793248+863524375+863180444+862582160
947+864245434+869444733+876642203+884205238+892357293+900531557+906081690
937+908064559+909332007+912736914+918148567+924103386+929992906+935741470
927+940605295+943362153+943506272+941606826+938506268+934732575+931092243
917+929230826+930770980+935967862+943271826+950472231+955231691+955350382
907+951342588+946347588+942317932+938558507+933850367+928457182+923904495
897+921743390+922939727+927890887+935576409+943026334+947604450+949645370
887+951043187+952481795+953604146+953937203+953455538+953314180+954820735
877+957910132+961376772+964243460+965961217+966488908+967178382+969707640
867+973119796+973626775+969043135+961928799+957382096+957884875+961044520
857+963732626+966693955+971729228+976312522+976291926+973058581+972106298
847+974894223+977654648+978209149+978510161+980189199+982629626+984714040
837+986317595+986824114+985184544+982950429+982914989+985064185+986846897
827+987374358+988422376+991219161+994458144+996083101+995844110+995399151
817+996991429+1001698074+1007815194+1011294549+1009128553+1003293804+999551755
807+1002200681+1010404171+1019089325+1024085821+1024735136+1021571061
798+1016278157+1012852768+1014050831+1018192619+1021576814+1021652758
790+1017321802+1009614705+1002123702+998777823+1000874204+1004644560+1003824257
780+997444903+990196228+984538680+978744550+972139897+967116591+965248846
770+966217008+970086666+975577713+979263611+980627829+982693948+987277818
760+993477094+998451957+998063956+991125613+983191031+980821370+984278517
750+987974885+987973850+986750242+988325260+993120276+997855802+998193405
740+992894057+985712925+982492353+985924876+992452320+995615359+994404523
730+993655216+995470952+997042518+996231881+994785966+995414455+1000101308
720+1008709829+1017219394+1020015834+1014384867+1003665582+996427262+998002511
710+1005415270+1011341035+1010928410+1004274854+995084791+988160832+985045314
700+983558206+981616128+980134773+980625643+982592345+985763554+989799942
690+991850526+990631981+991394866+996062159+995479927+982560127+965915881
680+956863265+957337738+965019693+976324489+985212159+986022797+978886886
670+969605116+967630820+979091128+995418712+1003612306+997605304+982604197
660+968837858+962313579+961477282+960635692+957473918+954409893+955945041
650+964281317+974973504+980126718+978506364+977604479+980398158+976367639
640+956620304+930948123+913464129+908072038+911413314+918500437+924047982
630+924347440+921393303+918858579+914548911+906356122+900464588+900357980
620+900029583+891768388+880242953+878972973+892026365+904920966+905207191
610+907023733+920611374+936148227+933047208+906893018+880317745+873075284
600+888420323
##END=
