##TITLE=<SNM>
##JCAMP-DX=4.24
##DATA TYPE=INFRARED SPECTRUM
##DATE=29/4/2025
##SAMPLING PROCEDURE=Instrument type and / or accessory
##ORIGIN=Admin
##XUNITS=1/CM
##YUNITS=ABSORBANCE
##RESOLUTION=4
##FIRSTX=4497.3318
##LASTX=599.83466
##DELTAX=-1.4281778
##MAXY=2.1774776
##MINY=0.50470316
##XFACTOR=1
##YFACTOR=2.027934e-09
##NPOINTS=2730
##FIRSTY=0.5149976
##XYDATA=(X++(Y..Y))
4497+253951850+256614042+258880620+259961592+259851167+258692248+256700777
4487+254818467+254555205+256664919+260094090+262442496+261882464+258925120
4477+255920630+254630271+254802390+255238770+255377352+255268514+254866434
4467+254130728+253348906+252960199+253355519+254730027+256590793+257763644
4457+257580386+256627268+255824078+255323301+254825521+254429319+254483694
4447+254940090+255415356+255570015+255133488+254071180+252995146+252959465
4437+254470203+256791098+258481744+258730575+257994928+257130044+256266631
4427+255183102+254294529+254272926+254938033+255451743+255444542+255083904
4417+254347963+253196069+252136053+251806894+252316460+253405250+254692229
4407+255468496+254986764+253355225+251692501+251206067+252191604+253777380
4397+254771616+254921280+254867052+254938826+254956344+255011806+255315306
4387+255609401+255632855+255542034+255252290+254249206+252632863+251343386
4377+251007819+251443465+252228931+253051784+253679358+254058248+254274924
4367+254314574+254089874+253638650+253038823+252221025+251113924+249975991
4357+249476330+250194019+251940892+253631773+254020656+252933659+251702348
4347+251847249+253256557+254224576+253558940+252041735+251281428+251618258
4337+251865531+251111572+249977666+249604566+250103845+250691240+250874968
4327+250768070+250549719+250323078+250273788+250474329+250800519+251288423
4317+252038825+252601414+252260087+251235488+250734799+251592599+253487371
4307+255321596+255931123+254864230+252826290+251003322+249985778+249560067
4297+249236757+248875532+248957329+250002796+251635775+252800102+253011459
4287+252702933+252374626+252090613+251712605+251172296+250554921+250027220
4277+249672550+249571677+250016698+251224790+252782320+253849008+254061481
4267+253791694+253512883+253500715+253906380+254444956+254471026+253819175
4257+253021893+252511328+252214059+252006847+251994208+252371305+253219700
4247+254151391+254333767+253480640+252523996+252665987+254028209+255605844
4237+256296140+255786868+254640970+253653523+253088083+252567554+251746347
4227+250902744+250604240+250886431+251211475+251292244+251394704+251740234
4217+252254767+252989591+254059659+255045901+255170551+254229338+252766566
4207+251409076+250520944+250255565+250543223+251170238+252075506+253319309
4197+254603319+255289941+255176724+254772146+254578130+254592767+254708453
4187+254980680+255246294+255113032+254522903+253780290+253097812+252618814
4177+252513032+252651909+252741730+252946356+253713541+254936328+255929948
4167+256291232+256286000+256307044+256288351+255878247+255166084+254854119
4157+255344904+256008042+255907816+255099511+254550796+254793925+255343081
4147+255501885+255130608+254534336+254135196+254256907+254795394+255253495
4137+255381291+255464411+255769057+256048073+255884772+255430522+255468849
4127+256478369+257822721+258284437+257357772+255687524+254363276+254046109
4117+254583009+255247705+255421499+255100364+254741901+254718976+255029383
4107+255484779+255990906+256528629+256964862+257112174+257015798+257012448
4097+257358566+257825954+257864604+257222393+256163848+255123877+254492277
4087+254497626+254894886+255108035+254978535+254878367+254913667+254732614
4077+254253850+253810210+253551504+253508151+254023771+255206292+256259871
4067+256331351+255685790+255167054+255025503+255060832+255332030+255960045
4057+256550026+256435163+255526486+254540362+254151655+254234393+254318512
4047+254463884+255100276+256201498+257105561+257111498+256096011+254638001
4037+253530371+253156625+253441931+254176814+255101657+255898763+256390782
4027+256611984+256657013+256750626+257272183+258239027+259023553+259105967
4017+258790946+258570831+258281028+257631410+257007128+256960748+257381491
4007+257747360+257806203+257702097+257713913+257899786+257907458+257412470
3997+256725496+256499972+256864578+257319034+257466140+257414351+257484921
3987+257898170+258679345+259539026+259899193+259417756+258650688+258729076
3977+260043213+261669227+262419306+262123271+261450728+260847726+260297217
3967+259922589+260108551+260888286+261670491+261849310+261495492+261121540
3957+260927877+260722517+260489616+260596161+261392327+262762073+263971575
3947+264210237+263671308+263480321+264032651+264238659+263197924+261665817
3937+260983751+261653385+263379712+265627157+267621303+268430518+267801210
3927+266570781+265794925+265742637+266038054+266615809+267773758+269187651
3917+269654687+268354481+266037849+264305642+263969753+264526875+265317632
3907+266793571+269901460+274298886+277929950+279193856+278374648+276117533
3897+272784238+269473398+267773758+268359919+270116167+271048329+270923972
3887+271374401+273120686+274924755+275926898+276786050+277135636+275548802
3878+272803431+271354356+272040831+273902332+276302173+278793981+279873130
3868+279161261+278637793+279413824+279892588+278289265+275345705+273084181
3858+273052909+276543421+284327958+292781718+293815898+287265846+279382728
3848+274065074+272340451+273477826+275943093+278591883+281271298+284034922
3838+286098109+286496662+285445317+283842112+282211836+280798472+279938409
3828+279689608+279760648+280562780+283389889+288036352+291192385+290936588
3818+289545121+288431848+286147634+282241081+278820874+277844625+279861285
3808+283779448+287096490+288794807+290612867+293494998+295456637+295012703
3798+293394243+291536416+289395047+287612904+287166825+288097516+289866080
3788+292343721+295567620+299002552+302177249+305660502+310136345+314772079
3778+318001857+319967434+322521817+327517807+335690434+345725355+354591276
3768+360818106+365763807+370367298+374097883+377172971+380526782+383669560
3758+385305184+386267825+389166121+395631525+404396132+411057344+413288682
3748+414675123+418770254+424663723+428262955+428582474+428897348+431918502
3738+438432256+447324247+455088886+457988858+456134706+453050271+451821017
3728+453283024+456527409+460059805+462975678+465102381+466199107+465871182
3718+464303629+462632646+462324032+463779926+465219390+464004244+460202032
3708+456480383+454821685+455500225+457654409+459762683+460759653+461233861
3698+462414324+464457877+466777684+469581927+473862932+479248011+482521317
3688+481019954+476928086+474221071+474746097+477856426+481719803+485692781
3678+490778916+495884096+496500619+492486815+489426540+489832059+490333542
3668+487450147+482550239+478605858+476752000+476245344+476169660+476604835
3658+477645158+478218533+477533263+476991014+478689096+482835045+486514547
3648+486165872+481965548+476582909+472062566+469120711+467568177+467170917
3638+468016167+469683711+470832607+470729325+470635418+472316688+475168663
3628+476274295+474861695+473104447+473142245+475965504+480649853+484165612
3618+484572160+483753481+484292908+486239263+487869245+488375607+488397680
3608+488312326+487923443+487347952+486903547+486895171+487905749+490504779
3598+494284947+497931588+500221034+500815924+500812985+502289511+506066006
3588+509599959+509255428+505695669+502731976+502409842+504140607+506287503
3578+507653457+508094922+508328411+509279294+511281641+513759899+515855358
3568+517249059+517965984+517675711+516158917+513941423+511806343+510369966
3558+510134243+511316264+513321256+514828232+514977543+514519736+515138963
3548+517088227+518420675+517615163+515668250+514147753+513294744+513036508
3538+513581197+514200423+513580433+512078864+511600013+512882142+514448725
3528+514572876+513311027+511842084+510817309+510177626+509757911+509257427
3518+508228773+506671301+505386644+504876226+504562733+503980011+503727006
3508+504671188+506300082+506929537+505887892+504522113+504362339+505541715
3498+507677735+510545317+513050146+513415309+511514247+509258309+508036609
3488+507485571+506973742+506957459+508137070+509964006+510819072+509679082
3478+506867520+503208299+499694568+497508934+496994519+497178335+497113967
3468+496814935+496449536+495841067+495161822+494678327+494028709+492953498
3458+491960643+491542721+491532169+491364283+490488878+488764078+486732193
3448+485079551+483934769+483268486+483259257+483695579+483912990+483534100
3438+482583716+481266699+480094289+479553509+479571761+479904447+480510506
3428+480984243+480629043+479550305+478659381+478447995+478589223+478705526
3418+478965056+479844929+481251562+481950293+480870615+479040122+478585990
3408+479923229+481579016+482509619+482875253+482780377+481994499+480705227
3398+479345092+478025547+476873123+476477480+477242020+478399822+478475565
3388+477045741+475348805+474775019+475390101+476332049+477061701+477703765
3378+478504192+479369751+480005526+480517942+481601589+483658486+485979440
3368+487537000+488418783+489522886+490940688+491752813+491569320+491252477
3358+491684624+492629659+493238011+493135316+492729650+492733060+493452982
3348+494365304+494637413+494312458+494233629+494598910+494754216+494565227
3338+494604789+494861908+494599204+493531341+492239307+491405432+491058432
3328+490642920+489972081+489819714+490732859+491702700+491295359+489769425
3318+488610094+488389421+488474451+488321614+487869715+487098621+486202641
3308+485739103+485940584+486283909+486084280+485295492+484532922+484481280
3298+485424699+487076548+488625231+489053000+487881560+485982202+485221660
3288+486636905+489234259+491288834+492377860+493187633+494039055+494750866
3278+495217373+495325417+494940031+494246385+493574371+493114800+493021452
3268+493042820+492241570+490292922+488572355+488580203+489934754+490981455
3258+490844460+489964763+489085095+488383572+487487327+486101563+484480046
3248+483395400+483632710+485252492+487222772+488153934+487720728+486961155
3238+486770902+486681639+485888031+484847914+484620803+485079580+485036991
3228+483841391+481812299+479733093+478564622+478735476+479398879+479338861
3218+478544341+477880527+477683250+477708615+477848138+477977579+477676107
3208+476748649+475556576+474595611+474059534+473734313+473183805+472240328
3198+471305845+470939564+471246179+471791544+471954787+471381000+470302849
3188+469401138+469325425+470291681+471768119+472515494+471597823+469523291
3178+467686626+466699855+466005856+465021818+463903078+462922244+461713447
3168+459879016+457923344+456648269+455921586+455053175+454132888+453930056
3158+454508868+454877647+454262447+453027786+451973737+451280943+450573982
3148+449703925+448955434+448513204+448165205+447609759+446874758+446289450
3138+446098138+446254238+446593508+446949119+446874670+445833230+444084359
3128+442652390+442015293+441601809+440947077+440540618+440954337+441758615
3118+441935612+441085895+439726759+438512642+437691200+437288856+437246267
3108+437294029+437169584+436988442+437015659+437122968+436824024+435916023
3098+434882637+434439585+434666019+434891248+434615348+434130030+433907887
3088+433893984+433720308+433235579+432654561+432387037+432623435+432924525
3078+432518448+431232938+429747065+428657687+427753948+426606110+425487193
3068+425084143+425418593+425704075+425372888+424764066+424621075+425159563
3058+425797894+425856913+425299409+424503008+423666547+422913999+422587926
3048+422882374+423432030+423647442+423295358+422626988+422131619+422146991
3038+422475856+422440674+421618379+420490939+419957683+420078483+419809049
3028+418360238+416299344+414766590+414098750+413831255+413710043+413977068
3018+414688114+415434108+415874632+415962955+415599466+414721768+413674420
3008+412860532+412233340+411621373+411182318+411106223+411224496+411150517
2998+410642215+409863126+409255950+409032690+408964677+408809959+408658826
2988+408687013+408791824+408609830+407938933+407095094+406575858+406419376
2978+406271800+405914925+405321122+404534480+403863876+403752863+404242531
2968+404878981+405086428+404426847+402846655+400910058+399446288+398895632
2958+399188433+399987891+400770330+401029448+400738469+400314727+399961820
2948+399435971+398634692+397941780+397707586+397755436+397695976+397485090
2938+397354208+397406526+397542698+397622673+397552515+397339689+397090652
2928+396801936+396269798+395432072+394581150+393989934+393545265+392942057
2918+392084375+391197477+390626394+390474674+390422974+390091405+389579488
2908+389348145+389556738+389844719+389770770+389242687+388592364+388330160
2898+388632307+389024894+388883960+388209242+387478150+386934137+386551897
2888+386432654+386666877+386993949+387039330+386745030+386299568+385841849
2878+385410260+385006034+384581440+384059383+383488829+383115936+383068762
2868+383025644+382557109+381739106+381020476+380650286+380598439+380770381
2858+381028794+381250702+381408007+381391283+381007838+380325595+379661076
2848+379175141+378838722+378718539+378905030+379238186+379423502+379348494
2838+379112595+378847599+378626690+378437847+378147016+377596184+376834848
2828+376132824+375664319+375328136+374939164+374427100+373804464+373099149
2818+372376258+371654895+370847766+370032731+369623656+369920807+370648166
2808+371281090+371652631+371870954+371851878+371368354+370487364+369623451
2798+369115883+368920692+368793250+368654050+368579189+368489897+368152920
2788+367525199+366850392+366387765+366199129+366151103+366004437+365585457
2778+364999796+364600714+364616498+364874469+364971727+364612588+363771601
2768+362771927+362185002+362281260+362597310+362472013+361913098+361439537
2758+361266008+361177215+361006214+360752327+360338961+359661245+358887682
2748+358420058+358441220+358681616+358743985+358510085+358138338+357819025
2738+357573809+357161530+356310579+355189634+354389560+354305587+354767480
2728+355295738+355528463+355459245+355363692+355407574+355378447+354986272
2718+354304970+353665757+353242515+352985660+352815893+352651034+352377338
2708+351996391+351665468+351495613+351484121+351602893+351711173+351515688
2698+350906190+350180859+349705270+349514782+349385311+349132189+348767113
2688+348479367+348460321+348697454+348990226+349146502+349071700+348691840
2678+347962894+347071500+346461326+346410772+346656105+346671124+346250087
2668+345619339+345135638+345064656+345453099+346029883+346359307+346183279
2658+345586390+344882163+344356755+344036090+343699025+343204361+342742086
2648+342619817+342871322+343251211+343571905+343826027+343955292+343772475
2638+343231372+342545720+341933342+341436679+341060434+340886729+340958621
2628+341160837+341274172+341127418+340751027+340396591+340282404+340305888
2618+340191965+339914095+339686485+339590256+339552311+339588904+339695802
2608+339667174+339391832+339120458+339123544+339292458+339312268+339070491
2598+338732956+338506845+338451588+338504905+338580324+338604866+338579237
2588+338604161+338676729+338543849+338023026+337368912+337013447+337041634
2578+337208315+337372233+337604017+337874921+337944197+337683228+337301399
2568+337093275+337101035+337143770+337062620+336868986+336714797+336729640
2558+336879156+337044132+337196705+337367912+337484892+337400184+337095068
2548+336764734+336647019+336763470+336903110+336907196+336850440+336863167
2538+336920510+336897467+336726936+336477311+336342315+336493712+336900171
2528+337406033+337944991+338446915+338639108+338305158+337703067+337359683
2518+337446594+337653013+337683139+337614833+337687431+337958247+338290933
2508+338516926+338488269+338119931+337523836+336998957+336787424+336904433
2498+337210666+337546027+337810523+338016207+338236969+338461758+338577238
2488+338547405+338494853+338508990+338509931+338437363+338405149+338476983
2478+338490356+338329965+338173894+338261423+338606806+339051857+339411613
2468+339554516+339519040+339508782+339632139+339745798+339660179+339375902
2458+339054590+338872479+338926178+339178506+339483123+339730191+339921737
2448+340042273+339993453+339782978+339626731+339703620+339914301+339984753
2438+339740683+339280173+338957215+339105938+339661443+340197785+340453347
2428+340574852+340713170+340752320+340660206+340707615+341072426+341567355
2418+341950536+342206480+342431209+342688241+342985245+343225523+343262116
2408+343106192+342968315+343043676+343358756+343804306+344212764+344437259
2398+344450691+344372421+344363192+344490693+344725446+345064274+345556822
2388+346138515+346555232+346578070+346175814+345348581+343959025+341924289
2378+339453878+336898437+334452804+332139463+329925378+327717730+325452856
2368+323346140+321811476+320969312+320464214+319955883+319656821+320275401
2358+322465561+326259632+331051084+336227569+341445643+346041523+348883269
2348+349185505+347304665+344807948+343339828+343190605+343615993+344076298
2338+344575430+345330593+346406392+347632560+348797945+349785745+350616240
2328+351429276+352231408+352808281+353182086+353814480+355010873+356547682
2318+358112414+359645050+361142944+362497231+363577174+364330839+364813158
2308+365136527+365382183+365569321+365681069+365725656+365803339+366020162
2298+366336535+366663490+366983155+367172497+367008638+366593067+366421419
2288+366829054+367632273+368361131+368676623+368610344+368475671+368503241
2278+368641705+368753982+368825639+368936682+369179987+369566107+369889299
2268+369821728+369291206+368633211+368228192+368122529+368138694+368174846
2258+368194685+368095224+367823496+367508563+367324306+367334505+367507476
2248+367741611+367901825+367956729+368031443+368246768+368560790+368818203
2238+368951642+369079585+369342582+369707746+370025648+370196620+370211081
2228+370133751+370045840+369898499+369536157+368968748+368434552+368095753
2218+367876166+367645705+367347261+366923078+366345088+365762190+365416866
2208+365353938+365369163+365298564+365211329+365264851+365501808+365839461
2198+366182228+366522586+366939126+367468208+368031061+368546682+369006428
2188+369367683+369546268+369591942+369663952+369789573+369886301+370027794
2178+370414766+371066529+371771492+372345925+372778808+373159402+373565391
2168+373980609+374328315+374641808+375085624+375698296+376251126+376498723
2158+376458838+376331748+376254947+376267086+376411165+376695560+376997061
2148+377156806+377150957+377070041+377009406+377059372+377281045+377623195
2138+377972663+378306055+378673305+379059602+379404015+379717831+380045844
2128+380327329+380430583+380362541+380337704+380557555+381009660+381569133
2118+382198323+382934147+383743480+384516808+385201519+385845523+386494171
2108+387133707+387746174+388308909+388767157+389169854+389756338+390672187
2098+391674418+392363391+392652430+392807002+393085372+393510230+393953253
2088+394334435+394727668+395270623+395947605+396501288+396683752+396622852
2078+396745886+397224590+397726132+397888963+397766458+397593634+397485384
2068+397594692+398135090+399003206+399770979+400211298+400456954+400653468
2058+400889719+401349466+402073239+402733908+403038407+403171170+403563521
2048+404419793+405603518+406788919+407685223+408263007+408760669+409455697
2038+410479678+411748375+412985241+413965076+414765914+415594469+416432518
2028+417108677+417665534+418423872+419675345+421424481+423442493+425500184
2018+427431873+429015327+430094241+430921532+432055909+433757019+435717658
2008+437511998+439074378+440607455+442252838+444012878+445822884+447573078
1998+449192067+450785103+452553167+454465986+456166125+457409075+458450221
1988+459696728+461147743+462484511+463592553+464690161+465988191+467505749
1978+469220349+471151156+473239414+475335550+477403204+479613380+482106393
1968+484693166+486947547+488688512+490211419+491934866+494041700+496526013
1958+499253279+501844872+503884311+505405160+506902555+508838888+511315618
1948+514148929+517186749+520540706+524255184+527761097+530321241+532089981
1938+533866422+535992155+538268903+540629242+543181626+545783742+548138025
1928+550289917+552720208+555799235+559199690+562117650+564228393+565995723
1918+567880502+569718313+571124593+572240365+573699962+575888770+578435981
1908+580607154+582063341+583029920+583929604+585039909+586378059+587849824
1898+589409647+590917094+592149845+593299418+594928194+596987443+598522342
1888+598919719+598715269+598584711+598514053+598293732+598098747+598266515
1878+598851941+599591674+600266804+601174541+603110638+606472943+610079670
1868+611382785+609171581+605267291+602366143+601557516+602025669+602385718
1858+602035309+601152497+599933854+598432755+596909437+595810007+595498219
1848+596297793+598367388+600833125+601505669+599145859+595186842+591695624
1838+589587879+588668797+588272302+588134102+588528540+589226125+589128897
1828+587868400+586395341+585092755+583173940+580352680+577538355+575571456
1818+574365804+573402752+572646030+572547098+573054459+573207531+572258999
1808+570777241+569969142+570471801+572110041+574147717+575633825+576072233
1798+575873721+575948905+577031347+579105115+580866742+580636781+578723903
1788+577033580+576707096+577552228+579006065+580853398+582772566+584026244
1778+584478407+585383322+588337258+593427448+598327768+600483187+600329938
1768+599545705+598694519+598349753+599551290+602107672+604278844+605300445
1758+606088322+607019513+607814855+609141778+612067203+616083064+618936950
1748+619348200+618570140+618451162+619637886+621655045+623669148+625072137
1738+626391182+629390146+634872952+639820592+640092231+637303831+635007978
1728+633863108+633195209+632768087+632851501+634309041+638454344+645703950
1718+653918431+658830978+658693248+655747366+652319164+649738857+649083538
1708+650838229+653990323+656548292+658352185+661883846+668790744+676150041
1698+679332527+677950054+673763308+669111761+666543799+666639381+668127136
1688+670386072+674808246+681922415+687381826+686858828+683627787+682114990
1678+683433565+686663078+689780961+691286527+692179274+694091505+696169211
1668+696098201+694338984+693502846+694613444+696120010+695933137+694421692
1658+694051355+697173000+704873007+714743305+719102580+716835707+715379461
1648+717291751+719293862+717223268+712061126+707317759+704847495+705500169
1638+709745404+716252221+720143050+717883231+713127696+710572607+711184133
1628+713261664+715264598+717334075+719243719+719433473+718197312+718403466
1618+721612287+725404595+725822135+723335529+721318134+721515530+723465558
1608+725445861+726183830+725962275+725605635+725260105+724952314+725339169
1598+726905164+729169038+731427329+733776674+736729728+740032603+742564648
1588+743665312+743981980+744472411+745379737+746745750+749178275+753530672
1578+759891059+766096904+768270487+766690089+765801634+767511238+769251350
1568+767823496+764358908+761870832+761639872+764165686+770437251+779310872
1558+783442126+779456832+773618973+769822080+768075266+767348348+766863971
1548+766815769+768533014+773316355+781037641+789775296+795290903+792380468
1538+783809935+778031917+778249652+782437573+786196726+787512068+788655409
1528+792063918+797724486+804037905+810129298+815625801+819212366+820999152
1518+823356845+826563021+828343988+828615334+830618326+837125320+848668775
1508+863674233+875899872+877971701+874097273+871980769+873243029+875897932
1498+877639456+877935314+878402232+881049258+886471811+893270900+898594050
1488+901045033+902434384+904740817+907925596+910849904+912760666+914015696
1478+915603912+918096454+921630114+926579106+932612244+937627604+940505708
1468+942458382+944411115+945588492+945155315+944518395+945858250+949080709
1458+951105334+948939804+944793796+941999811+940136782+938138845+936460043
1448+935519212+933876974+929942822+924612383+920285086+918513465+919278416
1438+921830331+925067368+927143899+927444695+927717980+929363568+931433339
1428+932198173+931810318+931318241+930741809+930162202+931094216+934751556
1418+939547535+942556903+942988375+941768615+940049018+938393730+936269114
1408+933584643+931987845+932744214+934693243+936361346+938268227+940845007
1398+942515872+941813643+939563230+937767509+937471004+937999175+937955263
1388+936651149+934833971+934279583+936509892+941744279+948824824+955838296
1378+960818503+962382323+960783879+958794818+959588162+963220872+967313916
1368+970438794+973465327+977582943+981952152+984283922+983753458+982410547
1358+983082914+986757242+991896694+996144985+998839979+1000960539+1002913683
1348+1004034687+1004424775+1005795138+1009712831+1015508072+1020375120
1340+1021893383+1020587094+1019555441+1020958606+1023349689+1023939758
1331+1022972768+1023730489+1027947978+1032941411+1034587352+1033120113
1322+1032869930+1036585407+1043300847+1050119981+1053903412+1053388585
1314+1050643978+1048924675+1049913298+1053572342+1058838061+1063621519
1305+1065547858+1064792371+1064803422+1067738488+1071749529+1073741823
1297+1073360200+1072591075+1071890139+1069926649+1065875047+1060345625
1288+1054817615+1050505484+1048048329+1046772019+1044240562+1039021047
1280+1033353366+1030700932+1032111621+1035843675+1038857041+1038718311
1271+1034991195+1028856302+1022032818+1016508099+1014441855+1016684803
1263+1020743693+1022229508+1019944471+1016711961+1013829212+1008838719
1254+1000201760+990954863+985351844+984024980+983805306+981253862+975344757
1244+966958099+957609270+948939334+942097157+937220703+933579940+930098716
1234+925549981+918878864+910068847+900511454+892273577+886635582+883576013
1224+882675272+883168407+882830637+879108341+872615514+866973110+864529241
1214+864717583+866243136+868496840+870899327+872833719+874218602+875073551
1204+875338019+875720112+877280699+879781472+881959640+883617161+885883093
1194+889470011+893830814+897769140+900240814+901218268+902438322+906148038
1184+912331016+918275803+921656037+922922001+923702177+924496461+925238840
1174+926612025+929910491+936256593+945185883+954285292+961554415+967484917
1164+973279159+978542115+982478677+984892802+985356370+984440580+985535542
1154+991971701+1002041217+1009273835+1009541535+1005930341+1003836116
1145+1004503192+1005611263+1006010051+1007157155+1010423642+1015482913
1137+1020267076+1022092190+1020889594+1019953877+1021590177+1024253310
1128+1025449909+1025266152+1025192202+1025313649+1024077900+1020708541
1120+1016811187+1015234611+1018395641+1026405731+1035547523+1040844867
1111+1041457393+1040319930+1039183995+1037815748+1036932583+1037947306
1103+1040075743+1041628923+1043008457+1045602460+1048613592+1048965353
1094+1044956428+1040405401+1041152894+1047576767+1054949643+1058170985
1085+1055906522+1051580636+1047843527+1043114385+1035401858+1026675548
1077+1020829753+1019358046+1020995993+1023476779+1024896521+1023970796
1068+1020461885+1016484586+1014910360+1015810220+1016543487+1015121394
1060+1011844090+1008396666+1006850657+1008220668+1011390515+1013615945
1051+1012770872+1009421617+1005573759+1003251689+1002828329+1003073222
1043+1003635899+1005241279+1007167971+1006951765+1004486850+1003408524
1034+1005287013+1006578841+1004480149+1001074697+1000992400+1006016752
1025+1011379934+1010170167+1002959299+996834752+996071623+998884302+1001464432
1015+1002093652+1001201904+1000678613+1002060498+1003852457+1003853633
1007+1003191494+1003032073+999767819+989512901+975555555+965079903+961242803
997+961586041+961869319+960154424+956644220+951035087+942855877+933942576
987+927626454+925042914+923800169+920753180+915533136+910247490+906235744
977+903090056+900570708+899716994+901158250+903287393+903660257+901718517
967+898427575+893934802+887881501+881698347+877924086+876923295+876433451
957+874483070+871220285+868418717+868277401+871685793+876879736+880709371
947+882074033+883042258+885832010+890176590+894543448+898668470+903230666
937+908077963+912688715+917280538+921839736+925460395+927944767+930371413
927+933228708+936239781+940016628+945319968+951169114+955986255+959306353
917+960823029+959090735+954133924+949387794+947744263+948582106+949864471
907+950717186+951389494+951986500+952516611+953637320+955809375+957804020
897+957231351+953818492+951014219+951805623+954606603+955980024+956053738
887+958122275+963535775+970041181+974352489+975427406+975491304+976933854
877+978943607+979369612+979179329+981399410+986675651+992611973+997219667
867+1000194588+1000540706+996627011+989656920+983943094+982138967+984259056
857+990673407+1000598197+1008193275+1007461889+1001482772+998253789+1000545174
847+1004361994+1004682600+1000913394+996361309+994215119+994692207+995920432
837+997493364+1001011563+1007847744+1017160480+1025814368+1030939711+1031671097
827+1028682538+1023937172+1021460266+1025014558+1034388898+1045031671
818+1052478379+1055711713+1054797863+1050091412+1045423523+1046717703
810+1055607666+1065983209+1068557343+1060285666+1046480687+1035968414
801+1035170368+1043746191+1054054015+1057423962+1052402196+1043660015
793+1035376345+1027989949+1021283445+1016897599+1017302383+1022757855
784+1028925432+1029454367+1021962630+1010469729+1000701303+994816593+992668287
774+994479881+999163759+1003289663+1004444996+1003960972+1003667642+1003816247
764+1004327429+1006115039+1010970095+1018939859+1026667318+1028477501
756+1022260076+1012726902+1005970078+1003585697+1002610242+999995077+996857913
746+996548829+1000917392+1011003601+1024765668+1033041460+1029004437+1018603970
736+1011963303+1013162253+1018842279+1024252017+1027060228+1025920178
727+1020583684+1013958066+1010266808+1010722146+1013467458+1016150930
718+1016855863+1013902574+1008370096+1005913999+1010497122+1019566963
710+1028310085+1035173660+1039731035+1039495196+1033626122+1024265185
701+1013886232+1004808984+998592617+994454956+989097183+981828001+976856318
691+977492945+981965143+985312517+984143958+980019582+977831832+982340888
681+993860184+1004364345+1004193755+994937217+986491423+984837957+986666128
671+983087852+966082752+942299020+936210566+950092081+963442427+965561929
661+961652701+958099114+952433902+943873186+940243239+945253073+951847712
651+950993057+942969976+934065081+927650496+925444523+929510762+937666753
641+944427222+946780800+946535496+948040944+952101363+953172989+949570553
631+945659032+940796158+934166777+927835135+922096032+918842242+917016305
621+912816393+912983573+925610293+943950839+953079405+949814563+942921421
611+937518913+935821477+941033526+947661966+943485861+928335501+914624753
601+918253348+943782659
##END=
