##TITLE=<SNM>
##JCAMP-DX=4.24
##DATA TYPE=INFRARED SPECTRUM
##DATE=29/4/2025
##SAMPLING PROCEDURE=Instrument type and / or accessory
##ORIGIN=Admin
##XUNITS=1/CM
##YUNITS=ABSORBANCE
##RESOLUTION=4
##FIRSTX=4497.3318
##LASTX=599.83466
##DELTAX=-1.4281778
##MAXY=2.157562
##MINY=0.45350438
##XFACTOR=1
##YFACTOR=2.0093862e-09
##NPOINTS=2730
##FIRSTY=0.47390896
##XYDATA=(X++(Y..Y))
4497+235847622+234333187+232610591+231197752+230585950+230798442+231061702
4487+230428765+228990772+228074686+228858875+231060056+233278827+234397808
4477+234261061+233417071+232814362+233247725+234457490+235159972+234457965
4467+232888163+231728870+231675194+232399656+233021306+232961802+232570887
4457+232667648+233340452+233574746+232444151+230514210+229474177+230270171
4447+232044144+233161005+232951969+232031404+231253207+230954544+230986847
4437+231052106+230976732+230769624+230472770+230113936+229936002+230365153
4427+231354877+232077574+231837110+231052758+230624527+230536398+229895052
4417+228297441+226504232+225692990+226443526+228355937+230336973+231391274
4407+231340298+230764018+230282229+230062826+230018628+230156814+230528789
4397+231096764+231807774+232516529+232871330+232705068+232303889+231901064
4387+231295595+230281948+229077981+228134442+227800391+228046447+228372711
4377+228346845+228116808+227948825+227661968+227081743+226660527+227088417
4367+228511015+230392428+231923015+232431767+231682299+230071681+228451229
4357+227519496+227423507+227968032+228884444+229757178+230013452+229324853
4347+227999075+226822636+226516779+227260078+228567405+229596552+229689857
4337+228813505+227632928+227072577+227534180+228490444+229067940+229028073
4327+228865193+228955799+229037654+228690581+228066914+227831834+228323263
4317+229142469+229849712+230473631+230846466+230411739+229383437+228936043
4307+229543336+230237453+230190244+229888733+230039437+230380029+230245165
4297+229624316+229083232+229032849+229534600+230530851+231738392+232574313
4287+232765239+232728650+232846932+232857091+232442401+231888576+231628119
4277+231563424+231359594+231157884+231432313+232167854+232749651+232811158
4267+232648678+232587543+232499072+232132807+231457052+230656207+230099712
4257+230156962+230748801+231160287+230730602+229745683+229215307+229698726
4247+230685989+231252213+231078595+230652410+230593499+231000418+231567621
4237+232095743+232500808+232562166+232216635+231832557+231695617+231589023
4227+231308543+231164707+231483126+231999353+232281538+232476321+233002515
4217+233658218+233810909+233399733+232970167+232795852+232671296+232517523
4207+232617888+233145461+233815343+234167237+234024453+233556800+233052705
4197+232844989+233207012+233916168+234203974+233602792+232548906+231823391
4187+231764095+232193023+232738913+233052452+232986897+232762570+232908423
4177+233798020+235022246+235573802+235103983+234521236+234762738+235537331
4167+235947513+235835876+235663577+235396921+234605687+233610163+233366496
4157+234046181+234711629+234660089+234289968+234309768+234731622+235048987
4147+235042892+234957640+234976491+234980733+234901695+234865506+234856207
4137+234664909+234325341+234184693+234390570+234693668+234860152+234849770
4127+234545501+233866438+233169651+232930507+233033987+232969930+232692936
4117+232718431+233378064+234401516+235277008+235814133+236179552+236422998
4107+236358985+236016568+235748429+235748696+235875847+235945659+235853807
4097+235583635+235300872+235149664+234968230+234553702+234093138+234040382
4087+234604011+235477145+236139537+236428693+236566864+236604209+236305784
4077+235728213+235374926+235604459+236243031+236724582+236448597+235272054
4067+233708838+232463477+231958818+232312046+233260613+234131626+234391564
4057+234143417+233803463+233637424+233783648+234238028+234721210+234975482
4047+235185393+235802178+236825007+237490929+237066554+235880637+234994734
4037+234825639+234857868+234751897+234864483+235533994+236503711+237186422
4027+237273009+237049527+237003178+237174601+237296072+237385343+237602180
4017+237761041+237560133+237038314+236413550+235809119+235384047+235365864
4007+235666811+235730023+235210310+234663708+234980658+236141020+237108942
3997+237073940+236236164+235301940+234789420+234907094+235612587+236657959
3987+237735620+238527788+238691009+238126120+237304585+237025811+237679334
3977+238772316+239285977+238666745+237457009+236704767+236793327+237239311
3967+237629989+238134707+238935938+239783487+240330697+240478390+240266684
3957+239813625+239418275+239370487+239624611+239897630+240060006+240271311
3947+240735554+241381335+241868166+241887847+241409885+240768436+240418604
3937+240550100+241087818+242013307+243334576+244568473+244884830+244225033
3927+243573572+243740041+244320044+244335840+243751373+243525666+244226947
3917+245213512+245303895+244051949+242096423+240377075+239319467+238951600
3907+239678850+242301855+246752879+251145185+253243731+252713948+250736931
3897+248359730+246291618+245463542+246583814+248773842+249696201+248708494
3887+247798103+248392849+249535308+250020360+250376287+250950446+250750487
3878+249733755+249472126+250863474+253270843+255894427+258153480+258922734
3868+257951534+256775006+256432634+256050929+254474513+252114190+250273297
3858+250187393+253131219+259656599+266209684+266325875+260767186+254835365
3848+251336779+250703590+252179893+254520313+256892976+259363972+261870357
3838+263192115+262476878+260723462+259011011+257212626+255160799+253645370
3828+253413137+254093698+255111795+256981520+260133760+262889285+263571803
3818+263117097+262189235+259661523+255575192+252103570+251191252+253333136
3808+257185810+260050139+261030416+262145690+264567149+266252014+265610045
3798+264181736+263333223+262759687+262205847+262235005+263260400+265230386
3788+268030940+271268579+274056437+276109065+278639744+282876110+287985255
3778+291911672+294374570+297100106+301545805+307755896+314443058+319756997
3768+322966664+324715601+325660964+326663192+329177407+333729597+338628104
3758+341883185+344264807+348318271+355730578+366191422+376608958+383285620
3748+386891468+391101760+398041564+405081035+408203671+408684717+410596386
3738+416873990+427357378+437905847+443848347+444719256+443322539+442044771
3728+441697000+442036376+442137409+441090212+439084748+437287015+436162517
3718+434822723+432901176+432222514+435267551+441197918+444637059+442435612
3708+437790250+434866387+435135847+437817184+440887138+442676209+443527541
3698+444700924+446511234+448758244+451901437+456516631+461670863+464617033
3688+463536643+460175042+457591503+457244356+458565848+460228583+462389096
3678+466979848+474304856+480134696+480985523+479016011+476905303+474616942
3668+471538949+468160262+464948756+461803279+458774676+456676663+456661950
3658+458784761+461038030+461478587+461441567+464082474+470314130+476361163
3648+477394566+474346652+470956900+468481810+466405837+464902748+465004226
3638+466754853+468681057+469379178+469105536+469894427+474066157+481035654
3628+485497104+484186439+480157269+477298013+477354788+479876271+482600501
3618+483739357+484134826+484975686+485605315+485507990+486064322+488072781
3608+489788288+489664652+489009513+490097170+493469154+497328680+499266037
3598+499013604+498472253+498934582+499821805+500689511+502887844+507701751
3588+513254804+515339112+512872981+508870656+506061737+505033970+505172081
3578+505653454+506014276+506502472+507314826+508058955+509029413+511410233
3568+514865452+516710201+515452544+512494776+509575689+507476430+506530592
3558+506654050+507374923+508624393+510561097+512547932+513665401+513828845
3548+513126600+511303387+509099833+508349594+509625107+511329075+511677557
3538+510649671+509736581+510285883+512150328+513767027+513636272+511728934
3528+509308365+507557173+506627769+505761191+504303901+502714077+502000680
3518+502178955+502182455+501406883+500395312+499731748+499283183+498951134
3508+499217983+500278914+501275357+501120634+499974096+499184286+499489519
3498+499961163+499306676+497972489+498075064+500784611+504426469+506040736
3488+504562860+501554428+499284310+499009155+500469707+502014265+501749611
3478+499525708+497166097+496260986+496479544+496308269+494819152+492479770
3468+490702861+490596430+491840530+492898584+492542122+491160949+490106603
3458+489883892+489816260+489278468+488351555+487308333+486494437+486425648
3448+487055129+487407468+486684340+485140672+483492174+482217461+481506971
3438+480980777+479727688+477483852+475240164+474132484+474418021+475770748
3428+477747438+479643445+480629981+480337117+478947489+476998623+475531159
3418+475627357+476967477+477581800+476114514+473730935+472645116+473498910
3408+475200089+476770158+478153882+479080261+478524286+476350395+474365221
3398+474365043+475969461+477367395+477421648+476269504+474770567+474026676
3388+474719725+476526505+478273603+478638548+477205315+475247016+474871748
3378+476979668+480167533+481813124+480634490+478171918+477209320+478785262
3368+481360227+482956251+483246801+483201239+483604034+484262881+484368096
3358+483720729+483317073+484208182+486437662+489415156+492235257+493722358
3348+493298116+491575402+489459591+487401416+485988740+485965306+487043501
3338+487895366+487783299+487307058+487323699+487876679+488441049+488569016
3328+488020248+486848140+485639190+485215927+485760423+486734174+487594642
3318+487850071+486867866+484730580+482817665+482412437+483200171+484087780
3308+484742059+485222335+485093003+484199491+483449934+483634261+484255406
3298+484500483+484616614+485259324+486058093+486050529+485373201+485294742
3288+486404914+487766480+488163224+487567767+487030983+487477621+488751800
3278+489795763+489820502+489074890+488533806+489175330+491222470+493609193
3268+494733959+494205036+492995938+491852218+490794253+489966356+489779953
3258+490321542+491142587+491461199+490774853+489555344+488681261+488277516
3248+488030037+488059018+488382494+488280987+487313880+486134416+485481649
3238+485238798+484963910+484528188+483805595+482696580+481768006+481718884
3228+482170267+481998577+480835961+479325575+478052761+477190751+476911057
3218+477266777+477895754+478352210+478487414+478363007+478104315+477804777
3208+477323731+476341763+474856650+473367028+472339230+471815499+471674035
3198+471759940+471692100+471154812+470398996+469935362+469826617+469747031
3188+469555437+469243944+468473237+466834677+464656455+462986481+462619104
3178+463383849+464319275+464372668+463133284+461161577+459540014+458794817
3168+458331924+457209531+455317440+453546078+452708955+452468328+451770355
3158+450373905+449229384+449187707+450162733+451601631+452872369+453169268
3148+451974882+449758129+447566054+446011173+445057831+444473260+444051836
3138+443579065+442956259+442326392+441877916+441637111+441597214+441780235
3128+441954565+441704802+441086326+440681662+440709486+440563484+439443524
3118+437174266+434461337+432568860+432393373+433512711+434445171+434130356
3108+432877535+431759087+431496391+432040323+432905448+433627744+433892221
3098+433516834+432600808+431567612+430737490+429894405+428655614+427280521
3088+426627250+427067985+427910417+428285507+428148434+427878351+427482646
3078+426892646+426471964+426534197+426769633+426640332+426026068+425194849
3068+424433515+423899935+423683335+423747437+423725516+423096094+421841909
3058+420639396+420145950+420392391+420944807+421306964+421161259+420506535
3048+419580096+418582289+417588100+416707936+416184946+416253171+416783073
3038+417122181+416641550+415537222+414726767+414765299+415111675+414762837
3028+413512507+412127388+411329184+411244288+411785106+412674050+413055606
3018+412108463+410177454+408453464+407610468+407415729+407459720+407655585
3008+407975087+408088815+407623935+406720307+405934087+405571515+405469592
2998+405373276+405158456+404741630+404086283+403289828+402539262+402057593
2988+402043266+402515829+403233943+403746907+403535053+402379734+400757637
2978+399568294+399274985+399536258+399696854+399337337+398442283+397442013
2968+396948270+397052685+397094599+396470427+395421006+394689603+394637929
2958+394952803+395114289+394993649+394845542+394755455+394440521+393759753
2948+393098829+392950425+393271973+393520016+393314272+392848473+392525916
2938+392403585+392225102+391857369+391419512+391018585+390617036+390209969
2928+389911320+389701128+389298184+388555390+387753151+387207439+386873492
2918+386568674+386234370+385824100+385292893+384762338+384400804+384172814
2908+383912846+383593108+383385970+383429130+383567301+383441737+382907890
2898+382248775+381856807+381821389+381918773+381858172+381469199+380840223
2888+380317974+380146373+380128456+379942587+379722754+379893554+380446059
2878+380823582+380607961+379999125+379509565+379380798+379428466+379386078
2868+379210798+378983609+378656306+378090512+377384500+376948838+377000837
2858+377148144+376846886+376108156+375322469+374655257+374096285+373790696
2848+373879596+374248783+374632416+374765841+374503767+374008156+373631197
2838+373500442+373434471+373211405+372725404+372037813+371409104+371103900
2828+371107608+371175151+371130419+370962704+370645694+370029028+369002565
2818+367747193+366683444+366110768+366019317+366259795+366705573+367173093
2808+367383137+367184780+366743453+366363913+366138444+365864920+365343917
2798+364698033+364246145+364051169+363858774+363542981+363251719+363025953
2788+362650092+361962204+361067832+360263635+359862590+359950244+360273098
2778+360498715+360513131+360373567+360106302+359662809+359046914+358428794
2768+358007963+357775790+357629225+357616885+357734440+357666808+357140436
2758+356317344+355548713+355028096+354786134+354676084+354402412+353873341
2748+353381645+353213070+353296067+353366873+353250297+352904484+352347263
2738+351599308+350696867+349816377+349307654+349389169+349814538+350079963
2728+350005093+349867397+349886471+349880597+349605917+349136557+348702319
2718+348396967+348195495+348018258+347697303+347124420+346459521+345961211
2708+345666003+345414341+345088196+344754960+344675374+345068203+345753865
2698+346215512+346105433+345509204+344740277+344067310+343556808+343118535
2688+342777321+342694027+342795534+342768570+342528655+342263733+342028030
2678+341727988+341379476+341019692+340553121+339929336+339302554+338903823
2668+338857370+339119177+339539533+339956863+340196571+340080291+339556856
2658+338771970+337977295+337434787+337319486+337553825+337806999+337798338
2648+337550325+337257520+336999748+336711422+336392722+336191873+336210828
2638+336322539+336273891+335971654+335601755+335390583+335308802+335207888
2628+335183090+335457533+335906692+336095557+335859053+335473136+335157906
2618+334781926+334242651+333835257+333918581+334353798+334611155+334394466
2608+333889719+333454353+333288833+333363228+333548712+333816332+334206462
2598+334568381+334585734+334166505+333566361+333086709+332882716+333011127
2588+333400544+333800759+333975920+333942578+333881799+333869073+333849436
2578+333827812+333872811+333935163+333862073+333590092+333170329+332679642
2568+332266079+332141642+332332850+332564668+332586826+332493951+332521893
2558+332656920+332689193+332554938+332380549+332265248+332233598+332305115
2548+332421662+332421306+332267058+332202778+332475055+332913625+333021539
2538+332599196+332025096+331725320+331682605+331702302+331786189+331967520
2528+332126484+332185128+332195184+332175310+332116399+332092579+332165343
2518+332292894+332439845+332614472+332761067+332785628+332701444+332636185
2508+332697410+332889449+333121949+333261365+333226274+333038061+332744871
2498+332372836+332024651+331891315+332027469+332240005+332334571+332331605
2488+332345517+332418814+332536191+332659501+332723009+332699131+332646834
2478+332625299+332634584+332677239+332760118+332806837+332717967+332568109
2468+332589822+332890487+333307877+333588312+333596410+333363406+333076356
2458+332982829+333123461+333210938+332970133+332520440+332228763+332270795
2448+332507981+332717433+332802091+332813245+332845251+332920358+332978260
2438+332948004+332792866+332561998+332441595+332625121+333061970+333441213
2428+333470045+333126368+332675667+332464139+332640991+333107028+333726423
2418+334397047+334922588+335154287+335283203+335632871+336160905+336499361
2408+336475363+336322568+336369525+336690569+337089686+337361400+337516360
2398+337721303+338065691+338479136+338872113+339308546+340070295+341561341
2388+344109254+347881897+352998932+359592418+367740637+377529226+389191041
2378+402934375+418559270+435459382+453030592+470779248+487952468+503395024
2368+516036195+525497482+532103634+536203076+537564850+535652885+530280006
2358+521522150+509605411+494839115+477633265+459892352+445425505+437453158
2348+437011623+443447776+454765291+467796889+479486765+488139909+493532218
2338+496417192+497641923+497757016+497228567+496338496+495032993+493168904
2328+490535917+486719016+481571280+475708189+470003854+464701810+459401309
2318+453759771+447799088+441619995+435249456+428838991+422714835+417097294
2308+411880324+406739589+401453978+396193374+391489161+387765699+384852158
2298+382133238+379267603+376560607+374483448+373023578+371721130+370256781
2288+368780122+367616972+366841815+366286492+365831312+365456044+365097417
2278+364717492+364426645+364295356+364163652+363826887+363245757+362465765
2268+361585868+360881073+360641632+360780455+360851350+360552020+360012418
2258+359536385+359266450+359170253+359163252+359149993+359078564+359025349
2248+359146760+359521167+360065723+360572517+360835807+360829993+360724718
2238+360626118+360409489+359942295+359332510+358798722+358426154+358168025
2228+357930246+357566665+356994701+356413719+356186203+356374386+356605462
2218+356565090+356421847+356549428+357023415+357637530+358264757+358935232
2208+359648037+360352980+361085956+361946423+362943549+363975261+364942872
2198+365796636+366526734+367238322+368168913+369471836+371013635+372462737
2188+373502459+374006999+374199216+374531621+375219479+376057076+376782814
2178+377351218+377820192+378256299+378714653+379142573+379419330+379505472
2168+379384951+379004847+378452906+377982835+377741911+377671876+377696141
2158+377806042+377971800+378107568+378135778+378066633+378058149+378360031
2148+379077581+380066846+381268528+383029924+385785834+389556520+394073114
2138+399168821+404731248+410530504+416345364+422074408+427711941+433365908
2128+439103228+444685855+449766464+454341435+458663587+462722895+466078475
2118+468305522+469546330+470391877+471179581+471767148+472078314+472404756
2108+473019376+473891798+474909124+476062752+477275647+478290926+478933310
2098+479267317+479281407+478688708+477279621+475203322+472759764+470138228
2088+467278763+463834461+459462415+454215841+448505070+442750575+437157121
2078+431710499+426367372+421273652+416753825+413133472+410545306+408769405
2068+407367883+406097234+404988545+404031436+403125465+402280689+401576517
2058+401044509+400706260+400540354+400428554+400311474+400349769+400841465
2048+401965103+403582484+405417830+407473365+410014218+413184255+416999198
2038+421590543+427084537+433345381+439946284+446284786+451925019+456913197
2028+461401344+465152452+467944196+470088453+472041027+473906066+475571056
2018+476852057+477400113+476880178+475395480+473593743+472187978+471274888
2008+470294641+468796506+466951905+465163961+463547263+461947323+460181983
1998+458215823+456311066+454941015+454335947+454177190+453944899+453517631
1988+453201838+453297501+453843629+454645007+455467506+456334826+457545674
1978+459244243+461199012+463162621+465146253+467222522+469356901+471453994
1968+473344039+474870918+476230111+477944579+480219918+482608540+484655650
1958+486641714+489192742+492303275+495246271+497439798+499059997+500805672
1948+503293220+506658085+510525857+514210965+517090541+519113150+520822457
1938+522662163+524632743+526740781+529213854+532054394+534898196+537474674
1928+539850512+542218992+544605330+546798917+548817195+551294955+554643505
1918+557924126+559686945+560039996+560446202+561748709+563500850+564750913
1908+565025593+564785203+565030280+566347263+568418578+570523057+572314531
1898+573970148+575710839+577354294+578485111+579061584+579467790+579860530
1888+579927509+579528303+579123580+579303575+580076655+580779493+580810639
1878+580318232+579965478+580226929+581185284+582808924+584973382+586964786
1868+587412995+585672720+582783889+580205275+578439786+577133719+575829729
1858+574331623+572744409+571413544+570597868+570184008+569846027+569477136
1848+569487815+570447179+571918292+571996899+569570278+566117552+563527666
1838+562120744+561069068+559815861+558958419+559451776+560928524+561530567
1828+560246985+558001369+555585012+552819757+549901323+547683768+546526551
1818+545920889+545281234+544638197+544334150+544303894+544035205+543274999
1808+542429719+542145665+542833315+544489585+546553247+548032784+548251579
1798+547553369+547070572+547960050+550626170+553811632+555117403+554045556
1788+552623269+552603335+553970152+555740150+557375833+558903365+560341788
1778+561884151+564131903+567625031+572152215+576220154+577957938+577314664
1768+575715882+574340047+573986048+575180344+577478938+579496326+580699403
1758+581862612+583295577+584703745+586652136+590226007+595022295+598701707
1748+599791530+599460371+599545978+600815619+602981916+605135161+606362502
1738+607143235+609525835+614734677+620248872+621585551+619109393+616213087
1728+614665206+614802191+616314950+618434201+620758721+624037978+629166670
1718+635045246+638203596+637074678+634132275+631907601+631215027+632206724
1708+634935849+638689478+641894340+644229420+647453207+652548320+657234677
1698+659069696+658754614+657052486+654351007+652226713+651805971+652802415
1688+655120349+660005448+667714950+673814219+673784616+670589958+668472012
1678+668724208+671142641+674589435+677494759+679725009+682169072+684245252
1668+684397661+683327298+683206984+684590234+686008724+686206162+686055354
1658+687341072+691323641+698685195+707875538+712494085+710524454+708128921
1648+708414636+709845940+709542190+707387462+705308196+704676491+706240092
1638+710201838+715315699+718197470+716901014+714336164+713929245+716289302
1628+719595374+722214864+725138104+730001312+735887600+740885003+745643085
1618+751873169+758294164+761098752+760083265+758261950+757111437+756210687
1608+754952793+753602884+753161200+754506897+757365887+760339495+762453941
1598+764240372+766823910+770521476+774694304+778559823+781802713+784441899
1588+786517071+788135372+789601501+791123515+792309387+792619188+792547759
1578+793657456+797050323+801657300+805526201+808638751+811735639+814589586
1568+816790589+818650525+820353425+821967039+824780644+831161654+841170521
1558+847949432+846707319+843048196+841538284+842182982+843039297+842896558
1548+842684645+844022214+847088667+851171557+856584007+862740645+864214012
1538+858538391+851845444+848087780+845961410+843185358+840456411+839973021
1528+842357283+846679257+851524252+855748812+858691037+860583069+862528910
1518+864349987+864346309+862271730+860486782+861468750+866105213+874369711
1508+885335570+894378547+895028881+889467997+884095177+881720764+882439204
1498+884841560+887384223+890112043+894105824+899872808+907139676+914465159
1488+918739376+917674471+913085765+909295828+908957906+911520977+915240790
1478+919670561+925181966+931027676+935244227+936288903+934604572+931953402
1468+929775536+929125202+929950786+929994628+927834976+925905924+927332008
1458+931473512+932941955+929375322+925374599+923806132+923319242+921406980
1448+917414503+913312036+911448302+912267123+914335116+915967240+917237236
1438+919975675+924349323+926454989+923511815+917698913+912284446+909109663
1428+909081364+912322415+917029298+919950106+920291884+921305888+925304356
1418+928953275+928041134+924401530+921794499+921081219+921105721+921188007
1408+921618359+922409712+922774805+922161669+921531268+922780263+926481092
1398+930582966+932304139+931197111+929169222+928317773+929040900+930180201
1388+930349280+928963657+927132553+927070498+929816294+934244996+938193275
1378+940382709+941511509+943267921+946270183+949492072+951795175+952772753
1368+952184830+950711404+950774467+954453880+961108620+968082833+973233595
1358+975800344+976068261+975285689+975075496+976559957+979160284+980556467
1348+979242748+976840392+976176591+978183419+981972644+986616937+991873181
1338+997340567+1001931705+1005137931+1008250303+1012868019+1018468651
1330+1023321773+1027172757+1030372932+1031846358+1031212279+1030965601
1321+1034246578+1041096502+1047594622+1050524388+1051645535+1054010753
1312+1057528442+1059627285+1058725051+1056340849+1055266451+1057063799
1304+1061414784+1066681765+1070736357+1072333063+1072503092+1072982091
1295+1073741823+1073736246+1071691983+1066212376+1057846549+1050003029
1287+1045644569+1044187517+1043184429+1041173270+1037261655+1030367237
1278+1021380975+1013527845+1009403249+1009553581+1012847136+1016841452
1270+1018568319+1016434118+1011202020+1004627725+997914845+991403318+985270707
1260+980092358+976186973+972782181+968888958+964988733+962431002+961233917
1250+959816495+956399127+949712291+939487417+927222017+915516835+906042972
1240+898600260+891852674+884427404+875922397+867506676+860830578+855958175
1230+851278522+845725351+840037094+835600145+832925719+831587972+831043476
1220+830769270+830114190+828757043+827017539+825408315+824369157+824409974
1210+825768010+827958453+830268972+832579194+835437828+839636167+845623250
1200+852915096+860113027+865749611+869079296+870252887+870220079+870319036
1190+871488533+873957453+877563894+881837281+885884159+888770083+890100593
1180+890281360+890515935+892085767+895548697+900867649+908133865+917738543
1170+929330530+940782627+948998834+952559059+953337953+954590864+957555098
1160+960710957+962647958+964263411+966752324+969292791+970513310+970819729
1150+971626151+973221196+974252641+973278683+971107106+970314389+971686308
1140+973481282+975267179+979156962+985411547+990627805+992045999+990729134
1130+990248414+993785977+1001562577+1009867417+1014212114+1014545052+1013639972
1120+1012325184+1010597960+1009528664+1010108044+1011360421+1010989157
1111+1008182908+1004224544+1001138038+1000494349+1002820767+1007106612
1103+1011186714+1014106750+1016187202+1016534261+1013490707+1007718384
1094+1002794545+1002329072+1006493535+1012010992+1016057396+1018247009
1085+1018317725+1014786035+1007580035+1000207566+995984251+993983474+990928826
1075+985262045+979247078+977196349+980587376+985654666+987729838+986471707
1065+984485999+982559558+979581263+976268843+974711826+975175342+976222984
1055+977220435+978708871+980359326+980014819+975488228+967699645+960990027
1045+960205082+967538278+980424289+991569728+993905282+988003510+981263161
1035+979452288+982286835+985651285+985868063+981928742+975095074+968056314
1025+963758189+963242644+965276525+968666603+972988577+976507334+977088316
1015+975797733+975508340+976577102+976753123+974199129+969224329+963179817
1005+956400254+948151477+938828302+931123606+927242603+925608166+922267329
995+915403582+906858826+899574337+895056290+892781426+891187271+889074427
985+886076436+882217680+877444352+872136020+867668221+865396442+865059647
975+864830233+863018114+859511163+855519754+852044246+848957028+845762133
965+842369563+838635512+834323385+830258946+828309842+829273419+831809318
955+834030670+835650750+837840066+841010578+843814453+844956008+845205238
945+846499617+849536289+853314776+856736831+859936176+864038525+869862876
935+876874286+883721778+889951506+896474602+904005828+911606585+917702057
925+921779548+924130884+924706526+923472719+921596468+920340354+919302619
915+917458582+915198253+913720675+912981529+912028513+911243034+912193558
905+915103094+918165158+919624464+919298763+918466654+918959358+921665761
895+925820139+929742848+932278688+933274300+933360679+933701924+934631091
885+935476312+936721094+939985460+944854956+948521732+949435059+949421770
875+950989584+953247125+952621530+948128874+943519998+942921159+946532049
865+950993203+952910211+952026369+950815284+951618502+954069208+955462722
855+955524540+958182770+965952666+974637787+976771217+971415602+964741995
845+961005333+959830378+960641901+964635980+971424976+977384116+979131986
835+976797380+973431982+971945860+972866603+975047553+977505676+979721154
825+981245957+982197253+983182246+984062706+985170030+988240755+994185065
815+1000532199+1003391723+1002958760+1002727863+1004033989+1005713395
807+1007878446+1012511350+1018620882+1021124568+1017231106+1010428643
798+1005419256+1002428977+999631034+997502528+996886603+996097327+993905460
788+992074712+991508147+989761464+985366697+980605886+977965988+977111631
778+975592821+970820441+962949988+955354036+950732464+949089721+949612563
768+951576677+952736742+950780163+947115701+944752797+945459313+949546593
758+955116138+959286594+960719678+961055820+963135975+968090605+974286813
748+979278047+981826345+981652816+978962075+975062325+972150713+971211460
738+972126508+975210760+980183246+984961380+987910190+990945260+997083210
728+1004956630+1008981083+1004593316+992551458+979227085+972866069+975876281
718+982334059+986925790+988882013+988121332+985815144+984941862+986443230
708+986397786+981696065+975926827+974248488+976057819+976873140+975893545
698+976614240+981158688+988586805+995332730+996000269+988024511+975760417
688+966079861+961657744+960725136+960677615+959144804+954424454+948341380
678+944864389+944832116+945241763+943299245+938648366+931228436+920980543
668+913239420+917026154+931464791+948372586+964052684+979842417+994086761
658+997623909+985857977+966133789+948831237+937547805+930977070+931838843
648+941069944+951353195+955249622+952648167+946374123+937695409+928002157
638+919703843+913713555+909638734+909264801+915471095+925851582+933465865
628+934677009+932970965+932595134+929290782+922196078+916690605+912403277
618+905067886+897924594+898626304+906111553+913222631+917009542+918496495
608+919272897+920858509+922075230+919096935+912551829+909580891+916295967
##END=
