##TITLE=<SNM>
##JCAMP-DX=4.24
##DATA TYPE=INFRARED SPECTRUM
##DATE=29/4/2025
##SAMPLING PROCEDURE=Instrument type and / or accessory
##ORIGIN=Admin
##XUNITS=1/CM
##YUNITS=ABSORBANCE
##RESOLUTION=4
##FIRSTX=4497.3318
##LASTX=599.83466
##DELTAX=-1.4281778
##MAXY=2.0983958
##MINY=0.42522252
##XFACTOR=1
##YFACTOR=1.9542834e-09
##NPOINTS=2730
##FIRSTY=0.43172023
##XYDATA=(X++(Y..Y))
4497+220909734+220842361+221283871+222360153+223519636+223994147+223669557
4487+223088846+222930615+223538622+224516787+225056795+224868354+224196710
4477+223114405+221676918+220517526+220462734+221735386+223913110+226309287
4467+228102383+228589048+227871791+226977775+226812148+227176403+227320635
4457+227218584+227409511+227837632+227806095+227026147+226012893+225382408
4447+225141813+224739296+223754330+222549920+222028364+222580588+223580422
4437+224204319+224371243+224383458+224163801+223626873+223303654+223656442
4427+224183625+224024449+223130966+222063164+221076597+220254727+219967224
4417+220367712+220967378+221383376+221947449+223035884+224364198+225234150
4407+225060638+223725203+221836614+220434217+220069793+220321933+220377899
4397+219991471+219680162+219903663+220342093+220400149+220176770+220206477
4387+220420629+220265600+219704516+219179178+218761106+218259862+217999625
4377+218655746+220295276+222025192+222688312+221845153+220132394+218737057
4367+218434533+218978583+219424973+219209144+218792734+218958057+219649709
4357+219968550+219432583+218735639+218760633+219287116+219354702+218668189
4347+217870902+217584878+217952900+218848274+219821833+220182367+219737562
4337+219092193+218822425+218834656+218856981+219021053+219518698+220157891
4327+220700767+221116307+221165838+220538250+219755893+219831196+220570549
4317+220554613+219421969+218607175+219028983+219661985+219369815+218695654
4307+218636119+219087100+219628252+220462246+221596506+222303637+222139046
4297+221461043+220681598+220100247+220289878+221490399+222845430+223121511
4287+222048509+220487896+219461069+219290150+219536708+219584013+219279048
4277+219016067+219279658+220151608+221222201+221944551+221999344+221359983
4267+220317739+219511622+219514260+220130030+220438197+219926354+219267870
4257+219587413+221254760+223577860+225324779+225587029+224515216+223047397
4247+221896820+221232495+221062140+221196750+221185815+220920226+220786516
4237+220946837+221200028+221514508+221936072+222217796+222125184+221786213
4227+221543437+221785329+222666459+223683571+224039027+223631005+223111202
4217+222935342+222979002+222982418+222851591+222617370+222394083+222372383
4207+222748686+223574962+224588094+225261660+225218366+224601606+223901170
4197+223427741+223088038+222707877+222462311+222771758+223656106+224440324
4187+224432044+223770571+223235137+223298103+223769046+224256885+224591114
4177+224854523+225240753+225800007+226310416+226547199+226535441+226351865
4167+225961974+225481928+225223216+225296460+225540593+225857986+226256767
4157+226660611+226934740+226947672+226617347+226201685+226234655+226740520
4147+227010882+226617713+226042463+225871360+226006382+225983965+225574112
4137+224937405+224578472+225071100+226379924+227536968+227452118+226073938
4127+224491609+223894231+224517275+225531383+225929706+225530773+224951969
4117+224714988+224806944+225031465+225267166+225315461+224963528+224354148
4107+223974963+224194971+224956726+225881654+226575334+226921976+227099956
4097+227168763+226866620+226145078+225476072+225144802+224817756+224349131
4087+224300972+225087874+226316500+227413476+228241811+228798808+228938770
4077+228678061+228332715+228170854+228135841+227998974+227712813+227497532
4067+227598302+228052699+228676093+229178054+229235683+228547386+227077554
4057+225353799+224202916+223991494+224407964+225092891+226023111+227064622
4047+227690304+227501253+226709044+225937605+225826953+226727176+228260995
4037+229255873+228789262+227355588+226339192+226311316+226524385+226234975
4027+225785977+225897925+226506543+226992018+227182228+227424699+227911090
4017+228519433+229088523+229439526+229356583+228792327+227962131+227273285
4007+227204249+227940568+229074234+229955379+230277088+230112055+229631292
3997+229006693+228366691+227780674+227406293+227483548+227992402+228566707
3987+228984733+229467448+230218254+230955122+231189587+230769365+229962440
3977+229237955+229036506+229442378+230026138+230223012+229866900+229308607
3967+229136834+229685077+230628579+231331303+231661155+231941384+232164564
3957+231929947+231130067+230199711+229702294+229869401+230378834+230556250
3947+230012779+229061759+228425266+228571770+229338070+230239070+230979079
3937+231431570+231449793+231071600+230708259+230861092+231633110+232619388
3927+233368501+233812802+234033801+233820412+233009019+232074407+231706462
3917+231944251+232227545+232229879+232197854+232474439+232910963+232881058
3907+232094141+231136533+230831325+231317578+232221613+233352748+234469548
3897+234982595+234676334+234182791+234335426+235123868+235444738+234570684
3887+233389332+233293182+234332727+235317266+235799463+236207027+236349719
3878+235653065+234460886+233677949+233719748+234544561+235971281+237167105
3868+237162988+236381393+236132547+236805702+237496149+237436523+236587768
3858+235119888+233571460+233410483+235821224+238923357+240103154+239533500
3848+238401191+237366892+236605976+236000515+235475665+235539027+236859472
3838+238916099+240252952+240559670+240755431+241333686+241815227+241636897
3828+240909682+240092601+239534720+239675185+240952168+242716594+243652227
3818+243918228+244620403+245613146+245686497+244576194+243211509+242907765
3808+244349552+246324821+246954971+246613788+247180393+248860167+250016525
3798+250243410+250524295+251193729+251679555+251825144+252312572+253787497
3788+256193113+259010168+261660940+263769613+265632187+268203019+271941097
3778+275977278+279334967+282260173+285732570+290511870+296543205+302843515
3768+308597213+314033076+319184745+322963784+324703139+325662470+328036916
3758+332602049+338241618+344005320+350357754+358489558+368382525+377572204
3748+384108396+389219287+395218171+402022515+407422694+411331234+415412584
3738+420327363+425663828+431121467+436182461+439512578+440454586+440158893
3728+440299923+441304942+441986727+441205513+439544633+438400597+438078767
3718+437634023+436241996+434118195+432344375+432000524+433306664+435821042
3708+438784373+441123958+442423755+443682926+445962214+448747061+450893371
3698+452029904+452071292+451102933+450222901+451170245+454703947+459652702
3688+463822806+465800149+465498173+463784468+461953675+461059034+461502374
3678+463065443+464640223+464496906+462676696+461155687+461113994+461711784
3668+461754392+461624799+462263611+463592474+464355571+463328470+460822449
3658+458536299+457630220+457395161+456615563+455539023+455765298+458595193
3648+463129522+466820387+468089440+467164970+465462428+464531339+464841367
3638+465714598+466589994+467511567+468445857+469422969+471422333+475660267
3628+480961353+484363388+485212280+485063565+485265014+486070383+487012757
3618+487701527+488019057+488095550+488635665+490223194+492610358+495357447
3608+498480412+501842432+504722132+506739552+508405830+510444843+513086007
3598+516133699+518941177+520370505+519975415+518939591+518705477+519131311
3588+519060247+518513025+518883533+520746747+522983762+524179037+524011473
3578+523260820+522893667+523308704+524381371+525777881+526926980+527200988
3568+527089969+528306533+531275231+534219164+535415354+534884175+534101436
3558+534696908+537176455+540139725+540851339+538142374+534442847+533198468
3548+535109810+537597409+537482670+534376480+530843664+529360351+530268016
3538+532440312+534875879+537030058+538310365+538444624+538064234+537978531
3528+537874284+536389203+532858399+528502035+525372665+524482141+525322951
3518+526814986+528265481+529550668+530665730+531487142+532148737+533132040
3508+534401063+535064549+534738692+533857196+532306785+529865789+527388559
3498+526037432+526378050+528588104+531956468+534401673+534599005+533688351
3488+533302288+533731843+534666042+535464092+534859409+532556271+530248009
3478+529661442+530993416+533423066+535550772+535563947+532778917+529183088
3468+527879601+529656318+532207296+533088304+532256705+530741795+528438413
3458+525103050+522176258+521519116+523070137+524968852+525617393+524929020
3448+523670428+522452827+521606222+521438475+522092933+523115642+523656154
3438+523371899+522474970+521029233+519124967+517421753+516589178+516371839
3428+516080325+515725677+515497297+514856197+513485672+512174194+511849314
3418+512617474+513959330+515028093+515012599+514054122+513338116+513580160
3408+514027831+513333480+510966903+507733072+505349141+505181516+506838187
3398+508643208+509762447+510582823+510962084+510165742+508679746+508110260
3388+509121775+510680390+511248596+510221709+508531000+507886119+509023994
3378+510990875+512507615+513472009+514646483+516493227+518722069+520573632
3368+521537111+521864675+521899932+521485444+520808600+520747845+521684728
3358+523096244+524694235+526648459+528334105+528580357+527638960+526950587
3348+526848169+526080863+523805174+521034296+519474674+519715437+521046557
3338+522661749+524519900+526830724+529143927+530404227+529954176+528388699
3328+527200256+527390694+528478977+529198277+528890293+527768217+526285820
3318+524769324+523471327+522547437+522008816+521708701+521385772+520983484
3308+520796278+521082790+521778544+522686697+523545014+523923940+523730146
3298+523642002+524462621+526040116+527260340+527326889+526877205+527451876
3288+529720001+532658810+534847880+536098054+537063302+537780528+537743746
3278+537067267+536507297+536376027+536066030+534999707+533705553+533238483
3268+533610882+533693963+532938429+532157886+532086884+532308737+532280860
3258+532260548+532567312+533074091+533626315+533997555+533751790+533085254
3248+533016630+533820231+534304258+533601061+532300990+531045448+529700848
3238+528525763+528470132+529395304+529757211+529144903+528899138+529262387
3228+528630194+526600270+525013259+525106588+526033284+526619789+526913987
3218+527753272+529410615+530662436+529899094+527583085+525967771+525931843
3208+525969662+524766518+523139859+522550792+523025913+523392272+522916114
3198+521829662+520541302+519442345+519127529+519717206+520316765+519919662
3188+518521748+516848485+515499981+514592560+513819337+512851771+511715909
3178+510643456+509703614+508794394+507857297+506901565+505852840+504564816
3168+503009800+501500563+500708095+501138351+502433756+503494101+503497578
3158+502507412+501075461+499843770+499335740+499417509+499179552+497901257
3148+495775168+493399502+491351034+490289195+490572992+491844821+493312121
3138+494077231+493430124+491477302+489231411+487615732+486765253+486483042
3128+486689615+487114442+487035113+485958115+484547391+484086117+484971822
3118+486280311+486813839+486190307+484927629+483882228+483449105+483061609
3108+481953318+480480468+479811309+480273285+480934148+480794582+479575761
3098+477584663+475610370+474577383+474692000+475316782+475780374+475820207
3088+475471476+475028471+474905100+475073091+474937491+474099517+472900765
3078+471974587+471488273+470906648+469519805+467422935+465753149+465517845
3068+466442712+467468196+468077546+468438050+468627543+468607169+468582282
3058+468623700+468394557+467799299+467162317+466399769+465031531+463282660
3048+462090831+461896763+462319486+462884367+463349179+463519244+463310994
3038+462899342+462506753+462043374+461118081+459605306+458165639+457711196
3028+458314781+459219183+459726359+459556507+458673516+457287680+455840510
3018+454611320+453609046+453000032+453061976+453580834+453867468+453499796
3008+452618361+451496498+450283625+449119277+448116332+447283482+446686516
2998+446480888+446582634+446620149+446450480+446417724+446772585+447103596
2988+446736779+445595335+444332443+443601736+443463391+443564771+443583376
2978+443288202+442439523+440978475+439317351+438233033+438293636+439262025
2968+440172557+440203758+439374477+438339324+437857158+438335176+439331106
2958+439677764+438682718+436930827+435463100+434636930+434134268+433641061
2948+433144865+432810133+432709393+432647570+432366457+431864252+431343473
2938+430880461+430317867+429556020+428876400+428788074+429457110+430446605
2928+431114178+431147880+430677669+429950745+429049668+428017565+427047468
2918+426357447+426031164+426064652+426316151+426322037+425565803+424111678
2908+422661367+421891987+421901990+422300466+422672164+422763388+422369609
2898+421514372+420674325+420264046+420042955+419619256+419179210+419059591
2888+419100185+419042755+418982884+418983250+418789945+418216707+417482798
2878+416981416+416829285+416729216+416320889+415621688+414969121+414576196
2868+414309661+413926618+413456164+413213998+413315866+413392481+413114417
2858+412712464+412590527+412707828+412687546+412342322+411847834+411458295
2848+411184348+410812193+410215227+409495439+408817984+408308826+408037899
2838+407864814+407424920+406524789+405498481+404966326+405182872+405668912
2828+405596750+404651663+403377668+402543568+402418368+402780610+403255640
2818+403435465+403058552+402321929+401706784+401378000+401083741+400641651
2808+400130906+399635137+399156082+398727503+398336225+397870345+397353928
2798+396966432+396700202+396367940+395997402+395781252+395681793+395516059
2788+395276028+394978750+394461966+393688926+392953340+392466751+392049335
2778+391499033+390973313+390729378+390718490+390686435+390496301+390136712
2768+389626882+389108452+388733674+388359751+387747077+387036042+386534326
2758+386163696+385676070+385199058+384975649+384783533+384199346+383318277
2748+382718138+382748790+383173008+383449943+383185970+382391184+381415505
2738+380613948+380113207+379882387+379789760+379592703+379186114+378796422
2728+378631878+378537116+378290680+377977450+377788384+377683801+377429283
2718+376856167+376093161+375532672+375429401+375601449+375689897+375578696
2708+375377582+375131116+374751458+374203230+373609893+373105889+372635221
2698+371994945+371149347+370432060+370211365+370337725+370254156+369735634
2688+369129427+368793810+368725217+368766574+368792743+368685933+368370660
2678+367866717+367282987+366799662+366565426+366562254+366595254+366393409
2668+365830144+365169037+364870508+365013917+365185355+365009647+364515098
2658+363983797+363684383+363699115+363874914+363959733+363790979+363386586
2648+362918602+362552395+362321483+362212722+362203267+362154285+361918219
2638+361543136+361152804+360785925+360512924+360433077+360474709+360475990
2628+360407976+360287167+360029874+359600441+359152617+358862536+358685304
2618+358401292+357932271+357484783+357295289+357338477+357369007+357183936
2608+356816447+356510355+356495532+356754167+357014054+356983005+356606916
2598+356086808+355639228+355343292+355238007+355362720+355627943+355821127
2588+355780471+355460074+354926181+354417571+354242779+354451304+354738548
2578+354799730+354634117+354385760+354095771+353804318+353681771+353799163
2568+353953887+353935740+353753048+353495206+353290188+353407001+353973072
2558+354582299+354619935+354003876+353258652+352878018+352880061+352964148
2548+352914587+352806070+352841815+353038232+353179963+353081084+352734945
2538+352247319+351836857+351803002+352213465+352718933+352925353+352827053
2528+352709325+352810187+353166421+353598019+353814413+353657615+353223028
2518+352745071+352477194+352625391+353205979+353938638+354408055+354441025
2508+354294780+354327079+354484121+354369443+353884471+353444698+353398522
2498+353592560+353685522+353584966+353427222+353370158+353492400+353722030
2488+353872210+353846102+353702480+353503806+353290889+353163951+353177675
2478+353242060+353287596+353385438+353599026+353872942+354108032+354228047
2468+354223686+354201177+354262420+354320888+354216122+353997349+353884410
2458+353969107+354150121+354331288+354490434+354560553+354439134+354169305
2448+353967185+353989877+354172782+354331563+354319546+354087536+353749510
2438+353581733+353768969+354172996+354504617+354618227+354500774+354189374
2428+353855893+353723647+353782999+353823960+353792362+353877974+354207399
2418+354635764+354922399+355008255+355036009+355158587+355407371+355699434
2408+355920403+356069515+356294815+356674076+357075236+357376967+357636823
2398+357903815+358128901+358374514+358842528+359629598+360705071+362212386
2388+364627000+368552925+374481660+382779168+393770970+407751417+424956453
2378+445496182+469135176+495068648+522058103+548909426+574883766+599743534
2368+622997625+642543954+654846289+657856040+653149603+644098269+633169814
2358+620297932+603014604+579293138+550597999+522296426+500812220+490187845
2348+491677287+504625723+525356866+546335635+561147590+569652494+574788608
2338+578125069+579855854+580330426+580083563+579018033+576622908+572748619
2328+567564377+561051028+553202961+544499383+535612381+526701955+517406199
2318+507592012+497646769+487934909+478474943+469262237+460460237+452196401
2308+444451727+437172475+430372248+424108751+418436029+413395775+408980181
2298+405065724+401467516+398141791+395227839+392800110+390739443+388922710
2288+387332345+385933181+384666385+383584568+382821928+382456544+382431077
2278+382496102+382338664+381969925+381772654+381936223+382167012+382172807
2268+382053951+382040836+382206052+382525839+382933709+383297568+383500938
2258+383521190+383435273+383441312+383760092+384365690+384924715+385145989
2248+385107956+385093225+385170480+385151570+384965402+384784936+384671692
2238+384412049+383897523+383362440+383022310+382733083+382225206+381502673
2228+380796701+380202906+379565315+378741859+377832242+377077197+376631782
2218+376476540+376457966+376389372+376210523+376112345+376432590+377308200
2208+378449979+379392962+379971019+380398988+380906804+381491967+382054073
2198+382608310+383293664+384233902+385435673+386792290+388128260+389257351
2188+390091817+390691254+391162562+391596814+392103105+392715688+393298075
2178+393758282+394235843+394825185+395334191+395567207+395581054+395484370
2168+395304179+395161472+395235250+395439597+395404126+394861113+393908401
2158+392897282+392167947+391830227+391693284+391426474+390840457+390024352
2148+389240942+388732546+388638272+389053584+390064733+391654885+393626829
2138+395692560+397651054+399513383+401515339+403965089+406991766+410491705
2128+414357271+418590326+423120811+427756794+432431299+437267358+442308802
2118+447414081+452468792+457465767+462315857+466852076+471203316+475980207
2108+481874721+489180691+497899458+508097877+519784244+532589698+545936275
2098+559358856+572309244+583918691+593495896+601023597+606740970+610568900
2088+612263879+611751426+608990247+603864686+596478075+587245758+576538608
2078+564606354+551886481+538913523+526043227+513664399+502339238+492403023
2068+483767459+476244607+469739158+464144484+459359023+455338001+451965062
2058+449016738+446357121+444056850+442275192+441051705+440223948+439600447
2048+439204167+439213165+439717321+440745673+442512600+445439574+449920407
2038+456234533+464719704+475787938+489523963+505283628+521902250+538307437
2028+553803679+568024004+580940721+592762384+603626119+613482394+622115458
2018+629124606+634246873+637763281+640171643+641572851+641690274+640227396
2008+637004942+632075920+625872507+618956260+611508772+603283365+594143584
1998+584481833+574979901+566009513+557387857+548777119+540259039+532385901
1988+525708526+520411679+516306631+512971756+509917995+506854626+503957785
1978+501757338+500543336+499984799+499568329+499244302+499323174+499913217
1968+500799959+501785123+502865049+504069352+505308089+506455144+507544250
1958+508792015+510401961+512403856+514619582+516702454+518415549+520021347
1948+522078293+524679778+527296024+529528770+531642201+534188664+537370493
1938+540830782+543917208+546301536+548362692+550663817+553249686+555817926
1928+558257275+560584996+562614920+564141419+565370000+566804513+568706949
1918+570937438+573226607+575344675+577119074+578585977+580004387+581428469
1908+582519801+583143333+583733986+584709909+585959473+587147001+588144822
1898+588997222+589724757+590296683+590739841+591211058+591845081+592541140
1888+593105747+593597216+594232764+594983722+595512096+595562603+595266209
1878+594922601+594594000+594156332+593728547+593702195+594247343+594987870
1868+595285545+594868617+593960282+592817405+591514894+590096240+588609085
1858+587064225+585610010+584564182+583966636+583327672+582151490+580498356
1848+578796241+577346356+576194939+575244819+574320380+573301941+572250806
1838+571318986+570534661+569691289+568512606+566926877+565165714+563582669
1828+562273692+561015222+559692154+558508225+557622215+556829106+555855440
1818+554778198+553914575+553363449+552942739+552563813+552338056+552312925
1808+552382708+552460664+552536730+552649578+552920048+553457082+554175589
1798+554886899+555539771+556213016+557003258+557994247+559142431+560215098
1788+561096838+562039273+563421448+565319798+567491239+569654812+571470569
1778+572564158+572975901+573306089+574280059+576185241+578516011+580435344
1768+581570474+582095919+582470270+583232269+584769200+586955830+589250795
1758+591340132+593133501+594445955+595342823+596393470+598127915+600384267
1748+602495015+604070008+605185069+606155319+607447156+609456767+611910024
1738+613841129+614904891+616077779+618338828+620839969+622417037+623691610
1728+625611858+628019671+630185012+631763544+632836394+633673239+634671792
1718+636116370+637829099+639410681+640796578+642105555+643373540+644636829
1708+646033889+647726305+649650030+651560335+653622406+656483624+660073170
1698+663117140+665233500+667256714+669434134+671311804+672932669+674744461
1688+676847400+679080329+681446723+683664951+685188767+686299924+687721749
1678+689880808+692768378+695916352+698649655+700882218+703322116+706692736
1668+710851402+715053927+719037343+722826356+725822930+727142460+726986120
1658+726543572+726788849+728110392+730571335+733389000+735079586+735339259
1648+734506928+732848732+731091412+730131593+730061505+730201010+729717898
1638+728465040+727185038+726550648+726300735+726180567+726558700+727480944
1628+728221288+728175112+727732320+727717498+728350667+729101382+729601512
1618+730048391+730553035+730688880+730328193+730129397+730682048+731829317
1608+733067352+734471122+736448830+738563848+739629073+739366716+739019327
1598+739824331+741867431+744594878+747555768+750595164+753687385+756449907
1588+757969087+757692700+756379880+755450500+755613306+756668283+758355027
1578+760841773+763908069+765742735+764708681+761570649+757943040+755168075
1568+754250528+755186984+756727818+757215139+755845224+753097464+750426563
1558+749623451+750534653+751667282+752466918+753002916+753441011+753849338
1548+754072106+754090833+754438771+755612574+757261316+758984171+761564244
1538+765199844+768487445+770784057+772670023+774653832+776421216+777856339
1528+779841490+783089808+786679231+789269187+791519988+795282527+800591268
1518+806037623+811209421+816164185+820376043+823492297+825718699+827315347
1508+829140315+833523030+841433256+849837268+856041108+859363966+860302191
1498+861160081+864744015+870501160+875129335+877544223+880039082+885060761
1488+892059052+898467300+902679584+904421898+904369134+904278672+905970662
1478+909512934+913404546+916732285+920209348+924811050+930077885+935023804
1468+939641427+944272225+948021344+948908269+946826984+944011881+942292320
1458+942251085+943637409+944777663+943721587+940760453+937746249+935831431
1448+934616880+933690061+933629367+934731192+936461428+938382713+940596915
1438+943209440+945723696+947683349+949586151+951306322+950988578+947115753
1428+941589673+938196056+938298717+940153208+941473714+941625479+941004571
1418+939611537+937649688+936308565+936413361+937277167+937600645+937286012
1408+937258624+937766562+938112121+937771869+936925142+936085857+936041450
1398+937560569+940497791+943857554+946904697+949525518+951447901+951900147
1388+950421715+947765148+945960738+946961914+950569637+954961564+958991888
1378+962738385+966216485+968550916+968596604+966347206+963363197+961590933
1368+962081365+964735186+968745625+973128401+977317140+981749814+986902825
1358+991701065+994662260+996126541+997039696+997006939+996092991+996224932
1348+998930237+1003545054+1008537698+1012882655+1015442599+1015494692
1340+1014543535+1014697009+1015591071+1015852878+1016465796+1019735585
1331+1025732700+1031688030+1035011132+1036150959+1037612739+1040711121
1322+1044453164+1047331462+1049435316+1051856488+1054808838+1057228302
1314+1057761189+1056330031+1054450164+1053746602+1055299880+1059845768
1305+1065694106+1068398069+1066128541+1062722114+1062655015+1066465133
1297+1071411784+1073741823+1070844616+1063350037+1054641823+1047075998
1288+1039916914+1032040482+1025282893+1022854585+1024996198+1027853024
1280+1026797620+1020668077+1012156462+1005147863+1002064486+1002239492
1271+1002870283+1002318120+1001183966+999878893+997697143+994151516+989406589
1261+983771198+977407480+970357584+963337882+958171696+956223938+956163061
1251+954494251+949119265+941316703+933712753+927446267+921358630+913553811
1241+903895050+894386285+886863891+881197879+876025044+870416676+864338067
1231+858257079+853012631+849492319+847852788+847208395+846299998+844313871
1221+841212927+837638509+834612472+832880101+832290302+832384484+833572561
1211+836652095+840931478+844157409+845121010+845209519+846695394+850612748
1201+856487742+862894953+868074376+871091752+872706273+874562715+877440037
1191+880599357+882894383+884299677+885905414+888755653+893050164+897978759
1181+902204890+905042929+907294767+910694606+916664820+925197723+934572961
1171+942767014+949380584+955304134+960756406+964816742+966670989+966638476
1161+966058071+966348304+967938608+970400222+974067725+980199098+988442866
1151+995561202+998582604+998484395+998156343+998178242+996585680+991906083
1141+985425490+980416742+979946867+985086641+993481808+999806304+1000511513
1131+997915031+996947343+999673204+1004375372+1008451018+1011122835+1012919437
1121+1013237059+1011086052+1008570881+1009841917+1015802737+1022506769
1113+1025431853+1023681548+1019698376+1016578461+1015055805+1013984907
1104+1013619035+1014284229+1014002657+1010981744+1006881515+1005089548
1095+1006727248+1010725609+1015170605+1017827598+1018203596+1018610886
1087+1021312592+1025718670+1029486577+1031343020+1031366321+1029451319
1078+1025349138+1020074862+1015779558+1013561391+1013107497+1013469892
1070+1012340496+1007247936+999072182+992558040+990768696+991146889+989057003
1060+983849338+979735018+980743331+987000179+994628894+997832560+993381526
1050+984231557+976450467+973025252+973235211+975529992+978453246+980824947
1040+983043297+986264165+988847228+987192082+981933848+978376570+979280209
1030+981134944+979033895+973036110+966729487+962551362+961588981+964845228
1020+971824487+979360179+984139571+985994611+986876778+987247103+985080541
1010+978367482+967915246+957069994+949204541+945531366+944279972+942293540
1000+937699219+930542758+921834483+913162563+906370449+901719765+897151491
990+890722809+883059324+876727447+873855859+874504339+876852190+878782442
980+878723578+875544494+869555370+863227702+859447352+859149189+860849352
970+861786968+859719712+854188203+846448653+839008607+834585815+834075986
960+835479756+836113657+836055098+837422390+840877799+845048909+848795405
950+852326941+855956929+859353413+862717385+866867816+871249739+873990545
940+875091028+877251306+882318552+889351674+896902188+904412748+911281416
930+917069487+922428369+928511248+935190453+940527315+942390041+940754658
920+937393919+933070800+927615295+922516513+920233626+920776517+921393583
910+920066977+917636350+916184575+916838606+919269842+922356268+925600377
900+929857191+935645811+941628651+946297940+949718275+951838721+951494687
890+948922421+946300380+944933576+944706843+945512212+947362433+949997833
880+953818260+959264066+964192966+965524025+963769816+961603377+959765050
870+958125154+957470330+957531329+956523138+954454723+953631786+955247100
860+958369943+961780152+964697733+966239970+965965535+965033715+965277650
850+967430792+971721216+978780506+987343176+992705596+991680630+987400942
840+984660807+984345625+984902485+985956974+988649713+992656980+994769985
830+991814096+985779284+983350183+989221884+1001600467+1013612630+1019043064
820+1017715421+1014810162+1015479809+1020584081+1026694288+1029601865
811+1026852397+1018890383+1009814223+1003875180+1002170869+1002665387
803+1003137885+1003562865+1003698588+1002368444+1000266176+999986007+1003151976
793+1007091717+1007898612+1005234542+1001958104+1001257104+1003685168
784+1006104144+1003320394+993618934+981670698+973246068+970089615+969163712
774+965956630+960057174+955801276+956571449+960968804+965100448+966249181
764+963386011+957078594+950482714+948413568+954419405+968350900+984711314
754+994146941+991937802+983400690+976357138+973283156+972632053+973490491
744+976511710+981953794+988878276+995659838+1000649737+1002427003+1000620580
734+996578299+992358268+989524866+988778665+989961069+992871269+997604363
724+1002792753+1005363006+1003824307+1000422211+998866981+1000383172+1003289407
714+1004752101+1002723641+997911981+993429593+992681136+996265802+1000739345
704+1002527896+1001592415+998737480+992248836+980988181+968463810+961396224
694+963686431+971832356+977514960+976969324+975069450+977443103+984090345
684+991460790+997180359+1000375364+1000211459+996084208+987881065+977134387
674+965666518+953659053+941257961+929008695+919437833+917517951+921709435
664+926066226+928940803+932834856+939651125+946632824+949387111+946060227
654+938363620+931987458+929674804+929458928+930766380+934888508+941407042
644+946570057+946938307+942720106+938573701+938483910+940952417+943839925
634+947829746+951703913+951396052+944711418+934011404+923629927+915892573
624+912611621+914927508+920844897+926501088+929790641+931532223+932185949
614+928291286+915891292+898306567+885211490+882934154+890879576+903890353
604+916493535+923881365+923631147+924581999
##END=
