##TITLE=<SNM>
##JCAMP-DX=4.24
##DATA TYPE=INFRARED SPECTRUM
##DATE=29/4/2025
##SAMPLING PROCEDURE=Instrument type and / or accessory
##ORIGIN=Admin
##XUNITS=1/CM
##YUNITS=ABSORBANCE
##RESOLUTION=4
##FIRSTX=4497.3318
##LASTX=599.83466
##DELTAX=-1.4281778
##MAXY=2.116286
##MINY=0.48964673
##XFACTOR=1
##YFACTOR=1.970945e-09
##NPOINTS=2730
##FIRSTY=0.50294942
##XYDATA=(X++(Y..Y))
4497+255181867+256190064+258227323+260026279+260750415+260095532+258296819
4487+256315960+255304679+255655331+256777931+257662984+257548398+256343147
4477+254677799+253457669+253197606+253772032+254708797+255542348+255992435
4467+256007586+255736076+255518518+255805118+256810683+258123080+258874949
4457+258580455+257716663+257164117+257145549+257224329+257300991+257807509
4447+258694497+259143343+258696855+257851087+257050620+256027545+254793232
4437+254335282+255455131+257387089+258447241+257983394+256898565+256326363
4427+256521875+256935672+256845068+255938242+254528738+253336143+253080450
4417+253956929+255290858+256093532+256016325+255287381+254093803+252806415
4407+252219576+252767630+254088692+255681823+257290013+258530557+258913507
4397+258387453+257467199+256774484+256511714+256387058+256067101+255663678
4387+255548185+255731721+255828313+255711943+255814130+256405324+256857709
4377+256260739+254701751+253262051+252734531+252904126+253071136+252941641
4367+252866369+253257848+254019045+254630955+254713666+254307158+253591459
4357+252703972+251923314+251725548+252364056+253404112+253889611+253139709
4347+251527964+250330637+250493805+251612157+252409932+252187822+251398409
4337+250877542+251085816+251998812+253155994+253891456+253882928+253515582
4327+253455507+253700722+253335871+251716824+249621651+248432474+248442771
4317+248964243+249788857+251317089+253358719+254934944+255397007+254972021
4307+254205939+253459575+252821642+252160438+251471216+251234983+251959377
4297+253317000+254324214+254504001+254366945+254603465+255196837+255512378
4287+255103088+254175667+253174169+252290977+251706738+251765467+252387614
4277+252916767+253072980+253409071+254344234+255359356+255545584+254688838
4267+253502442+252768568+252607335+252700751+252905684+253340665+253977372
4257+254583264+255157765+255969209+256873918+257072757+256173128+255046748
4247+254854743+255546824+256016779+255611601+254816941+254490271+254968059
4237+255934552+256873465+257556715+258064442+258250670+257485526+255394345
4227+252791899+251338788+252023867+254182804+256199046+257072697+256925329
4217+256113038+254864088+253992765+254701206+256983998+259190127+259861250
4207+259192819+258179300+257373934+256914473+256786339+256749383+256592580
4197+256476059+256565998+256459245+255577096+254212894+253531852+254157855
4187+255298479+255718596+255165234+254279819+253524685+252981439+252894691
4177+253593092+254884229+256031749+256502007+256564849+256941448+257810956
4167+258435477+258105812+257203673+256741823+257063927+257660081+258087184
4157+258360326+258522905+258509539+258453773+258558076+258602713+258126195
4147+257129067+256117968+255560191+255612872+256085458+256486765+256583810
4137+256854292+257710282+258569478+258570687+257943959+257775604+258525143
4127+259417363+259453139+258713337+258189007+258374842+258695646+258497170
4117+257924000+257488459+257384730+257505092+257682036+257803275+257879272
4107+257945743+257982245+258085157+258496958+259230742+259842319+259847641
4097+259238725+258386485+257587017+256892305+256273228+255824079+255806509
4087+256379104+257240175+257844434+258022285+257944534+257617470+257040096
4077+256631834+256823808+257473641+258151689+258618378+258741492+258419781
4067+257856984+257522965+257700151+258271385+258912569+259285298+259100551
4057+258283543+257166053+256329417+256114097+256335889+256517641+256325970
4047+255814160+255356362+255353852+255848575+256339609+256223209+255550816
4037+255030871+255142009+255639938+256051708+256242805+256396403+256744061
4027+257361686+258036650+258403783+258372272+258281063+258503762+259018808
4017+259488007+259700546+259698217+259385821+258344449+256437924+254589070
4007+254246977+255742608+257773124+258877489+258895725+258566302+258375961
3997+258386878+258626271+259078263+259522755+259713308+259677532+259694467
3987+259920312+260177638+260220975+259960080+259355247+258535667+258058545
3977+258497714+259674447+260641182+260596788+259726886+258942750+258776451
3967+258856592+258673509+258429247+258679739+259503975+260407082+260832854
3957+260626727+260099645+259689719+259578279+259743096+260253061+261159797
3947+262150725+262690629+262622313+262386791+262436630+262615630+262454563
3937+261907461+261514652+261919195+263215957+264597336+264973542+264310131
3927+263729249+264016061+264607497+264456530+263619199+263254273+264191432
3917+265934773+267011195+266384829+264479817+262619894+261764206+262030666
3907+263302116+265639917+268634748+270993295+271768177+271400197+270572241
3897+269105157+266903685+265033269+264863704+266131223+266786922+266045216
3887+265495452+266335868+267819645+269076246+270473139+271582856+270967166
3878+269242092+268848527+270691665+273417860+275583495+276532993+275707093
3868+273744863+272592262+272819619+272649752+270720636+268233079+266961568
3858+267412078+269682410+274214758+279431595+280772540+277477319+272914518
3848+269636231+268603448+269790131+272307174+274856637+276912193+278662368
3838+279527703+278585736+276590482+275212853+274956223+275074074+274956253
3828+274646790+274368899+274663211+276507166+279705252+281532120+280418562
3818+278773355+278620242+278725724+277374043+275289939+274143599+274759229
3808+276659191+278492954+280050067+282640054+286062109+287388659+285364918
3798+282368060+280254773+278995843+278370173+278614707+279640021+280915765
3788+282352425+284470823+287329053+290257897+293181721+296706991+300371434
3778+302784899+304182034+306516448+311198219+318261824+326697765+334836521
3768+341428084+346190147+348968720+350065979+351131785+353911689+358316689
3758+362743191+366615061+371351328+378764284+388954786+398905169+405266048
3748+409257251+414481226+421969816+427870871+429062211+428654826+430740623
3738+436502415+444157607+450823141+454936037+456587866+456823993+457102337
3728+458360572+460177218+461250132+460974086+459660328+457470983+454382191
3718+450828977+447677434+445962671+446709973+450095375+454348078+457051138
3708+457527958+456839689+456723440+458292558+460863311+462632176+462977989
3698+462766812+463070347+464681048+467818015+471785267+475368662+477680607
3688+478368725+477490054+475694395+474095246+473445928+473382571+473396180
3678+474135952+476046136+477388140+476906057+476433834+477436919+478326901
3668+477193323+474581260+471648575+468899125+466669921+465656705+466588783
3658+469161017+471479736+471866345+471217934+471778040+474484003+477850504
3648+479546729+479330652+478239352+476568107+474315738+472184246+471270161
3638+472045255+474043896+476429056+479071269+483162240+489480841+494881790
3628+494226332+489387727+486316415+487385427+491773976+497446313+501370228
3618+501178859+498467574+496879917+497758346+500012469+502641709+505105769
3608+506417561+506456059+506702528+508194198+510263514+511827915+513044355
3598+514803876+517114520+519064865+520340337+521926452+524886384+529043947
3588+532820525+534256278+532475649+528496694+525210998+525368013+528516109
3578+530962538+530182969+527654343+525947624+525608857+526132885+527644000
3568+530148130+532441718+533054596+531701523+529349811+527341402+526277984
3558+525704179+524974871+524157984+524042521+525405331+528214600+531609952
3548+534760467+537204054+538333519+537523829+534963933+531754749+529171325
3538+527863494+527451482+527011526+526214416+525580128+525501016+525699219
3528+526010467+526866306+528182846+528809574+528215567+527572872+527953372
3518+528597640+528067383+526355584+525132249+526179276+529393782+532181519
3508+532085592+529957245+528532742+528693265+529057495+528585544+527836397
3498+527712951+528182483+528629152+528951891+529397351+529681683+529508338
3488+529448641+529979079+530088312+528410626+525498475+523302205+522571325
3478+522398524+522152357+522292618+523112106+524013912+524466207+524642032
3468+524742494+524499533+523616900+522294976+521233071+520964948+521046359
3458+520500618+519291980+518328480+517749232+516572045+514306279+511580054
3448+509131508+507316737+506272371+505804412+505637629+505924138+506912012
3438+508436011+510153616+511651062+512095312+510772179+508220206+505823887
3428+504299133+503603152+503967170+505860903+508951328+511799185+512974074
3418+512561154+511950999+511846725+511160844+508591392+504845418+502062097
3408+501246963+501354321+501022449+500346639+500277869+500880283+501230754
3398+501024082+501315763+503031221+505202572+505632064+503702405+501307265
3388+500351478+500837491+501913792+503350785+505087896+506473871+507076315
3378+507524164+508617642+509870251+509870251+508456514+507466584+508534477
3368+511045321+513083186+513941263+514771457+516841196+519796592+521781896
3358+521349259+519154985+517247886+516765168+517070669+517254781+517623305
3348+518991861+521062084+522494390+522525841+521671091+520735596+519956510
3338+519261738+518890552+519323733+520390054+521096318+520992468+520876824
3328+521489641+522381770+522631868+521848730+519998546+517226232+514363255
3318+512689379+512586799+513064133+513095887+512709399+512365309+512241863
3308+512518272+513377921+514488879+515310000+515813645+516275072+516731297
3298+517045327+517041879+516527469+515663162+515070002+515304375+516368700
3288+517653668+518427855+518565394+518624909+519006015+519552844+520221245
3278+521387485+523064506+524406812+524712857+524460944+524586689+525212389
3268+525671034+525575047+525250675+525036080+524740135+524034477+523129646
3258+522706142+522912693+522871564+521799558+520208907+519214198+519107566
3248+519376596+519773971+520619347+521852420+522456406+521332263+518596603
3238+515821266+514772122+515737980+517405807+518705352+520053586+521960262
3228+523393232+523021079+521371396+520100581+519751653+519379983+517958262
3218+515580542+513250725+511648461+510511314+509514610+509195500+510112669
3208+511504753+511871463+510844517+509512130+508831511+508555042+507862326
3198+506596955+505595079+505701560+506649182+507295325+506939169+505842607
3188+504581530+503698624+503696326+504425332+504652386+503097632+499923951
3178+496705120+494881064+494517590+494660179+494586601+494311190+494067382
3168+493794451+493175646+492172742+491425319+491510057+491821274+491026523
3158+488672754+485655392+483333015+482696095+483770914+485402421+486164027
3148+485617137+484267905+482635460+481007612+479867079+479794680+480632586
3138+481327237+481145877+480409039+479608603+478721706+477809194+477168434
3128+476655263+475856460+474858516+474084420+473753243+473932576+474586945
3118+475259369+475224954+474319035+473241827+472673828+472352329+471518143
3108+470073438+468690578+467872904+467551465+467615487+468136218+468836827
3098+468937108+467980081+466497544+465357191+464778971+464526150+464590595
3088+465000219+465353502+465220680+464807942+464672369+464915058+465133645
3078+465013283+464519860+463595947+462117644+460272722+458655912+457860677
3068+458070191+458908248+459612304+459592889+458949347+458252337+457891554
3058+457901382+458095534+457961654+456911694+455172647+453876853+453731905
3048+454205761+454425043+454205368+453832156+453522360+453417149+453563791
3038+453728850+453524023+452777387+451760511+451043088+450954753+451111283
3028+450784220+449804481+448724763+448104234+448033801+448294515+448581387
3018+448638211+448371903+447771304+446755759+445423886+444360135+444089473
3008+444335791+444433139+444312868+444351547+444408945+443865987+442604486
2998+441335183+440801297+440937294+440970439+440288096+439053208+437876777
2988+437141814+436924165+437241975+437885608+438267379+437964055+437267680
2978+436796727+436657464+436304846+435238283+433660667+432320417+431703396
2968+431512965+431144863+430572358+430343973+430695321+431078029+430779211
2958+429793999+428827264+428494182+428735934+429086162+429306049+429480211
2948+429620865+429555604+429168420+428465694+427539574+426728160+426513232
2938+426847796+426851032+425722080+423900323+422716392+422822510+423521395
2928+423753711+423206519+422215983+421148332+420296545+420003201+420385032
2918+421069492+421511262+421427644+420693981+419234942+417459485+416276945
2908+416129850+416451953+416550602+416549725+416928350+417566873+417784219
2898+417132602+415856465+414620367+413961825+413965666+414278909+414349765
2888+413856130+413030412+412326991+411827611+411414086+411288644+411672804
2878+412214613+412311961+411843609+411151437+410536866+410089895+409803174
2868+409635816+409553468+409562752+409610595+409480646+409037969+408565836
2858+408467430+408588790+408341413+407635603+407137613+407375706+408059198
2848+408444507+408041657+406915761+405599311+404723391+404536135+404710781
2838+404692273+404245089+403564713+402955222+402629489+402654620+402768480
2828+402497545+401774769+401076187+400726079+400557270+400424298+400421001
2818+400426778+400111418+399513570+399008141+398692025+398346121+397914512
2808+397524758+397163612+396732729+396229659+395654583+395045063+394671548
2798+394797081+395215263+395402519+395107058+394477699+393706658+392850607
2788+391998548+391390207+391229836+391459521+391859558+392279161+392558745
2778+392375601+391531859+390420085+389814314+389958023+390163424+389664981
2768+388608307+387703688+387191909+386755280+386243288+385902465+385895872
2758+385977313+385783797+385326996+384938421+384707919+384429938+384161029
2748+384178086+384330715+384170162+383701205+383288890+382996030+382636154
2738+382191874+381686294+380954264+379929858+378905694+378263059+378118927
2728+378353905+378780252+379109221+378973194+378291607+377462079+376880622
2718+376474840+376008423+375566017+375372561+375350697+375204388+374840762
2708+374490926+374412540+374549565+374553375+374213913+373774985+373600158
2698+373650874+373616459+373403799+373122824+372769511+372307116+371864983
2688+371573090+371403011+371282498+371151915+370950959+370732070+370616365
2678+370523553+370199181+369599640+369013466+368741624+368796785+368899939
2668+368708389+368135430+367484085+367163947+367228483+367298371+367046216
2658+366605988+366362664+366468449+366732217+366870452+366678720+366093423
2648+365318601+364778273+364684645+364717336+364414375+363821034+363382379
2638+363265162+363219316+363077755+362991354+363162099+363583244+363989601
2628+363999399+363495180+362823513+362402852+362286633+362298276+362342036
2618+362364021+362261956+362009952+361688906+361345270+360996796+360748633
2608+360724107+360873591+360968974+360827291+360502889+360198295+359981735
2598+359689086+359171833+358586203+358329603+358644569+359321680+359879760
2588+360049688+359948227+359772976+359566002+359346176+359228385+359282275
2578+359418665+359478997+359365621+359082922+358724256+358443251+358367707
2568+358463059+358499319+358267214+357857016+357595516+357645748+357796503
2558+357736443+357427706+357098979+356944656+356973446+357086670+357134724
2548+356975683+356652067+356430819+356522633+356828346+357052376+357023012
2538+356883991+356953214+357337222+357763600+357899385+357714941+357428462
2528+357261104+357307313+357479751+357614780+357727431+357960896+358228626
2518+358251791+358017388+357827863+357864818+358031087+358158465+358118123
2508+357879062+357640093+357694588+358046480+358371971+358429914+358295127
2498+358145915+358041158+357956390+357859194+357701514+357464570+357241629
2488+357199169+357422716+357802430+358087639+358120754+358016571+357993527
2478+358057700+358027730+357868659+357789396+357938790+358182689+358304079
2468+358308857+358374935+358563098+358744185+358789548+358691807+358494359
2458+358215470+357873921+357552543+357402575+357522483+357831795+358141953
2448+358326699+358326790+358095472+357705566+357406657+357403240+357634256
2438+357876976+358031662+358219372+358570568+358965010+359090997+358810384
2428+358375751+358190763+358398160+358798832+359143345+359358363+359476427
2418+359553029+359723410+360138810+360734843+361197812+361246199+360916293
2408+360584058+360677837+361259929+361915810+362176553+362016182+361852090
2398+362101977+362777304+363543900+364249468+365267583+367155358+370182155
2388+374471844+380451376+388921218+400760464+416604492+436616366+460468567
2378+487579730+517257623+548474213+579828341+610169918+638800966+664538977
2368+685940031+703397210+718290198+729160441+732319666+727467695+717420206
2358+701889179+678463688+648012454+613830973+580200434+553101610+537727113
2348+536463798+549139771+572002162+596869576+616144944+628054351+633970285
2338+635581681+635121706+634509312+634291330+634364454+634705883+634463042
2328+631600306+624816074+615041607+604373560+594067081+583729636+572228733
2318+559377843+546341692+534364846+523744278+513884650+503904510+493444313
2308+483036132+473404950+464592622+456147366+447910839+440176262+433218776
2298+427034387+421481293+416472699+412025149+408139792+404654471+401354561
2288+398285154+395746458+393847584+392284151+390741826+389314631+388296062
2278+387741732+387480475+387395677+387469648+387618951+387614808+387209661
2268+386403116+385563547+385095376+384952393+384680551+383993702+383130998
2258+382597294+382654813+383076745+383362075+383199617+382698543+382203305
2248+382015021+382261944+382858037+383530370+383980759+384085032+383920759
2238+383592063+383093741+382423979+381752463+381303435+381087932+380902218
2228+380580719+380143788+379724276+379417776+379187395+378914918+378550083
2218+378136226+377699234+377261879+376972043+377026447+377429780+377969534
2208+378435376+378762016+378992397+379200823+379435982+379696816+379978668
2198+380305551+380675406+381058780+381499219+382075504+382705226+383165232
2188+383410613+383720227+384387388+385335041+386171495+386639212+386893393
2178+387258471+387806933+388303260+388515586+388465718+388375204+388442159
2168+388682339+388955784+389149209+389323250+389618923+389991470+390167476
2158+389991893+389699880+389656695+389924696+390288503+390602745+390876341
2148+391085946+391173163+391253031+391649408+392635407+394147914+395812233
2138+397341130+398883032+400827056+403311287+406133288+409103865+412264451
2128+415769490+419723557+424128678+428900660+433905534+439007725+444173756
2118+449515915+455027245+460309254+464883970+468706909+472065759+475166376
2108+478082760+480851384+483477449+486063050+488836240+491907553+495233591
2098+498787802+502468938+506071990+509614467+513282720+516881840+519812620
2088+521608793+521993286+520510960+516689564+510585043+502781607+493885206
2078+484336826+474676310+465577925+457471165+450391955+444280025+439187814
2068+435128839+431902598+429198177+426847282+424938731+423645023+422930443
2058+422490941+422033505+421564155+421329116+421501433+421985723+422519368
2048+422949162+423443734+424396316+425999064+427957090+429817648+431574990
2038+433767783+437057561+441881287+448291128+455856562+463891892+471981808
2028+480094284+488167990+496037838+503788049+511648098+519517462+527020961
2018+533901906+539929674+544595175+547326663+547979580+546966001+544920031
2008+542195863+538709120+534325169+529218260+523730366+518086850+512397728
1998+506873968+501962300+498125329+495389819+493248317+491120423+488813438
1988+486538116+484690381+483588194+483216403+483226503+483255898+483248308
1978+483473275+484205759+485420354+486910028+488614720+490611275+492843532
1968+495064087+497045066+498800232+500561476+502458596+504340171+506109520
1958+508028474+510334824+512769338+514843916+516455554+518001810+519990683
1948+522683461+526007080+529595131+532858811+535312135+537100567+538910832
1938+541186638+543794800+546463929+549160033+551923576+554621193+557032239
1928+559136272+561248471+563692964+566325501+568743745+571008422+573543338
1918+576205995+578213618+579310180+580139044+581268267+582662891+584048383
1908+585211417+586005744+586481143+586936340+587690023+588942814+590755983
1898+592911366+594869211+596098535+596629397+597191287+598444985+600044164
1888+600962663+600902845+600558514+600580893+601119376+602031162+602922081
1878+603272340+602849743+601841002+600808068+600705307+602236261+604601158
1868+605564779+603951870+601017703+598559964+597326588+597077094+597078727
1858+596626735+595516383+594032122+592546168+591356643+590706023+590620016
1848+590916868+591418215+591708716+590927392+588723441+585898688+583385183
1838+581549575+580363558+579649613+579353668+579592577+580134507+580174971
1828+579260402+577712392+575631041+572817961+569848835+567839156+567045736
1818+566597434+565717704+564699528+564307354+564645758+565003759+564700193
1808+563843023+563132647+563194763+564178343+565642826+566718642+566764005
1798+566158446+566172296+567899216+571120800+573788477+573778013+571876176
1788+570653082+571349487+573344408+575503179+577386811+579035707+580374808
1778+581478144+582997727+585833548+590175161+594605322+597033062+597132376
1768+596086015+595073524+595212696+597142295+600011321+602071686+602975427
1758+603731650+604652206+605566291+607200126+610541588+615063805+618554962
1748+619647291+619342031+619258746+620063718+621597515+623451570+625247562
1738+627222705+630468603+635449646+640028233+641465438+640777017+639953113
1728+639210499+638623145+638893143+640289521+642612322+646186100+651509116
1718+657521279+661229088+661221890+659352048+657511238+656337197+656233831
1708+657876013+661298220+665077580+668099146+671466433+676473424+681391504
1698+683488581+683173040+681724525+679830732+678758423+679580633+682046840
1688+685434511+690245898+697134767+703131930+703780008+700551167+697654560
1678+697516538+700588062+705240136+709071936+711881870+714700332+716744063
1668+716711644+716294370+718233162+722678021+726815624+728032246+727411203
1658+727875836+731247418+738093041+746771671+751290440+749631262+747301626
1648+747102636+747436746+745766136+742651185+740161812+739239684+740272618
1638+743348436+746954936+747668215+744505543+740756363+738965210+739238837
1628+740379673+741411942+742655721+744573708+746377562+747396585+748561312
1618+750754740+752875527+753228023+752675690+753135182+754941697+757092847
1608+758610434+759259178+759329399+759459922+760354047+762070745+764043650
1598+765959278+767766338+769030923+769419407+769581926+770530184+772504359
1588+775006796+777343327+778996275+780140196+781510083+783281095+784932774
1578+786395139+787876134+788459677+787398860+785940426+785560227+786173226
1568+786574472+786168327+784846524+782773217+781505910+783615084+789575715
1558+793927308+792689396+789787951+788228086+788119337+788899935+790087948
1548+791514568+793695415+797330160+802404589+808327902+813934948+816493150
1538+815001752+812604012+811671480+811946135+812188310+812365284+813689990
1528+816801978+820961960+825054987+829173114+833670654+837254170+838921876
1518+840180231+842126101+843749957+844537087+846371606+851852907+862198034
1508+876083189+887016758+887376029+881341488+876989411+877114551+881469168
1498+888245235+894209676+896862051+897194165+897831538+899889423+902586495
1488+904951392+907346169+910439830+914041854+917624280+921321989+925780395
1478+930837587+935447262+939534967+944121175+948242448+949260624+948134001
1468+948617384+952295737+956806341+958228909+956471022+954944725+955564377
1458+957222466+956903780+953013130+947382073+943017173+942174519+944722621
1448+947744549+948500530+947067801+945159069+944089663+944588772+947395379
1438+952881458+959201541+962243791+960652354+956935836+953326071+950707506
1428+949542900+949715217+950174285+949959085+949511690+950143983+952315394
1418+954794001+956166004+956541969+956307233+955430588+953630241+950472528
1408+946625668+944111316+943836420+944480385+944924152+945804849+947538785
1398+948978409+949036231+947789307+945815918+944020591+943449326+944735988
1388+947556748+950152027+950815045+950560773+952204528+957056137+963788959
1378+970176481+975128613+978696161+980984124+981969337+981890708+981321560
1368+981147187+982634774+986765724+992504502+996416321+996242795+994056202
1358+993439695+995717799+999477745+1002292517+1002891786+1002330320+1002408827
1348+1003341963+1004419171+1006658445+1011971179+1019196395+1024477072
1340+1026320967+1027211644+1029774564+1034039122+1039126132+1044703540
1331+1049200838+1049262410+1043717058+1036639784+1033460297+1035702534
1322+1041295910+1048273629+1055592836+1061129358+1062636965+1060917061
1314+1058926555+1058335996+1059031433+1060822949+1063662399+1066703742
1305+1068894206+1070177541+1071033259+1071822566+1072915984+1073741823
1297+1072896629+1070157945+1067052005+1064250055+1061051818+1057825033
1288+1055462071+1053184148+1050021718+1047082833+1045043820+1041997759
1280+1036816153+1032104986+1030804111+1032298533+1033330620+1030905965
1271+1024388404+1015854934+1008819938+1005566237+1004623605+1002181047
1263+996518599+989947630+986066295+985916720+986574778+983634321+976153987
1253+968150592+963969683+963537832+963140033+960038388+954068503+945112376
1243+932903879+919323741+907568445+899081063+892986825+887831711+882784741
1233+877568054+872140584+866642590+861465823+857337232+855146284+855011467
1223+855369346+854087282+850860920+847356154+844937849+843664131+843362924
1213+844005499+844985812+845556775+846056791+847716937+851238638+855996256
1203+860499481+863802535+866635332+870401386+875125738+879519791+882878611
1193+885809269+889428893+894437215+900212585+904360712+904699056+902475085
1183+901567714+904108134+908527650+912068585+914219009+917279828+923866401
1173+933989010+944928204+954367412+962490684+969945314+975899775+979618531
1163+982282096+985117312+986960117+985837608+982560380+980754045+983072310
1153+988838850+995346613+1000777894+1004847998+1006898201+1005480230+1000387232
1143+994035093+989945876+990151822+994376703+1000960191+1007569263+1011898841
1133+1013810779+1015943723+1020155660+1024886786+1028175990+1030601976
1124+1032537563+1032430871+1030326656+1028654050+1028896588+1030549235
1115+1032753368+1035524350+1038898715+1042654729+1047156260+1051899362
1107+1053400195+1048818462+1040673658+1033619610+1030051457+1029593235
1098+1030452945+1030440607+1029061345+1029558034+1034638512+1040710311
1090+1042201709+1041141557+1044350439+1052588751+1059034095+1057777856
1081+1050623406+1043809839+1039761328+1035786848+1030002223+1024445621
1073+1020372675+1014895184+1006092442+997365063+992698593+991612071+990940222
1063+988886814+986096658+983803977+982695681+983545290+986107061+988071015
1053+988010108+988393572+992077006+996622751+996675613+992210130+988975664
1043+991491649+998977790+1006395887+1008270447+1003105958+994616156+987639103
1033+984092966+983101463+982984247+982785075+982621407+982483142+981183295
1023+977867600+974536542+974228621+977717480+984540603+993920659+1002253990
1013+1004224476+998247333+988743408+981656819+978191307+974423559+967345317
1003+958384048+949741648+941925268+934986198+929461712+925262840+921223764
993+916770498+912371183+908284991+904338696+900456998+896867555+894011593
983+892116954+890670374+888581099+885366652+881976200+879562552+877732509
973+875169709+871705951+868422312+866085720+864291301+861721849+857616483
963+853236342+850602475+849761878+848976078+847496898+846326546+846412191
953+847751533+849772644+851933350+854645482+859213727+865917879+873003137
943+878895421+884497568+891436093+898959492+904580751+907449535+909474033
933+913005714+918395140+924200994+929406310+934409671+939746659+945145037
923+949578222+951614937+950742405+948331116+946032024+944333653+944116336
913+946920403+951750843+954847226+954408541+951788040+947499168+940785157
903+932786420+926519622+924348574+926775285+932185458+937738310+941938997
893+945506062+948829922+950584967+950235494+949735720+951114317+953635322
883+954475919+952143440+948546679+947349956+950361783+955595768+959657585
873+961908290+964262604+967536505+971100968+974679282+978038949+980346448
863+980667796+979112951+976928415+974681762+971405986+966542764+961881496
853+959996776+961444141+965685957+973099398+983163519+992451821+997070690
843+996061768+991538584+986541815+983210515+982613605+985706056+993002401
833+1001891815+1007025821+1008021255+1009269994+1011784588+1013239514
824+1013825053+1017141293+1023447767+1026862172+1023545750+1017172502
815+1012445066+1010480205+1010844133+1013824025+1019764333+1027005033
807+1031795554+1032648611+1032621272+1035264272+1041485586+1049342732
798+1055318847+1055792068+1048964953+1038521662+1031493500+1029633517
790+1027893049+1022032942+1013744005+1006847274+1002014234+999020975+998729990
780+999606574+997312140+990846292+984034177+979705386+977488430+976069612
770+974361624+971602012+968843489+968766736+972317530+977311214+981011825
760+981873047+980637131+981073397+985808878+992130110+995517660+995367238
750+994641801+995060709+994968109+992854096+989333967+986834736+988425870
740+995026354+1003430027+1009023585+1011182960+1012632141+1013772130+1013265582
730+1012334926+1012300994+1011084977+1007383640+1004664976+1006414818
721+1010481172+1011478300+1007414063+1000999263+996730532+998547632+1006570321
711+1014873410+1016040980+1009219611+1000276488+995481491+996287492+999399782
701+1001841856+1003559461+1004309152+1002170885+997421856+994838251+998814001
691+1008961529+1018527208+1020433400+1014541055+1003561941+992807463+985455958
681+980997370+980049233+984327884+989098142+984232804+971395099+962780278
671+962987978+967060562+969338182+970574763+971543767+971088267+970276339
661+970027027+969411548+968146540+968309542+971462719+975234943+975329962
651+971448626+967735072+965743598+962674009+958607050+958003185+961050032
641+960979811+954650776+951632901+960389736+972344929+970874337+957085532
631+946518068+943906641+939825710+932134531+927727535+929346492+931997234
621+927914065+920812840+921789222+927220322+919543658+898709393+883626729
611+882970969+889594557+894724389+897685048+899860935+901293966+904091380
601+909004380+909809110
##END=
