##TITLE=<SNM>
##JCAMP-DX=4.24
##DATA TYPE=INFRARED SPECTRUM
##DATE=29/4/2025
##SAMPLING PROCEDURE=Instrument type and / or accessory
##ORIGIN=Admin
##XUNITS=1/CM
##YUNITS=ABSORBANCE
##RESOLUTION=4
##FIRSTX=4497.3318
##LASTX=599.83466
##DELTAX=-1.4281778
##MAXY=2.2171514
##MINY=0.5187791
##XFACTOR=1
##YFACTOR=2.0648832e-09
##NPOINTS=2730
##FIRSTY=0.53859699
##XYDATA=(X++(Y..Y))
4497+260836545+260358786+259776446+259333528+258977612+258772866+259189949
4487+260301949+261197426+261116024+260518703+260269071+260489866+260767786
4477+260890611+260819427+260298196+259176873+258023855+257598805+257803781
4467+257949352+257803839+257707109+257962601+258617366+259429911+259909142
4457+259887146+259931398+260620830+261570633+261724632+260688492+259400122
4447+259064354+259568640+259633762+258672038+257631077+257660029+258785452
4437+260145785+260845522+260577531+259818850+259269446+258997991+258415767
4427+257180105+255649839+254345968+253607608+253850023+255359102+257591184
4417+259432480+260349145+260575366+260360749+259889513+259539746+259512496
4407+259510476+259076189+258152423+257299235+257217515+257932610+258836429
4397+259493387+259777081+259519597+258815414+258167722+257802886+257544479
4387+257389065+257349057+256942482+255685229+253891965+252475979+252110393
4377+252652811+253191275+252864312+251835763+251238961+252078843+254271147
4367+256748012+258452657+258966787+258240291+256485650+254449769+252998653
4357+252381068+252351221+252706069+253305700+253996806+254675068+255083779
4347+254823034+253925277+253076707+252959742+253535732+254054567+253822139
4337+252984105+252332602+252380520+252975214+253623686+253832559+253508598
4327+253286129+253894419+255145783+256183540+256564252+256465040+256169280
4317+255911768+255798354+255537320+254773154+253861194+253738197+254811632
4307+256298628+256923632+256152394+254542631+253160014+252908159+253969095
4297+255488941+256228167+255860560+255223375+255233247+255968778+256648656
4287+256279230+254642045+252650647+251422923+251320219+252019725+253031243
4277+254039701+254995421+255837814+256176179+255609802+254377460+253251778
4267+252809986+253037940+253558998+254089841+254556891+254834523+254711814
4257+254280615+254087272+254614825+255620136+256242946+256048448+255716346
4247+256242282+257686182+259181491+259946177+259858223+259237578+258552244
4237+258192605+258111491+257832532+257119891+256456294+256499910+257124798
4227+257434847+256833484+255658239+254758519+254739208+255432450+256022324
4217+255931570+255441658+255223317+255653072+256679946+257834956+258336328
4207+257732136+256508714+255662251+255721831+256479271+257428410+258055145
4197+257954779+257139693+256121681+255464174+255384013+255799422+256428785
4187+256862436+256977640+257269820+258257582+259548954+260151818+259861716
4177+259574125+259954375+260584719+260702203+260118333+259147026+258158427
4167+257468360+257324666+257810882+258736004+259533366+259608620+259048304
4157+258519828+258306856+257992882+257268435+256487296+256132823+256163132
4147+256136806+255794370+255343774+255239309+255769777+256765101+257703905
4137+258195202+258247883+258031418+257589683+256984914+256588240+256870375
4127+257739353+258383408+258196068+257601460+257423358+257799653+258269907
4117+258551927+258740277+258958618+259093277+258865612+258255099+257752977
4107+257897971+258626430+259289219+259306712+258803724+258531836+259040713
4097+260035142+260722813+260622129+259874243+258969905+258256196+257696545
4087+257262489+257296233+258002840+258911134+259365656+259244996+258863130
4077+258538937+258485824+258753959+259034651+258792004+257920948+257083174
4067+256976774+257452715+257830627+257845319+257706763+257543873+257370736
4057+257301602+257402026+257561279+257658355+257692879+257736639+257842981
4047+258047813+258420645+258940231+259353186+259440072+259299928+259090275
4037+258738833+258270254+258115071+258671749+259670739+260220692+259664793
4027+258441024+257751188+258157879+258960494+259273371+259204959+259533857
4017+260582814+261781671+262291500+261865180+260986936+260307636+260171793
4007+260527363+261010375+261263875+261277442+261248403+261243178+261242774
3997+261300766+261446163+261667305+262078816+262809671+263612114+263881345
3987+263344642+262600711+262583623+263454881+264370737+264497920+263972706
3977+263605013+263842319+264257352+264053271+263007980+261772001+261214832
3967+261653045+262709940+263807997+264708006+265515760+266300623+266950769
3957+267330066+267359509+267066809+266698683+266563013+266640056+266621034
3947+266517694+266942253+268295283+269792267+270061181+268901466+267417790
3937+266504618+266421628+267299497+268905594+270270257+270534322+269983128
3927+269630532+270073536+270858976+271069351+270728618+270812935+271673542
3917+272336938+271740511+270052781+268279753+267237580+267122030+267841829
3907+269735286+273350418+278090800+281825379+282851792+281318062+278167814
3897+274441317+271595662+271094897+273199074+275898408+276342106+274792701
3887+274193186+275959460+278528176+280079803+280826794+280980851+279864579
3878+278189896+277756418+279003568+280785111+282176735+282964138+282737599
3868+281853350+281881495+283327357+284433728+283561459+281360293+279319187
3858+278471223+279969679+284796890+290549135+291381223+286716499+280847346
3848+276884322+276032577+278145299+282077580+286490190+290445565+292897432
3838+292634781+289999529+286943702+284738552+283371493+282520758+282214982
3828+282573207+283483060+285080006+288025104+292015579+294541545+294136586
3818+292719820+291597601+289505808+285882650+282568878+281557244+283550808
3808+287417997+290418344+291365982+292180086+294363385+296438379+296665062
3798+295837969+294858174+293502778+292143946+292014223+293548068+295846195
3788+297991709+300034315+302290991+304757522+307662612+311349736+315185086
3778+318111334+320667724+324522242+330512082+338287393+346768098+354476093
3768+360468128+364748965+367548261+369521763+372072351+375922827+379962028
3758+382846479+385219282+388895437+394913479+402367859+407951499+409547637
3748+410042023+413335388+420047886+426538838+429563346+430763618+433056116
3738+437997317+445344200+452444280+456212777+456674487+456293284+456938465
3728+459056094+462087992+464719808+465756728+465104763+463532844+461999806
3718+461166535+461368914+462885151+465308845+466432911+463945164+459255644
3708+455784004+454933471+456115095+458000931+459164110+458994898+458238526
3698+458019607+459159520+462311933+467620280+474144976+479817177+482457105
3688+482093279+480900917+480092702+479849911+480892026+483899157+488411469
3678+493339335+496873787+496756707+494445706+493737280+494778934+493520151
3668+487640058+480163712+474703819+472306162+472140270+473190237+475397149
3658+478750987+481684308+482592976+482874245+485205222+489792644+492919510
3648+490524451+483846419+477123414+472997615+471606916+471439147+471076823
3638+470551782+470841855+472587807+475743885+480137415+485383440+489611135
3628+489683473+485503464+480929696+479663986+482830658+488140823+491428761
3618+491209265+490141170+490793423+492986767+495112796+496376833+496994331
3608+497011131+496330128+495531755+495468597+496379892+497886748+499562008
3598+501392508+503323981+504455292+503946964+503169433+505216139+511353542
3588+518066935+519722103+516000831+511532510+509638390+510338791+511869721
3578+512918591+513677475+514834823+516320549+518047768+521171170+526684666
3568+532320958+533470166+529662816+525537883+524278985+524813407+524593276
3558+522889728+521005595+520604475+522514703+526060817+529353085+530991685
3548+531201251+530518284+528541896+525393554+522434802+520514702+519280975
3538+518592928+518939838+520040956+520685762+520401779+520224774+521327334
3528+523349273+524734604+524649969+523808991+523207426+522667346+521256613
3518+518656029+515730473+514044072+514421637+515889005+516481448+515355390
3508+513805466+513654498+515034633+516422908+516764507+516632185+516994106
3498+518061970+519529048+520901505+521683539+522062490+522766991+523850327
3488+524583866+524544782+523774005+522024445+519132489+515933862+513787396
3478+513401979+514501538+516081482+516861380+516164385+514509967+512959985
3468+512172467+512225811+512536234+511944599+509961976+507801770+507168857
3458+508098569+509036652+509053683+508613016+508074899+506970664+505120015
3448+503263940+502039681+501120072+499903433+498661277+498160166+498261370
3438+498020224+497128731+496113807+495228779+494277245+493485685+493557446
3428+494660353+496094929+497170182+497750559+497779714+497004261+495630939
3418+494438836+493816141+493432803+492726917+491217521+489006915+487276002
3408+487218790+488249878+488530859+487558483+486687196+486719121+486820441
3398+486315230+486064443+487257528+489618467+491524596+491633304+490094638
3388+488190934+487010147+486805084+487472578+489098362+491542088+493987489
3378+495503640+495582790+494067679+491599820+489930334+490381680+492246473
3368+493776711+494302127+494333822+494210969+493847028+493408036+493308737
3358+493615235+493955910+494181121+494673111+495693462+497005416+498178063
3348+498721376+498199250+496927131+496139613+496612205+497602189+497862039
3338+497264920+496810167+497281778+498378565+499105985+498772700+497494808
3328+495837041+494304667+493201529+492663816+492807510+493747441+495192004
3318+496309633+496526242+496418053+497277736+499612465+502448479+504277247
3308+504412859+503331775+501977677+500980881+500456734+500405815+500829624
3298+501305622+501169952+500399522+499585562+498984748+498487967+498399060
3288+499414446+501626264+504000424+505253607+505069616+504173561+503408731
3278+502985211+502528091+501796399+501295981+501780523+503104716+504206642
3268+504356513+503804655+503212212+503026201+503275775+503619048+503816029
3258+504172638+505087917+506206815+506545758+505582793+503777175+501904589
3248+500465336+499743112+499776828+500248034+500830836+501596070+502489238
3238+502841344+502347564+501607617+500930539+499854535+498361650+497439385
3228+497815796+498780493+498781937+497139700+494854678+493544687+493987547
3218+495831268+498000711+499092245+498318524+496402581+494848212+494398308
3208+494554299+494230309+492783263+490757514+489396835+489269998+489814235
3198+490209640+490102201+489464554+488470529+487618928+487414385+487808981
3188+488292253+488414933+487921616+486772350+485486953+484848440+484768308
3178+484264281+482947882+481412478+479975044+478428065+476789407+475194510
3168+473641873+472415708+472062419+472666639+473630153+474179702+473828260
3158+472533250+470695418+468945021+467729162+467039758+466620510+466482069
3148+466873635+467428495+466988579+465040999+462692789+461381355+461314473
3138+461848578+462591066+463309711+463460910+462784467+461904491+461523548
3128+461426963+460888932+459615370+457961645+456617217+456146039+456497077
3118+456951108+456725955+455623856+454100344+452864914+452403349+452632370
3108+452944843+452781982+452294842+452213960+452804209+453292331+452795549
3098+451510845+450394226+449924983+449754126+449393100+448749853+448002198
3088+447319809+446831457+446694892+446988862+447465380+447575590+446946112
3078+445763448+444590686+443968598+444093818+444553074+444579948+443958033
3068+443348818+443335223+443583787+443276856+442025520+440234249+438810873
3058+438465089+439111396+440029734+440583844+440580033+440097569+439345469
3048+438584738+437950728+437374738+436692725+435837256+435063073+434839305
3038+435168722+435340532+434898855+434362585+434285888+434271860+433768237
3028+433087147+432753486+432588806+432166816+431506856+430883988+430520538
3018+430535895+430734059+430570389+429685102+428286551+426858845+425794127
3008+425311894+425351094+425487081+425273878+424730478+424200703+423762576
2998+423233985+422722251+422521662+422505872+422289898+421858266+421419823
2988+420902719+420118030+419191666+418509364+418348321+418632448+418965329
2978+418933605+418429492+417617437+416648352+415548938+414474579+413946363
2968+414411074+415460089+415998611+415458559+414413037+413742310+413635477
2958+413606063+413149780+412261231+411414797+411045141+411093924+411150761
2948+410932939+410543597+410329585+410491667+410773311+410619341+409769501
2938+408553064+407487307+406809825+406479398+406415027+406610651+407015668
2928+407355592+407209069+406383246+405123539+403880257+402978112+402418230
2918+401865535+401062487+400312234+400129657+400444613+400730154+400867325
2908+401212185+401746002+401772385+400750735+399109220+397845703+397461903
2898+397643267+397900115+398027241+397872375+397300485+396548125+396103359
2888+396129714+396347594+396469263+396440773+396312291+396092737+395702874
2878+395092073+394506269+394412859+394918358+395528698+395731913+395518075
2868+395142819+394762193+394441984+394174225+393840737+393396087+392957644
2858+392572025+392154047+391715459+391353106+391001548+390507393+389955536
2848+389639137+389650164+389661999+389246590+388396375+387543561+387006368
2838+386694414+386489553+386510856+386722587+386679491+386048454+385123216
2828+384457800+384195063+384053130+383756619+383214057+382514579+381974239
2818+381909059+382189116+382319994+382077925+381714821+381440162+381080494
2808+380403098+379523238+378820643+378570145+378734074+379033124+379177309
2798+379077462+378849422+378609027+378349465+378037598+377668346+377182274
2788+376542635+375931342+375611422+375594911+375678910+375719496+375636651
2778+375298083+374638584+373793132+372974294+372301864+371788946+371435108
2768+371287026+371334539+371373595+371138742+370630530+370158833+369989217
2758+370060285+370104651+369932899+369512612+368866479+368034218+367128061
2748+366350645+365929665+365950362+366163912+366121739+365684132+365210992
2738+365099223+365352377+365660664+365660607+365157042+364329601+363600276
2728+363161025+362863764+362591703+362401997+362299205+362170810+361933388
2718+361579637+361151585+360723562+360331390+359928249+359485072+359086550
2708+358818328+358585467+358196442+357660778+357244301+357139258+357230012
2698+357276140+357171472+356956248+356743882+356675586+356782014+356858595
2688+356619124+356046858+355511858+355386696+355583705+355672352+355442060
2678+355096449+354838446+354560468+354089088+353534229+353189368+353129038
2668+353103059+352902470+352638752+352511713+352493066+352410452+352156894
2658+351701246+351122428+350676479+350539568+350535989+350443041+350354942
2648+350349862+350131087+349480248+348742783+348424566+348558706+348751212
2638+348668021+348334302+348034761+347971458+348055574+348087759+348059442
2628+348136600+348365218+348484405+348128806+347290772+346467980+346181919
2618+346420322+346710944+346668742+346316289+345920654+345687014+345639616
2608+345698502+345784782+345823549+345686090+345258500+344650469+344222157
2598+344261761+344686638+345151176+345387270+345370355+345237110+345125139
2588+345080080+345068418+345011956+344829062+344552210+344339786+344235898
2578+344079416+343807355+343620362+343687706+343921086+344138215+344219329
2568+344086546+343743186+343309823+342890777+342509372+342260346+342341257
2558+342763017+343160038+343127275+342716312+342351851+342279225+342371826
2548+342472222+342611644+342846930+343113708+343274578+343207811+342922125
2538+342610893+342453026+342424997+342470894+342645533+342871812+342866068
2528+342555875+342252120+342211332+342354160+342516502+342678671+342885148
2518+343143238+343414000+343619178+343714580+343763941+343846526+343904488
2508+343790728+343495286+343221551+343174904+343354507+343637277+343954398
2498+344238900+344333637+344194042+344075981+344236792+344536160+344592939
2488+344277522+343842773+343643916+343885841+344486800+345057997+345227700
2478+345059210+344902872+344867858+344768415+344563410+344504581+344766019
2468+345171671+345419658+345434120+345357741+345322524+345382508+345530214
2458+345657744+345668164+345666288+345813966+346024773+346062789+345892712
2448+345699686+345612453+345598164+345605785+345650325+345718218+345737038
2438+345728840+345851289+346195890+346679307+347150484+347435131+347375436
2428+347043825+346769888+346789141+347036118+347376129+347799533+348248282
2418+348491102+348389147+348138996+348069054+348321717+348846412+349507815
2408+350092407+350411057+350478719+350482212+350611588+350957315+351418418
2398+351719634+351679366+351404851+351158828+351165149+351498810+351980754
2388+352274349+352193842+351738887+350825080+349287742+347163676+344679912
2378+341965193+338987332+335742520+332347634+328982134+325814624+322882660
2368+320056403+317358570+315220822+314048608+313715698+313944691+314966600
2358+317267008+320832837+325279393+330595101+336754500+342602465+346309477
2348+346887863+344852011+341892480+339828079+339440584+340389752+341845775
2338+343056582+343778287+344150368+344300788+344451035+345101816+346580412
2328+348531023+350201347+351187462+351807328+352814862+354711985+357241703
2318+359610090+361254405+362272475+363110163+364061871+365171734+366419577
2308+367799077+369238156+370526468+371397496+371739499+371703618+371584345
2298+371599037+371714847+371676456+371357776+371085225+371354543+372214313
2288+373192982+373830889+374013292+373814117+373349810+372835420+372526209
2278+372518098+372724287+373050731+373475203+373955791+374382486+374652469
2268+374729599+374626230+374393542+374130834+373946063+373893441+373940521
2258+373973082+373884146+373704600+373573492+373541422+373500057+373339361
2248+373085283+372873668+372848525+373046026+373335348+373530077+373583595
2238+373652382+373975651+374654605+375493967+376138772+376429596+376500173
2228+376477311+376259634+375691005+374847891+374057226+373626749+373576898
2218+373646609+373563475+373276433+372922480+372645194+372491657+372436407
2208+372431327+372417731+372342593+372229959+372211138+372385488+372663697
2198+372862265+372951144+373070937+373314882+373649178+374027581+374422754
2188+374774196+375059535+375367794+375756704+376140533+376467439+376869858
2178+377480631+378225024+378921644+379492091+379980906+380442125+380863451
2168+381165792+381273087+381227363+381213334+381391899+381698339+381902651
2158+381922684+381963587+382227017+382608912+382862990+382962375+383102201
2148+383390254+383715514+383934837+384062857+384209554+384388926+384499021
2138+384515186+384597309+384916767+385453355+386039361+386530398+386869428
2128+387048223+387092475+387103819+387269307+387737742+388469954+389280219
2118+390015432+390624358+391104715+391500235+391924534+392503901+393295086
2108+394244167+395186204+395936197+396453560+396876791+397359919+397926181
2098+398498043+398995921+399398341+399785576+400292576+400925576+401481042
2088+401758731+401798624+401806187+401926500+402168021+402463174+402753622
2078+403062401+403462308+403949680+404434973+404868596+405263827+405626556
2068+405968241+406293732+406527661+406643645+406863574+407442912+408265444
2058+408917553+409159074+409137800+409202315+409634062+410479630+411548129
2048+412568826+413360501+413925926+414446118+415093377+415828475+416506505
2038+417136474+417854715+418690439+419511183+420197902+420815804+421579364
2028+422624164+423866436+425128336+426323354+427521663+428919522+430638253
2018+432449153+433924863+435016628+436180124+437740584+439438850+440834226
2008+441947756+443176605+444692294+446308811+447864220+449344115+450732563
1998+452102739+453713195+455748874+458099335+460454992+462479037+463970710
1988+465003762+465825053+466623685+467469686+468397811+469467176+470732857
1978+472145611+473557844+474948082+476525227+478506089+480937634+483716176
1968+486560070+489057430+491005703+492623923+494317137+496361418+498768543
1958+501313935+503705472+505774924+507567090+509317344+511306664+513660213
1948+516315815+519208695+522365409+525644052+528465979+530253758+531216434
1938+532181882+533713967+535857950+538538550+541639784+544788992+547573452
1928+549975611+552357161+555017035+557795952+560259770+562435333+564881311
1918+567778809+570543870+572700266+574482041+576261795+578033004+579607060
1908+581024605+582547222+584169311+585426477+586063373+586633417+587933073
1898+590058063+592329749+593921933+594536314+594669559+595074605+595940407
1888+596900429+597771254+598686995+599572369+600115509+600231723+600207302
1878+600462996+601243991+602427030+603784014+605439876+607544140+609334574
1868+609405989+607586573+605331802+604048368+604153728+605092851+605659257
1858+605030096+603660873+602474254+601579355+600652818+599934866+599908541
1848+600618121+601814958+602848876+602402552+599979262+597012544+595063001
1838+594336908+594069611+593610759+593128295+593228286+593800465+593691756
1828+592308793+590565294+589236483+587875226+585950161+583850285+582129129
1818+580709390+579346055+578318199+578054134+578342446+578436030+577896527
1808+576975879+576220055+576055000+576589538+577547654+578490413+579162872
1798+579596207+580098011+581189141+583030668+584561655+584234778+582400988
1788+580961504+580949150+581867489+582839402+583702492+584578975+585276028
1778+585926376+587513595+591116459+596616619+601817498+604065630+603536287
1768+602169142+600998920+600525000+601386935+603350218+604936859+605462334
1758+605905656+607036678+608788605+611371754+615242667+619706023+622733937
1748+623257102+622424899+621994913+622882596+625034027+627705275+629833728
1738+631231414+633191695+636722972+640216031+640812168+638924860+636761652
1728+635474061+635487975+636698378+638390784+640339115+643686863+649598477
1718+656792890+661010829+659892276+656030254+652614210+650921515+651048409
1708+652776147+655709958+659128774+662809519+667717986+674116568+679159435
1698+680141567+678332370+675526204+672729217+671198113+671494392+673033405
1688+675557610+680104792+686708956+691114234+689334365+684382541+680711206
1678+680475257+683911277+688759992+691760426+692830426+693989506+695064297
1668+694375558+692850516+693085080+695739297+698731879+699541682+698377753
1658+697680238+699942687+706632121+715902106+720327763+718195384+716739851
1648+718931694+721658710+720322278+715734106+711843738+710464642+711647854
1638+714988732+718843769+719404863+715515245+711527368+710797928+712952765
1628+715744498+717716787+719143685+720185743+720250345+719886808+720895555
1618+723846570+726400449+725661656+722810170+720899307+721055414+722575721
1608+724209587+725276296+725923181+726447558+726838921+727207250+728128764
1598+730090315+732737835+735048086+736428394+737431887+738937357+740851280
1588+742448890+743933693+746493749+750413214+754318708+757162169+759971915
1578+764379906+769651507+772584741+772750431+773075865+774496527+774936732
1568+772679940+769003006+766056840+765186996+767401701+773306676+780854812
1558+783433977+779392121+774458309+771314643+769461281+768032247+766932573
1548+766974775+769109579+773299748+778594326+784352836+789372841+789758547
1538+784861856+780248975+779476409+781744112+783824821+783760739+782830623
1528+783206283+785910669+790541505+796397061+803166107+809950164+815440683
1518+819439472+822113606+823606779+825331630+829219401+835651986+842930804
1508+848065233+848209101+844788495+842903843+844564785+848980166+854762577
1498+860484600+865031147+867981643+869930667+872317066+876575070+882584713
1488+887754474+889636760+888958816+888660170+890916672+895049918+898437559
1478+900215869+903026308+910146883+920895608+928932501+929660440+927342569
1468+927739359+932025710+937637754+940908834+940797354+939982586+941655305
1458+946043668+948842329+946828242+943136760+941111473+941474143+943417220
1448+944724325+942967028+938325801+933520846+931033417+931752465+934882680
1438+938206065+939459594+938947167+938872289+939723717+940230486+939818051
1428+939453013+939859156+940527170+940838575+940802550+940615499+940470535
1418+940568275+941182829+942532597+944055271+944459682+943344882+942390346
1408+943507051+946280137+948586809+949382525+949735728+950839732+952117451
1398+952037377+950206184+947917236+946966914+948132460+950632995+952764970
1388+952978462+951133702+949015120+949096811+952641193+959113787+966838351
1378+973542622+976971887+976548251+974527294+973717202+974981066+978143495
1368+983076902+988593401+992117000+992636585+992722836+995249985+999363949
1358+1002229521+1003131176+1003475141+1004048187+1004280384+1003844394
1350+1003677433+1004735425+1006141193+1005657978+1003057741+1001603017
1341+1004427484+1010757076+1016866479+1020303365+1021808316+1023390166
1332+1025877133+1028289050+1029067389+1028176473+1027464756+1028510278
1324+1031019645+1033683503+1036178438+1039101049+1042115570+1044180518
1315+1045321875+1046477318+1047829280+1048318498+1047179105+1045340118
1307+1044665465+1046807774+1051310272+1054765632+1054909153+1054058649
1298+1054869434+1056078798+1055882279+1055219404+1054428825+1052152578
1290+1049183782+1047483813+1045792504+1041753592+1036561199+1032876414
1281+1030559870+1027130258+1021233885+1014704772+1010839633+1010969529
1273+1013634426+1016540180+1018334482+1018513797+1016775379+1013124308
1264+1008097837+1002225365+995839080+990145114+987121934+987396391+989086199
1254+989762122+988799849+986101122+980769365+973557401+967441416+964236093
1244+962169701+957822559+950382727+942710007+937499717+934129570+930205601
1234+924813572+918733266+912490560+906124135+900205478+895486774+891603853
1224+887500454+883373444+880700060+880022174+879983782+878797511+876002891
1214+872550821+869574404+867536127+866521954+866890051+869057763+872690763
1204+876483276+878930813+879602637+879519273+879803082+880392119+881215489
1194+883776065+889286386+896144396+901073070+902569304+902600652+904272563
1184+908166569+911982463+913709797+913802745+913842349+914993751+918226497
1174+924181641+932183779+940021151+945531241+949259152+954550901+963589613
1164+974456746+983125397+987020326+985583730+980687270+976565571+975849697
1154+977945013+981601972+986463100+991744053+994780280+993881628+991910320
1144+993115181+998658467+1006442091+1013433519+1017347269+1017775061+1017036903
1134+1018265435+1022551670+1028881839+1035267431+1039467530+1040276467
1125+1038703740+1036338008+1033711792+1030978540+1028758755+1027778355
1117+1028863365+1032637635+1037803471+1041683044+1043937468+1046461499
1108+1049083906+1048128792+1040866948+1030585503+1023327353+1021863277
1100+1026065454+1034536663+1044885769+1053765950+1058737807+1058343730
1091+1050464733+1037097643+1027818421+1030448679+1042045714+1052375077
1083+1057296476+1062681692+1070787575+1073741823+1065937878+1052115053
1074+1038805001+1028406130+1021355815+1017001110+1012799625+1007528371
1065+1004152219+1006149160+1011627440+1015052779+1015187756+1015261422
1057+1017222107+1019350561+1019267542+1017313900+1015978103+1017128004
1048+1020135250+1023169515+1025393341+1026374665+1026054139+1025193936
1040+1023704573+1019772695+1013096597+1006849908+1003552386+1001873317
1031+999609193+996823406+994810416+994363803+995605613+997440789+997686957
1021+996772718+998046164+1002240837+1006090966+1007678589+1009387564+1012262027
1011+1012593176+1008567658+1003734588+1000793733+998643110+995384385+989919961
1001+981673098+971841614+962685072+955163319+949447012+945631059+943330738
991+941936401+940664282+938214205+933368377+926611396+920054688+915070765
981+911678563+910276894+911217922+912477917+911106326+907172774+902854902
971+898972501+895433776+892982025+891829411+890422662+887524067+883878827
961+880913263+879330144+878930121+878689841+877689870+876341949+875971196
951+877432097+880712126+885289502+890025063+893351277+894747462+895458255
941+896784410+898595109+900676684+903920688+908951662+914865586+919844660
931+923098305+925683936+929031453+933579963+939208808+945246624+950141640
921+953229941+955622518+957591343+957019048+953174230+949120134+947965615
911+949486154+951058593+951115690+950631898+950513143+949487077+946728078
901+945000109+948346067+957338016+967543890+973058137+973138615+973439166
891+977770432+981797336+978992036+972025316+969533730+973161015+975773953
881+972545595+967560113+966298674+968530352+971431834+974161968+977085387
871+979648099+980834602+980786915+980199899+980163644+982269120+986738826
861+991084987+991915862+988438911+982659156+976815549+971907428+968622492
851+968500159+972173918+977193346+980237425+980201747+979187977+981695382
841+989975499+1001244964+1010624640+1015224704+1015388547+1014652352+1017680843
831+1022583653+1019574791+1005869738+992514425+990411142+1000090330+1014007835
821+1024168736+1028158807+1028166889+1025974123+1022621987+1020230161
813+1020604609+1023169284+1025621613+1025633967+1023465448+1022730985
804+1025968003+1033579240+1043155434+1048138260+1045013818+1040019677
795+1039965293+1043453560+1044040692+1037838341+1027711732+1020185477
787+1018437937+1018447521+1014700038+1007548693+1000931366+996814400+995048386
777+995211882+996504496+997348996+996275532+993468730+991170199+991105770
767+992239391+993396912+996412934+1000933098+1001222449+996715910+995097112
757+999557004+1003447430+1002336556+1000590402+1000541330+1000337191+1000736925
747+1006433085+1020324033+1037058962+1045003888+1037034715+1018382168
738+1001768476+997276831+1006273168+1021105605+1031939427+1035433237+1034233225
728+1030156094+1022237494+1011121941+1001093592+996489948+997653127+1000273801
718+1000110420+998771506+1001299810+1008313176+1015121134+1018440824+1018797144
708+1016444114+1011833888+1008171387+1008053730+1010771047+1015098156
700+1019696027+1020887033+1016086408+1009003648+1005834753+1006950476
691+1006127915+998412068+986367496+977586499+978892160+991702255+1009315399
681+1018167175+1009896989+993908531+986436543+992852386+1002989387+1001438019
671+986728435+970780043+965342752+972865082+983845658+989134463+986505128
661+980118959+978213581+982710768+987145373+985877815+979378030+969696649
651+958239728+951884850+959013276+978091652+995696367+997859922+984723758
641+971667841+972489595+985161942+991805364+978255263+955366015+941873647
631+943874975+956503215+973112982+987440613+990340825+977821813+958712840
621+945259960+935895064+922168939+909469112+905143215+906629519+907459759
611+903005236+895094314+890648855+894866851+908477800+929946501+956164157
601+972965189+957109629
##END=
