##TITLE=<SNM>
##JCAMP-DX=4.24
##DATA TYPE=INFRARED SPECTRUM
##DATE=29/4/2025
##SAMPLING PROCEDURE=Instrument type and / or accessory
##ORIGIN=Admin
##XUNITS=1/CM
##YUNITS=ABSORBANCE
##RESOLUTION=4
##FIRSTX=4497.3318
##LASTX=599.83466
##DELTAX=-1.4281778
##MAXY=2.2416618
##MINY=0.69899333
##XFACTOR=1
##YFACTOR=2.0877102e-09
##NPOINTS=2730
##FIRSTY=0.71338987
##XYDATA=(X++(Y..Y))
4497+341709239+342814219+342400612+341898185+342033655+341885508+340699388
4487+339178545+338424333+338635120+339213662+339604914+339969844+340844680
4477+342136351+343106117+343491488+343940469+344943240+345884627+345810853
4467+344649001+343158450+341932159+341094923+341008045+342243985+344710127
4457+347611432+350163967+351777256+352050253+351258526+350383547+350056504
4447+349802264+348737168+346906926+345475245+345307541+345724346+345286499
4437+343690826+342044933+341396357+341818415+342633810+342903696+342102661
4427+340661216+339548042+339544616+341038479+343643832+345826927+345957116
4417+344149629+342362526+342201731+343070857+343054841+341630440+340496167
4407+341011157+342153310+342232080+341345252+340714348+340803711+341385736
4397+342241930+343016698+343485721+343926651+344665903+345520840+345692627
4387+344229084+341146799+338033423+336670720+337097946+337751546+337459991
4377+336694673+336625154+337578903+338966788+340312047+341507246+342198505
4367+342088215+341946063+342767882+343842028+343455286+341536653+339678060
4357+338520690+337282809+335750888+334813383+335199925+336766991+338711549
4347+339940979+339846193+339177574+339471556+341208725+343004535+343092242
4337+341455856+339834487+339619361+340423593+341032255+341241129+341821698
4327+342807653+343022550+341643117+339242612+337172776+336617987+337749577
4317+339568541+341062262+342099806+342814790+343129956+343446208+344395189
4307+345431420+345257978+343931676+343000595+343306226+343956743+343781359
4297+342793263+341698904+340817186+340048186+339350475+338848447+338748093
4287+339175890+339911002+340427818+340407519+339875942+338954911+338175660
4277+338374342+339486174+340343195+340224912+339685512+339346963+338917196
4267+338011068+337032566+336630921+336995479+338060888+339824551+342059493
4257+344141378+345424911+345537285+344618966+343432760+342664673+342087416
4247+341209067+340612196+341319699+342912660+343719490+343105831+342205328
4237+342038794+342164673+341511357+339816814+337907088+336929214+337663926
4227+340067800+343022208+344918401+344897131+343548503+342347594+342268624
4217+342857016+342868807+341812905+340470215+339838170+340046273+340434699
4207+340277415+339395670+338262368+337557490+337746236+338783981+339959223
4197+340434099+340072225+339384821+338866205+338642314+338580160+338404405
4187+337766079+336604426+335420019+334903060+335281208+336193588+337062943
4177+337518691+337796770+338594293+340095094+341515326+342133381+342279188
4167+342650484+343146230+343052128+342067687+340729252+339935412+340092553
4157+340693992+340891360+340472614+339962963+339763996+339782154+339946889
4147+340431901+341190452+341891846+342388107+342688341+342639891+342096437
4137+341266996+340532312+340176433+340277473+340559663+340631267+340575908
4127+340935670+341897585+342815019+342778503+341659247+340405121+340065144
4117+340742842+341732593+342356701+342329579+341542134+340103173+338690222
4107+338261340+338996280+340021234+340486689+340379140+340091468+339763340
4097+339403749+339318356+339954769+341317216+342771451+343555641+343464908
4087+342744100+341567259+340213834+339281897+338993340+338744895+337948058
4077+336907715+336368144+336609108+337396296+338380594+339144485+339249007
4067+338734731+338396354+339049983+340571340+342025290+342680005+342646058
4057+342563948+342822584+343179805+343120849+342504392+341719546+341157391
4047+340863181+340808107+341147256+341936071+342717205+342830207+342190025
4037+341342682+340762227+340737160+341556552+342942153+343925224+343925795
4027+343389564+343022265+343081621+343637266+344659536+345655940+345964796
4017+345503339+344637695+343539196+342195478+340674207+339162043+338183369
4007+338532139+340293118+342320471+343433388+343556783+342995884+341609113
3997+339587956+338018434+337804907+338707038+339806451+340442122+340582161
3987+340569456+340624158+340751864+341087643+341711894+342159448+342113910
3977+342292835+343298546+344246871+343924681+342584618+341436556+341252406
3967+342064718+343204330+343708813+343380542+342896929+342695593+342659620
3957+342824526+343166158+343027661+342077195+341246982+341478353+342252150
3947+342459568+342094096+342073740+342862983+343893961+344215009+343446693
3937+342116223+341233078+341441495+342466706+343367466+343509703+343306340
3927+343590757+344370122+344728371+344191712+343558924+343841000+345014672
3917+346017414+345702277+344012616+342227140+341767796+342729653+343856988
3907+344305713+344741247+346104064+348143922+349815911+350256812+348982215
3897+346311739+343729455+342966792+344466451+346598298+347186062+346414948
3887+346053245+346479243+346524267+345888196+345595499+345955574+346394563
3878+346902900+347774168+348592247+348885173+349065325+349454379+349443587
3868+349070806+349478732+350806975+351480533+350509939+348850427+347493662
3858+346720864+347461457+351341407+357109642+359136367+356147471+351993210
3848+349225977+348244705+348534890+349631133+351333585+353307063+354821940
3838+355103188+354120603+352597104+351277969+350519960+350212730+350086624
3828+349892083+349361648+348619227+348471936+349523842+351197314+352563872
3818+353581460+354013739+352901222+350334868+347871182+347066864+348702365
3808+351992981+354495125+355112981+355552883+356830193+357223872+355562076
3798+353457009+352336755+351895882+351542373+351360336+351608210+352536492
3788+354568413+357757762+361217024+363828515+365429870+366695217+368278014
3778+370327180+372439413+374205874+376053303+379209305+384306409+390157697
3768+394928215+398065658+400009616+401290380+402459085+403773138+404629218
3758+404325900+403430478+403471419+405715526+410293159+415577667+419329198
3748+421648477+424827462+430115824+435339006+437948442+438867303+440308234
3738+443703201+449451822+456515496+462539484+465945814+467415810+468572923
3728+470457039+473380413+477084437+480658785+482568169+481474409+477722506
3718+473374303+470443706+469764125+471371589+475006578+479551321+482534080
3708+481921620+478445113+475081665+474287112+475788826+477316522+477831054
3698+478251714+479417078+481348502+484027828+487478069+490606377+491033831
3688+488266684+485460937+485202500+487250809+489863499+491241848+491086877
3678+491161336+493258580+496118345+497601416+498771291+500824339+502040922
3668+500422466+496898223+493551734+491533632+490800518+490694711+490742333
3658+490900673+490899074+490331381+489851337+490561667+492298950+493579428
3648+493662224+493078143+491863330+489751811+487357358+486010301+486351476
3638+487476984+487958684+487540937+487303912+488287583+490499827+492926313
3628+494198969+493853396+492313396+490037884+487965536+487688713+489926881
3618+493255497+495739768+496800239+496735829+496309117+496374497+496851287
3608+496805149+496052793+495870129+497535008+500924893+504763246+507958075
3598+510306276+511870658+512399752+511843878+511098717+511472097+513169923
3588+514713407+514831662+514226225+514014839+514209152+514358299+514277102
3578+513694905+512167752+509943859+508302620+508507953+510617074+513666012
3568+516740360+519426596+521355279+522065438+521780507+521201051+520449323
3558+519316278+517888137+516152168+513891730+511556149+510580473+512055379
3548+515493913+518946152+520073830+518070288+514536052+511826634+510950998
3538+511196587+511547184+511864891+512482776+513576022+514885051+515300000
3528+513600803+510298910+507413851+506315408+507075873+509188705+511643627
3518+512967959+512340653+510293029+507860548+505818520+504842101+505394206
3508+507238895+509511266+511126696+511103970+509193045+506456960+504780433
3498+505557685+508439204+511232503+511905832+510617017+508955792+507828286
3488+507094830+506766103+507211943+508271785+508962188+508329571+506411223
3478+504197037+502873048+502897258+503640022+504108874+503879958+503203146
3468+502512858+502101963+502170540+502699748+503014714+502037325+499699516
3458+497701399+497890687+500165399+502502751+503095283+501979368+500180931
3448+498185211+495995065+494057245+493149804+493455120+494423830+495294442
3438+495290958+493864874+491517701+489891079+490005965+490777678+490606719
3428+489994659+490581766+492197939+493045995+492312768+490671243+488841115
3418+487252865+486382425+486474413+487388021+488697793+489461455+488674553
3408+486577765+484519007+483325721+482766022+482494566+482568854+482901693
3398+483088525+483191420+483936867+485583246+487056439+487034569+485547958
3388+483856184+483206952+484079562+486126957+488406409+489849624+489870066
3378+488885196+488038453+488017440+488625960+489637724+491119539+492706362
3368+493714471+494287703+495406758+497488585+499592453+500362282+499636477
3358+498735089+498897026+499802012+500315345+500377356+501002550+502411162
3348+503402541+503114183+502249510+501802242+501667200+501300614+501035839
3338+501552542+502537925+503101221+503142676+503120065+502857802+501899941
3328+500680846+499961893+499385064+498088711+496508569+495897765+496394483
3318+497076662+497462604+497638760+497528898+497282795+497534380+498261269
3308+498608040+498373072+498258528+498592680+499069527+499309806+498889831
3298+497713732+496559617+496157858+496017334+495347145+494564697+494748104
3288+496206508+498417096+500808123+502885667+503952875+503505607+501940711
3278+500373588+499745825+500226611+501217819+501809380+501424637+500176534
3268+498644299+497333729+496437879+496024300+496198913+496956694+497868304
3258+498217701+497828790+497379923+497501547+497854371+497582573+496643212
3248+496063357+496732575+498247908+499237573+498825936+497414526+496075862
3238+495504457+495570351+495621913+495028810+493581883+491635956+490012760
3228+489639094+490855735+492971022+494805890+495843463+496307804+496086711
3218+494836324+493245447+492641895+493308030+494256811+494300950+492814167
3208+490172927+487600378+485874801+484611967+483367747+482568111+482798797
3198+483917567+485207867+486044047+486283983+485892445+484591353+482590266
3188+481052322+480816953+481277869+481347703+480781266+480028281+479514548
3178+479298594+478913565+477727674+475887296+474413704+473956786+473986649
3168+473699034+473234664+473144046+473050144+472071441+470387890+469073608
3158+468558476+468376668+468119830+467750818+467230119+466446700+465480217
3148+464701766+464503342+464792013+464901161+464291270+463117598+461919402
3138+461051588+460520554+460209898+460094384+460067747+459738391+458867094
3128+457917285+457599349+457952116+458334033+458164616+457369377+456262313
3118+455189708+454314329+453731733+453581330+453854927+454290490+454552667
3108+454381565+453672805+452556148+451417650+450677798+450539758+450916878
3098+451360264+451303049+450675315+449937690+449312526+448530392+447578869
3088+447071131+447482483+448451050+449083438+448768072+447731413+446966866
3078+447390637+448796194+449891068+449665778+448419017+447121608+446143048
3068+445011202+443362568+441727581+441005089+441341953+441924521+441805780
3058+440682385+439055278+437959320+438238313+439656032+440972170+441179217
3048+440382608+439400479+438925717+438976251+438860365+438011167+436906472
3038+436547710+437112548+437846318+438128480+437967171+437614690+437254214
3028+436972709+436705079+436207448+435273284+434152430+433578170+433902758
3018+434324331+433731742+432327212+431475673+431932362+433047278+433738822
3008+433632215+433140152+432839975+432890880+432950949+432580796+431642349
2998+430341143+429081591+428225655+427789236+427544075+427484776+427835716
2988+428530886+429148199+429378314+429087958+428121133+426579191+425033852
2978+424074734+423886588+424299082+424900236+425189879+424928729+424253545
2968+423418250+422688620+422347416+422420048+422517661+422208662+421447712
2958+420578300+420078528+420156727+420393180+420085380+419172771+418410565
2948+418411193+418938202+419318492+419168374+418589347+418019855+417945053
2938+418410965+418885613+418875392+418466152+417971919+417390950+416583035
2928+415688385+414972887+414469203+414059964+413741429+413603132+413634023
2918+413692808+413642931+413463521+413229466+412992870+412734719+412520763
2908+412557536+412901538+413330220+413592539+413508145+412949388+412165484
2898+411849604+412307207+412866849+412653779+411631737+410453154+409644154
2888+409278854+409144211+408969769+408651862+408367416+408366445+408600329
2878+408713873+408569266+408537261+408939449+409450155+409481475+408931369
2868+408135302+407388085+406890883+406819850+407119427+407453808+407497261
2858+407179925+406769487+406682009+406940817+406992093+406395907+405437161
2848+404716439+404418974+404301718+404167617+404032118+403957687+403973247
2838+404060811+404073830+403789298+403207958+402674268+402473817+402437758
2828+402187429+401672554+401214380+401070972+401215807+401481324+401609201
2818+401263086+400399184+399475413+398911659+398635407+398487545+398594295
2808+398955941+399182059+398988117+398538964+398134265+397919966+397955740
2798+398257516+398668097+398851647+398584102+397962563+397180601+396306364
2788+395489370+395045556+395024429+395083214+395002274+394891470+394919335
2778+395254972+396021518+396881366+397032967+396059832+394464901+393071963
2768+392245605+391910282+391912281+392034019+391948482+391511692+390936918
2758+390463327+390086064+389749742+389518942+389471263+389624692+389932435
2748+390236124+390335251+390164377+389848098+389612558+389598568+389645105
2738+389375991+388642421+387710027+386926808+386444508+386303756+386488847
2728+386788253+386829537+386429234+385830735+385421610+385213450+384843582
2718+384190923+383676276+383714391+384139219+384417641+384220615+383626199
2708+382984361+382649038+382661344+382751048+382752133+382777086+382893885
2698+382971856+382934255+382855599+382756045+382532696+382145212+381747279
2688+381550910+381572009+381645983+381736658+381982076+382327277+382375413
2678+381781139+380689977+379679784+379252844+379391512+379661398+379723180
2668+379615403+379569751+379695487+379878237+379973595+380042743+380217871
2658+380351914+380098959+379360364+378387800+377473050+376738052+376181751
2648+375797807+375641409+375791269+376214355+376668275+376822275+376597042
2638+376312910+376300719+376467196+376490036+376315508+376169845+376182407
2628+376278393+376384486+376533490+376770599+377039400+377178069+377040085
2618+376644065+376217752+376029292+376121167+376255524+376156027+375784017
2608+375419859+375439530+375845914+376119482+375848683+375358247+375256066
2598+375525380+375571660+375089133+374452319+374197623+374422656+374812281
2588+375088190+375248586+375375492+375397190+375168131+374728800+374371979
2578+374390565+374777735+375232112+375460571+375405926+375179865+374910265
2568+374713269+374689229+374834693+375008392+375067006+374976787+374770112
2558+374529919+374435674+374611687+374874863+374891907+374657653+374498828
2548+374535686+374511276+374252610+373931677+373756264+373715894+373709299
2538+373698050+373716608+373841801+374070574+374214096+374121879+373995915
2528+374181406+374616283+374835121+374624049+374304686+374211384+374255265
2518+374206702+374085877+374037399+374091701+374236708+374474931+374709157
2508+374785957+374690286+374556328+374502111+374505794+374423084+374169329
2498+373885683+373798604+373937159+374135269+374275736+374389594+374526293
2488+374647403+374691685+374683405+374695310+374726116+374720549+374689886
2478+374694054+374739649+374797492+374869581+374953747+374978358+374847883
2468+374578968+374371950+374470591+374901186+375410894+375664905+375461028
2458+374870409+374265115+374046078+374235252+374484467+374539312+374488293
2448+374511361+374616112+374703818+374739592+374786528+374933562+375188059
2438+375401501+375357277+375008193+374567006+374262888+374093043+373944039
2428+373840173+373863185+373921113+373848910+373718921+373820588+374280361
2418+374880373+375372237+375846399+376563781+377448525+378020529+377928026
2408+377377835+376930709+376937476+377240736+377443272+377431395+377498031
2398+377911810+378559444+379164167+379761552+380840523+383050883+386832192
2388+392314154+399561349+408864704+420648648+435013048+451475607+469271290
2378+487811593+506732128+525636046+544041021+561478998+577334436+590744373
2368+601301798+609563155+615889433+619250939+618091970+612271603+603300943
2358+592425183+579569920+564404257+547356504+530109870+515677777+507109334
2348+506198752+512873229+524224408+535070875+542302196+546788011+550018358
2338+552348229+554049539+555934769+558421952+560764386+561998099+562374734
2328+562872821+563654870+563847184+562467808+559146272+554292444+548684205
2318+542737531+536492963+530227954+524385032+518910293+513271219+507136342
2308+500572412+493697569+486594039+479468811+472637564+466382690+460817790
2298+455772933+450916793+446106247+441466917+437127423+433097184+429346195
2288+425818070+422527111+419710144+417589089+416006748+414616523+413302754
2278+412105214+410930629+409658458+408412011+407499917+407074975+406907699
2268+406571434+405885942+405080454+404496459+404239906+404118168+403826099
2258+403225573+402469449+401822357+401414631+401186600+400991117+400767854
2248+400637236+400733051+400985949+401202189+401275506+401227970+401160505
2238+401183146+401265856+401222031+400945750+400565804+400321670+400385138
2228+400730310+401051272+400946264+400332919+399576937+399139605+399172552
2218+399435928+399535368+399265226+398749180+398237873+397835486+397494082
2208+397195161+397000991+396944804+396985917+397076307+397188224+397287264
2198+397364036+397478951+397669895+397862495+398003505+398203413+398578906
2188+399062976+399575139+400199818+400930619+401454316+401501595+401242273
2178+401100207+401326525+401845883+402360501+402599324+402597496+402664532
2168+402993945+403439129+403739364+403832466+403896418+404142721+404565693
2158+404906184+404945897+404779763+404666476+404718894+404879632+405096300
2148+405374636+405686062+405909696+405922116+405770714+405675213+405795667
2138+406107492+406521043+406942616+407224036+407277938+407252757+407420490
2128+407902475+408592163+409281224+409817197+410186409+410443875+410585485
2118+410587826+410569953+410772232+411309433+412018079+412614494+412970715
2108+413200744+413538294+414169397+415098765+416121806+416976657+417531646
2098+417821688+417981141+418143934+418318890+418396804+418353522+418351809
2088+418552574+418921729+419314295+419693842+420165092+420778694+421411367
2078+421917021+422300023+422618158+422815412+422806390+422688991+422750774
2068+423202382+423934553+424623156+425068483+425309304+425435211+425517036
2058+425707323+426158303+426794031+427347078+427682829+427959824+428409776
2048+429085303+429887051+430702874+431446951+432093985+432715981+433374492
2038+434026637+434661195+435400989+436322448+437304577+438190948+438995808
2028+439849317+440825422+441904821+443040921+444221702+445519311+447032788
2018+448675512+450123181+451178113+452068452+453143740+454449914+455854786
2008+457399355+459195023+461062951+462604979+463687918+464651803+465936593
1998+467614434+469428488+471228895+473080550+474884811+476301617+477265160
1988+478171716+479338165+480635659+481758141+482572166+483218886+484076878
1978+485501649+487455229+489518498+491307285+492786188+494239795+495992552
1968+498108126+500396656+502682503+504900230+507014547+509084383+511296456
1958+513758058+516329465+518688343+520550562+521972022+523401647+525237713
1948+527484960+530061963+533115926+536630005+539974095+542438039+544084303
1938+545498111+547023208+548721834+550739252+553243508+556163799+559251451
1928+562243745+564930952+567241409+569247806+571153421+573290065+575776277
1918+578112487+579686177+580798095+582431397+585028728+587951987+590115868
1908+591184446+591913163+593079212+594588378+595982658+597230704+598544415
1898+599911743+601195762+602402695+603711724+605248242+606710128+607489664
1888+607543339+607636698+608314709+609256297+609822334+609828158+609639726
1878+609755069+610446385+611672047+613173905+614706196+616181959+617339614
1868+617406993+615960866+613962348+612920093+613378210+614599533+615450330
1858+615368962+614556593+613521247+612624198+611995864+611578574+611160770
1848+610649377+610260751+610118343+609867443+609166877+608127534+606856534
1838+605298947+603592441+602133923+601297344+601168011+601280100+600800570
1828+599554066+598306706+597644054+597332799+596872684+596115588+595132546
1818+593925042+592515630+591170685+590301673+590032901+589945594+589402397
1808+588211281+586882495+586197860+586491471+587283169+587769323+587740316
1798+587666142+587964835+588745227+589891577+590770925+590522652+589380299
1788+588610128+589078466+590621892+592458587+593900831+594690760+595060828
1778+595595917+596774357+598740784+601372317+604028347+605667245+606031660
1768+605932591+606283017+607492577+609386314+611297811+612617974+613626826
1758+615035895+616884181+618752052+620693241+623080498+625578359+627012781
1748+626861464+626052750+625881392+627037163+629434527+632196078+634061894
1738+634979156+636557186+639789873+642937652+643631994+643003718+643105299
1728+644098277+645340898+646531615+647608987+648788398+650861717+654629892
1718+659598721+663340802+663969478+662498284+660819072+659973985+660245612
1708+661317902+662275478+662397444+662409150+663906382+667521814+671889431
1698+675128114+676693467+676371991+674752792+673727781+674326080+675885723
1688+677696666+680607363+685580131+690238561+690803057+688593496+687081589
1678+687561690+689289265+690782044+691482553+692242103+693720778+695362931
1668+696356879+697142811+698773715+701340839+703522877+703975799+703304925
1658+703493642+706228185+712351870+720680434+725799836+724970680+722204675
1648+720232424+719326410+718842027+718193251+717617564+718063404+720442497
1638+724939446+730696718+735452847+737233697+737102137+737447881+739891668
1628+744621587+750279904+755386915+759733633+763852806+767849670+771715088
1618+776033998+781070490+785474252+788070497+789864252+792491217+796147648
1608+799308331+800665382+800650707+800314613+800036248+799791059+799806476
1598+800524229+802110481+804101004+805740645+806925537+808147431+809585279
1588+811225605+813483758+816725867+820186442+822649644+824152472+825880104
1578+828620643+831611852+833241729+833700931+834615224+836399500+837979928
1568+838451578+838507593+839599697+842648978+847652752+853751542+858950199
1558+860696903+859935468+859063144+858302051+857723623+857721682+858102771
1548+858724766+860296115+863686857+868600468+873367046+875764639+874037920
1538+869601497+865650657+863060179+860809962+858490026+857519375+859193961
1528+863068858+867395305+870646779+872950613+875112095+876943365+878341642
1518+880376760+883145963+884992993+885076531+884736098+885401262+887408173
1508+890897413+895390765+898480073+899363361+900232259+903226095+908966065
1498+915447086+918734190+917453540+914617530+913540500+915870600+921333005
1488+926773197+928758468+927308800+924652713+922796890+922878201+925373950
1478+930470169+937677222+945283123+951640635+956337779+959138158+959550652
1468+957256354+951978270+944394810+937704345+935552741+938459956+944056604
1458+948678033+949258916+946813587+944608652+943781836+943849558+943585011
1448+941516374+937820602+934778459+933753333+933519678+932478051+930775257
1438+929468969+929391027+931134819+934304981+936973116+936863540+933758644
1428+930638387+930511567+933107013+935873875+937705944+940234868+944232302
1418+946482176+943977463+939272382+936627373+936997898+937996129+937554114
1408+936309666+935575924+935615438+936762244+939378417+941947197+941913794
1398+939157667+936477313+935661404+935532242+934752421+933970886+933672879
1388+933036094+932339754+933746824+937874048+942476805+945708807+947894271
1378+949884852+952051302+954763404+958150434+962057935+966736179+972026197
1368+976007129+976613080+975053551+974351215+975276243+976191107+976322438
1358+976935127+979096266+982286128+985354709+988315598+992313204+997205232
1348+1000701153+1000641197+998401145+998150473+1001870342+1007584389+1012212727
1338+1014089506+1013160938+1010923169+1010283986+1013816109+1021563847
1330+1030384389+1035468160+1034653222+1031818410+1032857639+1039439385
1321+1047706966+1051965864+1050151096+1045619600+1044122654+1048726096
1312+1057263762+1064580391+1067117937+1065432787+1062790861+1061772074
1304+1062156475+1062480349+1063078077+1065704015+1070259264+1073741823
1295+1073451410+1070297521+1066981238+1064241214+1061333999+1058180567
1287+1055479257+1053766699+1053191012+1052680533+1050090683+1045870272
1278+1042716154+1040862672+1038468677+1035798772+1035514297+1038633583
1270+1041972820+1041550847+1038233880+1035436869+1033641172+1031572650
1261+1029464043+1027885100+1025416645+1020599533+1014714071+1010780761
1253+1010984838+1014338350+1016457007+1013304031+1004928531+994336046+984399189
1243+976490656+970524568+965025905+958256184+950079850+941775611+934206197
1233+927174500+920513556+914775984+910127032+905333560+899198569+892496227
1223+887099659+883738324+881460014+879034956+876337928+874162000+872963917
1213+872405074+872242167+872911670+874724154+877058879+878835732+879481996
1203+879486050+880292480+883043582+887081958+890491999+892463851+894068831
1193+896504510+899824504+903289362+906188297+908663433+911625178+915213488
1183+918278185+920241757+922320501+925983212+930527612+933313717+933063103
1173+931531896+931639016+935401082+943442717+954789442+966321629+974176031
1163+977504761+979168213+981580366+983980985+984522070+983627762+984081254
1153+987729975+993374360+999051633+1004926475+1011077112+1014683237+1013433193
1143+1009944010+1008213408+1007682373+1005252290+1001304819+999528423
1134+1001607109+1006080362+1012098754+1019881095+1026837991+1028672744
1125+1026393749+1026048634+1030404031+1035820813+1037471017+1034879682
1117+1031336254+1031085468+1037814305+1051172053+1063247665+1064637035
1108+1055415647+1042533433+1031779240+1027887612+1033839540+1043947469
1100+1046617032+1040640209+1035971672+1039038768+1046650378+1052311093
1091+1055687103+1058974950+1059107080+1053032387+1046473139+1046721868
1083+1053624633+1060461047+1059170119+1049927490+1042232856+1042702108
1074+1047920065+1049078063+1042286759+1032891671+1028480544+1030005013
1065+1032522003+1032202468+1029636715+1028498017+1030540159+1031634204
1057+1026046921+1014386543+1002883762+996743403+997214825+1001916251+1006648169
1047+1009269196+1011507079+1015691517+1021204342+1024359944+1022270979
1038+1015893539+1009987292+1008448434+1010076711+1010690770+1009200790
1030+1009328809+1013309970+1017365818+1016176415+1010366668+1005488801
1021+1004757001+1006552469+1007570456+1006375115+1004564115+1004112565
1013+1004153334+1003221454+1002915967+1004520262+1004169322+997580953+987701311
1003+980240446+976162900+973421505+971178255+968692670+963815488+955926769
993+947721257+941941202+938395261+934918526+929999661+924793124+921866152
983+922583049+926017872+929137957+928809915+924453890+917994339+911480428
973+905908162+900877666+895960171+892302599+891118905+891889648+892935215
963+892887650+891367978+889217459+887640343+886520945+884671346+881844700
953+879307211+878553085+880116554+882933093+884598771+884192558+884706977
943+890026801+899556417+908072385+911931579+912845416+913778438+915149478
933+916928387+920745327+927405471+935022963+941703892+947779956+953715952
923+958302207+960974624+963086201+964712423+964088771+961148324+958431939
913+958321964+960897082+964436628+966351093+964412531+958842035+952263658
903+946645255+941649361+937084291+934988303+937927779+945514894+953448094
893+958153289+961097619+965433374+970668804+973226678+971180767+966588288
883+963088028+963185441+966448050+970011463+971897949+972516348+972832684
873+973299196+974088210+975492768+977886764+981621935+986411868+990534638
863+991506260+988555991+984517273+983120709+985369327+990347234+997041125
853+1003872857+1008691111+1009519753+1004080132+993346380+983562895+979719575
843+981815620+987372641+994015484+998377848+997618297+993841784+992841383
833+998595629+1008596096+1016064955+1019716760+1026380388+1039786099+1050169482
823+1043384230+1026022482+1018311745+1028375251+1046280025+1055894606
814+1051990759+1041779364+1035939011+1037552442+1042112716+1044929370
805+1044393082+1040584136+1034612224+1029040243+1026732812+1027993248
797+1031299595+1036205556+1043830299+1054845213+1064819185+1064776703
788+1054769498+1041353165+1028747203+1018637560+1012955490+1013965712
780+1019671422+1022613354+1017663312+1008717834+1002821522+1001675744
771+1000509295+993055054+979868037+969183278+968181506+976153078+986216013
761+993354032+998052717+1002948057+1008659134+1013035887+1015506740+1016716814
751+1013470422+1003930985+994755963+993344667+998464640+1004630923+1010983353
741+1018096019+1024347838+1029312498+1034360639+1039185060+1040241419
733+1037086388+1035159589+1036100034+1034020891+1029025283+1027147704
724+1028549179+1029288516+1028449253+1027752398+1026861516+1024967036
716+1023452388+1021777517+1015928028+1005089782+994441454+991036779+997820661
706+1010726172+1021212450+1021743256+1013478302+1005460479+1003839167
697+1007579364+1011923912+1012917004+1009858587+1004461449+997505580+990036950
687+985433165+986597673+995051629+1006995683+1012637326+1004963362+988286020
677+972378393+962618548+957000944+948436326+931332672+910041439+899676899
667+910544894+929803292+941419075+946037192+950439412+956586851+963479509
657+974674518+993750423+1013094016+1018687124+1008535455+992611611+981390222
647+982207444+992358884+997503867+988454695+968745774+946154990+928496205
637+919889447+921642318+934792562+958172932+981460569+988531895+977553982
627+960502632+945331829+930513337+915548211+907782715+912356636+923766571
617+934898313+945282152+944259482+925623879+907144045+905320370+922642890
607+947130267+955190573+946783552+940832653+941840534+946609681
##END=
