##TITLE=<SNM>
##JCAMP-DX=4.24
##DATA TYPE=INFRARED SPECTRUM
##DATE=29/4/2025
##SAMPLING PROCEDURE=Instrument type and / or accessory
##ORIGIN=Admin
##XUNITS=1/CM
##YUNITS=ABSORBANCE
##RESOLUTION=4
##FIRSTX=4497.3318
##LASTX=599.83466
##DELTAX=-1.4281778
##MAXY=2.2388692
##MINY=0.5140112
##XFACTOR=1
##YFACTOR=2.0851094e-09
##NPOINTS=2730
##FIRSTY=0.53157675
##XYDATA=(X++(Y..Y))
4497+254939500+256036053+256337091+255566874+254008859+252501812+251910228
4487+252578708+254201127+255877659+256562319+256044629+255150292+254648410
4477+254647953+255099609+255983341+256944455+257388450+256914011+255508587
4467+253566950+251784536+250823165+251042418+252326123+253831512+254353232
4457+253696186+253123154+253674947+254953364+256130158+257048279+257575659
4447+257021837+255231676+253277947+252288161+252342503+252875715+253647762
4437+254854828+256300787+256976042+256131244+254657329+254218250+255060304
4427+255996205+256386116+256656767+256963150+256752729+255774235+254507082
4417+253419590+252537459+251939128+252012794+252815942+253701246+253987362
4407+253628295+252967990+252392814+252470796+253688011+255673070+257233887
4397+257532495+256758761+255479287+254130634+253404754+254146642+256188502
4387+258010765+258330297+257328449+255788214+254058141+252380637+251266731
4377+250992593+251349259+252135427+253300444+254475608+255101753+255241338
4367+255391385+255329239+254326333+252690164+251673480+251744487+252343389
4357+253197449+254489301+255796132+256192275+255435922+254123802+252838468
4347+251791997+251143240+251114283+251778733+252923225+253890627+253739694
4337+252161697+250167719+249285217+250026848+251503251+252574277+252998834
4327+253237955+253521355+253501259+252807023+251687515+250851893+250651449
4317+250718426+250580728+250145794+249371232+248171340+246941491+246515218
4307+247215744+248528006+249912019+251186005+252029259+252082172+251744030
4297+251963140+252974422+253915268+254008944+253639072+253699102+254308496
4287+254795599+254676110+254083182+253425078+253094597+253245988+253449205
4277+252952497+251650211+250328200+249710431+249842927+250563719+251818067
4267+253191360+253941567+253873590+253462326+252972250+252231676+251272935
4257+250446003+249905244+249530684+249367801+249847586+251336681+253360331
4247+254726364+254853313+254423668+254313927+254679569+255299310+255851875
4237+255777323+254746345+253245616+252139972+251794455+251886930+251930838
4227+251808576+251819039+252282473+253155942+254089070+254755064+255055616
4217+255132254+255216583+255459791+255835552+256128071+256053662+255423173
4207+254369898+253558574+253783831+254941844+255830464+255531770+254502508
4197+253871618+254199212+255113531+255769519+255711804+255368459+255305570
4187+255245797+254558307+253357673+252251371+251473121+251088184+251436017
4177+252554181+253683809+254111053+254126175+254526291+255527082+256684981
4167+257578203+258070223+258068937+257462002+256400123+255443983+255106098
4157+255226530+255231933+254996071+254847511+254811264+254609476+254281482
4147+254056997+253894572+253729803+253783288+254204357+254868207+255641540
4137+256330259+256558346+256320711+256347210+257270619+258730957+259747241
4127+259715082+258796304+257578289+256548798+255813827+255209407+254610791
4117+254036101+253577269+253448490+253903462+254843080+255755712+256274231
4107+256513209+256691213+256777456+256726802+256751500+257026239+257277737
4097+257007658+256204910+255563329+255730442+256501202+257108795+257264474
4087+257432358+257960253+258459563+258383067+257867835+257521117+257537611
4077+257525663+257196725+256750500+256480678+256432253+256525186+256741038
4067+257174914+257909971+258691994+258909390+258250657+257230170+256716111
4057+257033300+257670450+257784450+257016062+255856591+255156867+255393215
4047+256437370+257712128+258536944+258669669+258515934+258528855+258577651
4037+258242110+257495419+256784717+256552886+256815647+257155218+257158706
4027+256918728+256949057+257535067+258352423+258837782+258836324+258748080
4017+258988229+259394692+259379455+258727298+257974918+257776360+258169273
4007+258789215+259510436+260368841+261097294+261280158+260812322+259895945
3997+258874200+258182737+258071681+258394358+258926198+259615060+260379303
3987+261111501+261839040+262426708+262493971+261959729+261228246+260739971
3977+260680884+260975090+261358883+261676415+261938204+261938833+261416198
3967+260794970+260972317+262133732+263394940+263807577+263366954+262823480
3957+262737951+262980988+263116399+263153275+263747232+265411786+267495781
3947+268548513+268136505+267353167+267098266+267033348+266614965+266048679
3937+265882195+266614279+268523329+271043772+272593755+271997597+269936442
3927+268111664+267560100+268143108+269141727+270090691+270918109+271511351
3917+271438715+270187312+267915050+265763192+264955213+265669431+267204006
3907+269330593+272732997+277596766+282368061+284808350+283857470+279989774
3897+274895203+270920853+269796857+271453465+273736046+274421392+274225064
3887+275330965+277734436+279108529+278591897+277927934+277780773+276820775
3878+275084355+274593593+276409281+279655892+283123099+285711692+285861110
3868+283638731+281398771+280685669+280694988+279902931+278119459+276275185
3858+275640350+277898176+284319960+291671100+292507722+286715684+279807225
3848+275451255+274712625+276685449+279574136+282338875+285156154+287958054
3838+289504949+289044660+287628345+286374112+285283132+284079210+283084394
3828+282663924+282628106+283244160+285760831+290161452+293277682+292892574
3818+291208895+290130322+288595261+285840528+283288268+282590373+284305210
3808+287372530+289631299+290773332+292825854+296269679+298469789+297987031
3798+296582980+295380830+293994530+292601455+292187904+293220053+295387919
3788+298306135+301621123+304640133+307000696+309529458+313111209+317051513
3778+319972759+321957475+324338734+328380660+334676039+342371380+349309912
3768+354622451+359469555+364217380+367969217+370973048+374534074+378619079
3758+381669305+383256049+385076653+389177209+396005942+403436065+408875125
3748+412746336+416988277+421563387+423990898+423776247+423954023+427466939
3738+435112456+444417982+450805606+452635673+452710168+454011568+457073170
3728+460934205+464376086+466198634+465727882+463186085+459610937+456707615
3718+455963496+457759002+461413962+465233719+466506304+463986746+460131143
3708+457552069+456392341+456042479+456507313+457809857+459519834+461367710
3698+463425777+465753581+468394514+471541932+475534919+480259361+483826819
3688+483653875+480483188+477616456+476883257+477651873+478747284+480761558
3678+485425626+491630873+494149516+491552777+488675896+487880065+486487763
3668+483022585+479940229+478677077+477948938+476719946+476012103+477101681
3658+479457585+481166676+481833642+483953798+489624089+496678564+498462608
3648+492171489+483504942+477705358+475497329+475442244+475918484+476144370
3638+476540427+478005423+480718679+483880275+486893910+489855463+491565869
3628+489604307+484849507+481005681+480571805+483991817+489725454+494295647
3618+495024072+493379299+492440596+492943193+493890471+495398604+498504629
3608+502271216+503828459+502219076+499822837+499593007+502263727+506223669
3598+509775404+512403588+513665826+512893436+510878247+510110031+512288616
3588+515972647+517697975+516540420+514912912+514861629+516234151+517748687
3578+518613580+519102742+519966263+521424314+523081893+524993430+527707829
3568+530169986+529546414+525660395+522074642+521204317+522174464+523597411
3558+525929502+530051126+534795864+537129899+535455054+532247377+531589045
3548+534509033+537830653+537704990+534014041+529779160+527174131+525880392
3538+524856961+524276954+524480085+524402331+523255409+522428992+523678880
3528+526433585+528232779+527471595+524776692+522043712+520842248+521318603
3518+522316250+522829023+523113624+523964510+525306102+526208100+526163277
3508+525553941+524753652+523979261+524055356+525719568+528199334+530049639
3498+530887434+530860620+529781961+527997461+526855684+527519505+529673049
3488+531691954+531973068+530296107+528279146+528067324+530058044+532178657
3478+531935220+528927873+524861535+521656888+520140065+519979527+520314611
3468+520687885+521432661+522720568+523491986+522412527+519964262+518234818
3458+518284271+518838608+518049467+516007122+514553474+514736423+515438035
3448+514780731+512448926+509994601+508891129+508957677+508826868+507718938
3438+506262374+505261983+504518522+503646768+503389209+504805981+507267167
3428+508625967+507819960+506128535+505257581+505197836+504530986+502440845
3418+499896760+498650531+499203439+500172271+500139168+499461855+499284566
3408+499636343+499536350+498408123+496508593+494293532+492305843+491357821
3398+492156739+494761940+498459120+501898285+503262059+501551939+498341804
3388+496533520+497105637+498358327+498415098+497099291+495183752+493510393
3378+492989673+494008531+495787486+497254055+498342661+499656067+501144647
3368+502091354+502118225+501387513+500342471+499791564+500343214+501346406
3358+501470126+500545431+499710438+499804142+500618210+501414612+501626834
3348+501375793+501159226+500912130+500230929+499572940+499872405+500941745
3338+501563830+501194044+500556693+500292560+500156606+499953246+500389123
3328+502085408+504211967+505399481+505807287+506719862+508191919+508743455
3318+507437939+505098758+503327521+503143714+504506573+506501923+507833052
3308+507737233+507057861+507527298+509404703+511000309+511023006+510120607
3298+509480284+509305682+508955333+507756900+505970627+505160961+506825572
3288+510463752+513713850+514770783+514036127+512938373+512041977+511121856
3278+510434823+510671628+511640346+512212806+512067819+512109040+512522506
3268+512110126+510395832+508801427+508789707+510179094+511709123+512227385
3258+511433784+510178980+509716289+510480961+511952847+513408381+514261269
3248+514225365+513699042+513424161+513507746+513256876+512192625+510948625
3238+510654134+511355516+511947129+511904136+511900592+512364654+512708428
3228+512288616+511140151+509658545+508394021+507822304+507692353+507206450
3218+506128249+505046560+504403721+504008608+503579477+503027884+502337764
3208+501724140+501545536+501808182+502158817+502332333+502167049+501560972
3198+500864392+500613522+500567042+499942212+498766590+497867965+497485029
3188+496961450+495730714+493853081+491831146+490390876+490065569+490673133
3178+491474966+491820798+491224439+489381795+486963889+485490402+485509840
3168+485800330+485066073+483569604+482337210+481579914+480582667+478816576
3158+476859216+475856481+476098089+476803960+477289833+477389741+476884457
3148+475774068+474790486+474409808+473993427+472996723+472073400+471898941
3138+471865810+470997457+469555901+468818900+469552327+471131296+472080289
3128+471580294+470277179+469205381+468462320+467678810+467058640+466976627
3118+467159291+467075734+466576225+465716219+464608546+463576654+462927269
3108+462681830+462771876+463133030+463419031+463047844+461853527+460438955
3098+459582837+459383365+459196728+458498090+457548925+456945049+456860349
3088+457070912+457423061+457855680+458047519+457601094+456755925+456283658
3078+456318046+455989366+454628822+452691616+451189829+450753266+451282047
3068+451983344+451839814+450594071+449170810+448775267+449683240+451042212
3058+451720554+451182883+449663887+447904656+446691244+446351072+446687442
3048+447273909+447575690+447112371+445989832+444988070+444702840+444937358
3038+445192115+445239539+444948507+444179061+443099288+442109674+441432703
3028+440988936+440516469+439756486+438752236+437891716+437440031+437309936
3018+437491371+438196870+439212754+439598377+438558338+436382068+434201167
3008+432998303+432972890+433580396+433961046+433603351+432828102+432394569
2998+432594699+433058647+433343391+433294481+432912488+432194182+431124671
2988+429797544+428579872+427932402+427928600+428186388+428300588+428111035
2978+427683248+427204492+426697922+425956176+425040600+424454161+424415941
2968+424397732+423839136+423038560+422866788+423648840+424647172+424793532
2958+423776419+422206769+420879213+420125833+419769510+419491656+419152684
2948+418717608+418028774+416965666+415781954+414997501+414904883+415295880
2938+415666868+415612926+415004562+413912582+412602864+411617080+411516429
2928+412381809+413687668+414677225+414823556+414107795+413016787+412116247
2918+411505910+410881538+410107861+409360541+408727765+408065373+407275803
2908+406459705+405792740+405431015+405482841+405933783+406583110+407056778
2898+407011784+406507186+405983779+405693033+405448366+405058312+404589247
2888+404140191+403813484+403808796+404088565+404206482+403913305+403564043
2878+403523766+403574677+403295279+402712671+402188320+401833084+401350640
2868+400447699+399209760+398007810+397150777+396714214+396628485+396810091
2858+397194428+397666238+397995861+397960157+397534457+396843251+395995365
2848+395124154+394421114+393955907+393647209+393460257+393405658+393340597
2838+393009773+392314336+391448670+390718273+390216877+389833026+389649076
2828+389991878+390860259+391680044+391909731+391572418+390981263+390324360
2818+389718797+389315022+389100571+388782038+388070622+387019806+385954439
2808+385146146+384662845+384428412+384304035+384166137+383975440+383760046
2798+383567291+383432681+383286950+382955783+382420541+381963425+381840019
2788+381920003+381865032+381492444+380801953+379889721+378962510+378227196
2778+377741636+377526928+377646960+377957431+378034841+377652077+377094652
2768+376749049+376602318+376347189+375826155+375198667+374728429+374504574
2758+374368105+374091908+373607721+373042864+372559820+372196465+371909578
2748+371744094+371794920+371917696+371730230+371116978+370484544+370273523
2738+370387609+370302652+369706780+368904632+368472929+368577381+368837513
2728+368856894+368573837+368051573+367339099+366621194+366119398+365774052
2718+365343149+364814167+364417224+364235961+364096005+363881639+363690371
2708+363602470+363552216+363509737+363552559+363645006+363530205+362988017
2698+362117549+361291646+360862830+360879953+361034059+360953561+360616362
2688+360316154+360149127+359845230+359312790+358950693+359070439+359359900
2678+359300527+358869509+358454700+358219124+357933379+357444190+356968407
2668+356770621+356797663+356820989+356733545+356532901+356218885+355828202
2658+355408562+354963680+354537265+354239057+354109878+354095985+354134090
2648+354124371+353932788+353559543+353168059+352871653+352651656+352488431
2638+352384893+352293418+352176273+352083083+352064388+352064960+351974686
2628+351774099+351591807+351572168+351669732+351670503+351460054+351118825
2618+350734574+350341004+350025988+349878885+349862934+349872853+349826973
2608+349644967+349276752+348793251+348375983+348221591+348413516+348799854
2598+349065331+349016335+348716641+348339851+348017431+347805752+347699842
2588+347680375+347736289+347804580+347757985+347536674+347242154+347032934
2578+346969130+347011237+347098109+347164371+347174577+347168688+347167001
2568+347091821+346933798+346830689+346813795+346758109+346702138+346797901
2558+346893892+346678212+346257228+346106152+346442950+346982165+347260506
2548+347063063+346582506+346184362+346044463+346094088+346206774+346247023
2538+346082768+345781073+345661727+345958391+346507383+346909643+346959439
2528+346791726+346620211+346506897+346446352+346464132+346513157+346449096
2518+346214206+345920801+345730362+345758233+346005043+346271063+346272578
2508+345968882+345672447+345728990+346169984+346746503+347214540+347474471
2498+347489050+347250501+346868193+346549232+346429343+346482227+346606461
2488+346754507+346953865+347204878+347413812+347498797+347512805+347558971
2478+347644385+347713420+347740491+347731658+347744750+347906117+348260982
2468+348650007+348876036+348922602+348892987+348852081+348841847+348923059
2458+349066732+349097776+348886298+348539123+348286481+348234655+348314524
2448+348416804+348507821+348655610+348939782+349281669+349461588+349402701
2438+349278039+349231558+349199399+349101921+348997211+348967282+349028255
2428+349159750+349311284+349465876+349746961+350269711+350860495+351192462
2418+351246146+351348255+351699204+352135395+352416166+352494176+352430287
2408+352277581+352150317+352226213+352562268+353006892+353382911+353710676
2398+354165877+354825382+355539714+356082416+356365559+356443713+356342633
2388+356019728+355515702+354930378+354104847+352561325+349997630+346692190
2378+343263116+340201657+337651369+335357468+332828877+329784712+326403291
2368+323132411+320482559+318786303+317879159+317426273+317675685+319243419
2358+322184675+325942315+330191260+335203762+340968930+346209975+349049580
2348+348584374+345700918+342729447+341722024+342662070+344050371+344756756
2338+344750353+344635638+344858836+345434584+346330465+347684720+349446981
2328+351203811+352613808+353717651+354776271+356100140+357924746+360128888
2318+362194731+363681596+364640165+365476273+366501591+367670009+368745152
2308+369669590+370598030+371557171+372332077+372755376+372893617+372915457
2298+372926605+372935267+372941642+373048553+373372631+373838780+374237953
2288+374492224+374711221+375012115+375366294+375599383+375576801+375419578
2278+375399225+375601013+375874065+376077539+376178247+376176503+376101465
2268+376003244+375887843+375763752+375708696+375742942+375729763+375570883
2258+375406486+375464315+375767640+376094776+376214351+376098292+375861601
2248+375564280+375216562+374940937+374907520+375086896+375287226+375440875
2238+375631314+375877038+376121533+376391040+376779922+377317879+377919840
2228+378393908+378530406+378326989+378045532+377883479+377730745+377417787
2218+376971533+376428173+375702807+374895971+374402293+374452290+374819132
2208+375128060+375224137+375188176+375166193+375187776+375133634+374960832
2198+374842744+374945253+375218934+375512397+375755691+376012478+376409735
2188+376952152+377481705+377946911+378487556+379102638+379567672+379823830
2178+380090736+380510548+380999567+381451223+381832044+382125678+382358939
2168+382620185+382940975+383199048+383244986+383153854+383218973+383596135
2158+384089126+384412604+384515313+384514598+384492130+384504708+384650581
2148+384973087+385368429+385700168+385972506+386296898+386708391+387105792
2138+387382875+387563166+387767955+388055386+388345789+388556810+388750908
2128+389051946+389477075+389966007+390525976+391231675+392097398+393008572
2118+393758465+394159267+394225901+394275326+394688077+395492998+396339854
2108+396972773+397513132+398145508+398803069+399335480+399736740+400056930
2098+400318605+400638052+401228722+402178744+403315003+404300901+404843775
2088+404898231+404712938+404622778+404800982+405218021+405733739+406174790
2078+406443754+406624932+406903101+407350612+407853323+408257813+408563796
2068+408925093+409398732+409791130+409925969+409951725+410150083+410564778
2058+411029898+411433731+411807634+412272525+412942921+413781459+414591124
2048+415235192+415759571+416245731+416695758+417151188+417781106+418703029
2038+419790749+420811836+421703058+422540052+423309612+423940644+424527026
2028+425312251+426454542+427923598+429577633+431248648+432806148+434214659
2018+435519318+436747452+437844864+438797116+439818946+441245838+443116868
2008+445034150+446617321+447928011+449263085+450753466+452381831+454185656
1998+456219282+458450466+460814173+463161501+465094134+466205581+466630510
1988+467016676+467877282+469209955+470683756+471985670+473054638+474148762
1978+475613387+477478872+479443235+481331731+483298724+485475137+487696773
1968+489739804+491640135+493600610+495674057+497681928+499480036+501258934
1958+503389895+505889786+508288368+510209624+511893274+513924070+516504573
1948+519213369+521690505+524293819+527491662+530813682+533273495+534778312
1938+536151863+538011945+540320767+542663036+544649581+546334089+548185481
1928+550498820+553239117+556412148+559870980+562989125+565415950+567630440
1918+569919995+571708098+572730043+573787434+575655462+578197831+580738142
1908+582622865+583464319+583559853+583971661+585536622+587913651+590088348
1898+591584761+592616482+593373150+593956530+594847665+596502329+598385851
1888+599276701+598838194+598037047+597984163+598999533+600568210+601869610
1878+602429664+602344650+602039753+602200634+603666632+606656713+609962038
1868+611510763+610453315+607949537+605618303+604203074+603427997+602697285
1858+601978179+601721993+601964344+602173078+602103557+602060221+602196747
1848+602434181+603077877+604280027+604754609+602965878+599658551+596764519
1838+594996426+593716409+592439307+591696703+592150361+593441870+594349700
1828+594132161+592980437+591082736+588540481+585983648+584149522+583100821
1818+582280121+581118220+579664743+578656978+578669327+579171409+578956843
1808+577745832+576622408+576726574+578117391+579820708+580712187+580498250
1798+579883425+579861700+581066823+583329050+585196736+584879605+582747900
1788+580938872+580678684+581509675+582515668+583547789+584826149+586173286
1778+587473428+589301780+592460517+596882007+600876995+602539263+602228477
1768+601457688+600919188+601028386+602358943+604609679+606536423+607852688
1758+609305821+610704928+611418030+612309738+614913567+619008720+622267393
1748+623124169+622607736+622437022+623297056+625032904+627165123+628974551
1738+630402700+632805799+637170860+641384530+642101692+640241496+638355744
1728+637099109+636508354+636771001+637612568+638934321+641943669+648103236
1718+656364949+661911864+661462208+657637649+654149660+652622717+653344910
1708+655909920+659016459+661103513+662514911+665535407+671241202+676848318
1698+678844698+677582804+674558362+670981414+668650523+668862859+671543926
1688+675894694+681917563+689772557+696138171+696228273+691692727+687390898
1678+686035642+687541660+689630886+690634307+692006714+695360006+698744687
1668+698969943+697306532+697373251+699821001+702014623+701853227+700739008
1658+701234343+704667905+711346248+719541071+723539947+721856811+719789996
1648+719401286+718695558+716019007+713183576+712132874+712833456+714950982
1638+718644790+723028546+724875078+722520461+719056540+717501355+718253964
1628+720083002+721775685+723140717+724019789+723785842+722933183+723088576
1618+724779658+726384697+726089005+724725402+724034939+724155686+723972222
1608+723033005+722541557+723779382+726458620+729202748+731053340+732251659
1598+733823824+736525359+740050968+743343373+745698733+747279703+748717571
1588+750680105+753661896+757737039+762357600+766468647+769283611+771264153
1578+773695038+776899398+779265164+779817557+780037725+781247479+782723481
1568+782764530+781340383+779978953+780209869+783076516+788371704+792217931
1558+788781854+781404701+776382794+773662335+771401823+769303221+767973006
1548+767882904+769552604+773429589+779336514+786582115+793342042+795111106
1538+790689560+785554625+783359402+783627538+784041118+783824608+784716487
1528+788059146+793012618+797992446+803148935+809180037+814426743+816637116
1518+816664615+816708009+817713659+819825354+823415852+829227415+837818151
1508+847734300+853416254+851460581+847968476+848015185+851253048+855660416
1498+859542547+862027058+863136418+863725058+865123993+868554754+874054330
1488+879644066+883249658+885183034+887136306+889932746+893161576+896638017
1478+901330271+908376228+917639876+927215624+934267699+937680564+939653503
1468+942655933+946246717+948052143+947782807+948202276+950568842+952998526
1458+953201829+951280344+948976724+946616847+944476967+943694801+943622593
1448+941964842+938595541+936114059+936111944+937671360+939663223+942879532
1438+948223487+953049523+952894359+948602764+944686387+942655933+940832098
1428+938434659+937036811+937542495+939133527+941754850+946544811+952236656
1418+954118177+950838007+946851366+945521609+946402625+947411134+947171013
1408+945933988+944871566+944279782+943158244+941050323+939008721+938471878
1398+940523428+945877903+953507411+959661490+961308035+959811279+958133290
1388+956782436+954669312+952803113+953872624+958739081+965557838+971395527
1378+974637507+976321100+978149566+979734366+979737682+978769993+979235485
1368+981917754+984840029+986508757+988260956+992199630+997806232+1001705343
1358+1001122306+996950828+993483021+994585863+999650934+1004885005+1007813341
1348+1009085183+1009872209+1010292192+1011291782+1014623636+1019978568
1340+1024699122+1027342285+1028617443+1028848874+1028481603+1029423907
1331+1032965924+1037194916+1038166378+1034832009+1030535440+1028572620
1322+1028552610+1028425918+1028495210+1030576146+1034479374+1038099716
1314+1040268696+1041496059+1042883273+1045323591+1048478555+1050550801
1305+1050667203+1050805101+1054009004+1060712274+1066615254+1066207734
1297+1060217739+1055090579+1054211506+1055155869+1054436649+1051565828
1288+1048409263+1046835440+1046605724+1045238520+1041114380+1035659741
1280+1031298797+1029050576+1028861909+1030177316+1031810369+1032204397
1271+1029944513+1024069204+1015505567+1007670183+1004284245+1006567340
1263+1011733148+1014832313+1013294279+1008549026+1002630953+996054490+989184165
1253+983537771+980618469+979485211+976638288+969713879+960702244+953609177
1243+949931492+947980393+945656705+942223658+937863400+932748532+926303164
1233+917864046+908522759+900987927+896817021+894714474+892239739+888485329
1223+884107005+879711700+875439201+871541805+868387012+866041028+864798172
1213+865553239+868279586+870888675+871441411+870646438+870300492+871083745
1203+873375187+877701371+882874669+886219614+887266200+888473552+891506455
1193+895347479+898289993+900230116+902657684+906894337+912457431+917259284
1183+919585087+919856481+920186247+922414801+926776260+931980716+936477443
1173+939590271+941448467+942927613+946048675+952763036+962381034+971704026
1163+978636554+983829004+988507480+992938517+996390546+997828757+997334451
1153+996486708+997183860+1000189263+1005088537+1010808796+1015152131+1015304894
1143+1010804908+1005154970+1002823622+1005057778+1009116513+1011897117
1134+1013474027+1016182480+1022050013+1030992471+1038541196+1038318912
1125+1031641141+1027827902+1031900815+1038235784+1037906933+1030299892
1117+1022715035+1020605170+1022752311+1023864529+1020574411+1016702628
1108+1019155867+1028562558+1037437553+1038542110+1033722992+1029946800
1100+1031048385+1035732692+1038801098+1036099620+1029487597+1024445737
1091+1025301026+1033123832+1043895899+1051329594+1053840576+1054746291
1083+1057479671+1063554623+1071080823+1073741823+1065251137+1047199624
1074+1029568895+1020611459+1021793198+1028583369+1033600987+1033115485
1065+1029543625+1026685496+1025757714+1025877889+1024798944+1021269162
1057+1016919309+1013101839+1009386821+1006764011+1007696367+1011661226
1048+1014641702+1013640168+1009922177+1007323379+1008057807+1010600348
1040+1011991107+1012295032+1014493970+1019525653+1023507549+1021292946
1031+1012619195+1002834942+997777417+999225691+1004507443+1008668058+1007867425
1021+1002839515+998090032+996857982+998157609+999864985+1002613573+1007034204
1011+1010036634+1008746955+1004883976+1000925178+997136980+992748821+987798208
1001+983041407+977733356+969996078+960888395+954280259+951210709+948132012
991+941852613+933446656+926266974+922563847+922087664+922311263+921007805
981+918875071+917602200+916499700+913342792+907674331+901314263+896679752
971+894996788+895263151+895376294+894161967+891677741+888022639+883309174
961+878624351+875362648+873541728+872250219+871703200+872823594+874508845
951+874197774+872377312+873199041+879383821+888721106+896450665+900136526
941+900474182+899143796+898574023+901384298+907460451+913342850+916456021
931+917956436+919881579+922957818+927709702+934353170+942043681+948939277
921+953643251+956837664+959626729+961480579+961309750+959170956+955943155
911+952695401+950410362+948888565+947165810+945973322+946951530+948710590
901+947687616+943941096+941251110+941429657+942805838+943559761+943601839
891+943533634+944968815+950427628+960104227+970308922+976071488+975929245
881+973785420+973416662+974072307+973276020+971319489+970389534+971409477
871+974638650+980016794+985926863+989688305+989357281+985284482+979702807
861+975050515+973504821+977078968+985803258+995287017+999860640+999309619
851+997399398+995765887+993786717+992380407+993739493+996496656+996555086
841+994235400+994026381+996899488+998785583+997061399+993615202+990902861
831+989630104+990529415+994797627+1001906244+1008405525+1009875525+1005836800
821+1002053176+1004562328+1012172913+1017797352+1016894382+1012884586
813+1013657205+1023691985+1038246304+1045820528+1041569810+1031292050
804+1021026868+1013676643+1010734358+1011171150+1012038559+1013026830
795+1016451301+1023024677+1031290221+1038583274+1041537337+1038414160
787+1030620740+1020979873+1013427032+1012875668+1019640225+1025746051
778+1023597194+1016614469+1011644875+1007724953+1000338138+992187509+990136303
768+995127394+1001389984+1002181583+995652344+986768431+982427039+985977975
758+996366648+1008483050+1015834876+1014550570+1005580099+995103953+989305826
748+989238364+991816351+994064686+996261681+1001404620+1010679702+1019899213
738+1022787414+1018845081+1013033347+1006996700+999063666+990501058+985032012
728+983598945+983694879+984792919+989159695+996990163+1004906730+1008063638
718+1004213581+997644779+996053804+1002019559+1009621110+1011105974+1007358597
708+1004997977+1006139810+1006105050+999527558+987779227+979097930+978858838
698+983841696+989110871+994393766+998690793+995506213+982621881+968270064
688+960679718+960118635+961962080+964340995+969146621+977242479+989599117
678+1006276794+1019644456+1016021713+995938546+977501696+965824372+953689332
668+942894854+945284975+960348236+977136597+988843536+991892046+986541345
658+976595295+965212177+954800007+948506715+950013819+959502895+969798607
648+970293828+960098281+947815338+936628376+926586335+921715877+926200026
638+940201266+956542715+964273189+957573864+940338306+923939971+919729960
628+931168420+950431116+963193444+962819312+951724168+937702747+933169030
618+938702909+941054725+935555549+930661878+932486114+940531204+955535006
608+987192416+1036533096+1071303907+1069875185+1052632424+1020511408+983299823
##END=
