##TITLE=<SNM>
##JCAMP-DX=4.24
##DATA TYPE=INFRARED SPECTRUM
##DATE=29/4/2025
##SAMPLING PROCEDURE=Instrument type and / or accessory
##ORIGIN=Admin
##XUNITS=1/CM
##YUNITS=ABSORBANCE
##RESOLUTION=4
##FIRSTX=4497.3318
##LASTX=599.83466
##DELTAX=-1.4281778
##MAXY=2.1254091
##MINY=0.38310438
##XFACTOR=1
##YFACTOR=1.9794415e-09
##NPOINTS=2730
##FIRSTY=0.39356574
##XYDATA=(X++(Y..Y))
4497+198826661+198925910+199645267+200005645+199552868+198769569+198181409
4487+197719674+197402446+197875458+199467095+201328278+202342129+202358344
4477+201914556+201414910+201083153+201104065+201351871+201455410+201372859
4467+201428430+201721223+201980410+201998628+201771178+201326215+200768514
4457+200184585+199496695+198739457+198166444+197934281+198061052+198716753
4447+200025052+201473221+202058987+201348860+200086812+199435748+199864059
4437+200987322+202007677+202007135+200550926+198405351+196907557+196524565
4427+196837261+197557145+198521869+199179120+199067405+198477258+198058282
4417+198133185+198591367+199126951+199456736+199452867+199177268+198802647
4407+198550821+198529020+198504208+198109231+197395640+196893420+196934824
4397+197102908+196688479+195745496+195243471+195933951+197441681+198723648
4387+199126771+198680950+197716392+196671435+196032597+196055272+196515576
4377+196880336+196830893+196568528+196497012+196755779+197130159+197308000
4367+197170449+196767417+196110979+195241860+194433342+194050922+194217515
4357+194795452+195566120+196265949+196648927+196602705+196150666+195512746
4347+195125568+195253739+195717507+196371792+197342975+198276216+198170433
4337+196676675+194768848+193611575+193541655+194270512+195223206+195657660
4327+195277181+194712118+194695405+195020809+195041812+194811201+194901386
4317+195453486+196127540+196537889+196337179+195548580+194944054+195314445
4307+196405141+197299328+197582274+197464868+197231606+197093031+197218748
4297+197645780+198283654+198932820+199257035+199015041+198414806+198039131
4287+198292251+198940996+199310905+199032521+198410876+197904817+197573571
4277+197331653+197368344+197900601+198708095+199251042+199261581+198981300
4267+198835032+199125446+199869449+200660999+201036434+201156279+201612278
4257+202454040+203031480+202880393+202222359+201633447+201543322+201859195
4247+202070264+201998613+202098359+202583671+202844801+202321066+201372287
4237+200639545+200120672+199557867+199225673+199496303+199974208+199982068
4227+199713229+199956096+200800357+201520889+201683553+201625813+201822158
4217+202342069+203010778+203622093+203907027+203658077+202983557+202213326
4207+201583958+201211429+201228367+201625934+202068503+202247156+202304128
4197+202545038+202806424+202554297+201758305+201213928+201609568+202652100
4187+203550969+203980816+204079146+203944968+203758560+203992108+204825890
4177+205604974+205496526+204548078+203638414+203570828+204461672+205739724
4167+206594118+206617093+206062057+205427991+204981116+204766630+204818302
4157+205163158+205657429+205962447+205845582+205463674+205146611+205043915
4147+205201430+205640852+206148387+206356039+206121317+205614474+205213038
4137+205362483+206082954+206676248+206481454+205790568+205550652+206260223
4127+207376258+207810847+207061951+205759267+204937138+205040301+205839771
4117+206878464+207651224+207688864+206964509+206125909+205880768+206123063
4107+206084821+205475719+204975772+205348436+206503376+207634332+208081628
4097+207977035+207992392+208388317+208641844+208306473+207764867+207712668
4087+208293601+209066963+209525973+209424602+208886367+208376634+208354321
4077+208809401+209244051+209211169+208762623+208310252+208175231+208303778
4067+208364755+208125290+207686230+207311879+207177339+207309846+207544071
4057+207553813+207194849+206787060+206792525+207218050+207576743+207512499
4047+207271183+207390486+208031206+208766673+209007673+208570780+207885796
4037+207652354+208200796+209174703+209863542+209859191+209391674+209017474
4027+209021539+209225020+209353628+209353402+209257662+209015532+208587387
4017+208102300+207783024+207670315+207592025+207529061+207763271+208475416
4007+209493829+210501989+211169026+211240979+210873192+210575507+210549475
3997+210503539+210251970+209981957+209839242+209741378+209677677+209847944
3987+210381571+211085029+211617527+211799568+211601056+211070681+210559111
3977+210651915+211432746+212184925+212239969+211767484+211380818+211298567
3967+211247091+211037182+210928538+211350525+212378815+213554607+214217053
3957+214075874+213478876+213046199+213152750+213860559+214980855+215888938
3947+215867785+215117593+214717888+215242271+216028552+216132332+215455855
3937+214618760+214377896+215235195+216931426+218288988+218273857+217242089
3927+216486839+216755768+217563323+217985912+218046362+218658626+220086741
3917+221188714+220801973+219322984+217963705+217273090+217113572+217514195
3907+219056494+222294225+226660745+230248963+231517967+230579109+228092127
3897+224582139+221300986+220070676+221645255+224277949+224983560+223749667
3887+223611197+225985351+228696095+229649271+229779625+229722879+228186663
3878+225534607+224374367+225876888+228729489+231561132+233841036+234547445
3868+233571369+232802252+233190289+233211773+231378865+228530977+226342884
3858+225972463+228783555+235928976+243952203+244810060+238527780+231337326
3848+226846776+225936209+228037760+231531035+234747734+237462347+240231192
3838+242171238+241650077+239219283+236735673+234867865+233309396+232121122
3828+231547868+231404641+232133092+235305511+240862156+244692714+243777555
3818+240829966+238581078+236191010+232755082+229828075+229420436+232255466
3808+236925980+240325773+241487413+242798573+245279278+246402314+244899462
3798+242955351+241690081+240125770+238115458+236946877+237304079+238783188
3788+241058711+244010425+246905709+249127090+251498624+255053750+258827608
3778+260834743+261164347+261793173+264322207+269070304+274952624+280153422
3768+284106867+287834443+292050945+296821174+302635742+310016969+318192366
3758+325612528+332221477+339838480+350565616+364878410+379151608+387916113
3748+391634927+394688148+398773603+401707912+402144594+402467484+405318564
3738+411508627+419528858+425994504+428363825+427216744+425156582+424429230
3728+425697722+427915309+429274889+429139296+428191977+426739923+424706560
3718+422710687+421959908+423565923+427827021+433009782+435688713+434758980
3708+432708122+432049877+433694496+437088041+440380049+442061043+442796435
3698+444094948+446479897+449660973+453343260+457526971+461911256+464878929
3688+464705545+462090813+459149036+457557414+457998432+460177054+463744767
3678+468876850+474362687+476815086+476192343+476400506+478100229+477231683
3668+472068254+466277414+462985014+461987861+461395741+460256640+459450817
3658+460038721+461700473+463625855+466600123+472755557+482401225+490037319
3648+488542748+480201013+472385452+468401715+467278332+467311425+468244109
3638+470421076+473376283+476032178+477975988+480310650+484573043+489769204
3628+491840387+489855715+487459534+487653455+490995930+496227141+500937387
3618+503129891+503201588+502982042+503771515+506120209+509814451+513144280
3608+513628237+511223625+508977944+509635286+513419743+518185063+521352469
3598+522410057+522886125+524026582+525464001+526482444+527548644+529465083
3588+531435843+531515941+529719407+528191833+528259886+529365172+530397466
3578+531182241+532308786+533741568+534344286+533616423+533228100+535061731
3568+537980774+538621675+536234407+533337948+531768459+531353758+531167306
3558+530856973+531227951+533010934+534787533+534049672+531211028+529518080
3548+530434142+532195324+532975582+533080251+533396125+534112907+535443911
3538+537538250+539486848+540214772+540248016+541034838+542574818+543127552
3528+541885197+540042171+538550430+536904275+534532546+531867105+529749158
3518+528830686+529281099+530309178+530737248+530604154+531192720+532615204
3508+532947036+531231685+529277667+528844176+529010936+528280422+527790683
3498+529835820+534112184+537384800+537298560+535259265+534368617+535788692
3488+538137657+539661437+539953100+539448486+538613063+538122360+538370662
3478+538557416+537645388+535930037+534431310+533533796+533162035+532996420
3468+531890050+528743784+524567150+521968678+522369707+524837313+527402301
3458+528678682+528374552+526987359+525257735+523797671+522765678+521812457
3448+520826114+520486452+521410645+522939122+523600439+522861915+521612756
3438+520829486+520479346+519982319+519261381+518776219+518653062+518368384
3428+517591740+516801002+516557217+516645806+516583234+516605697+517191433
3418+517832755+517514713+516346554+515510951+515663497+516429181+517296403
3408+517985121+518126526+517457923+516360707+515708243+515956305+516474289
3398+516295786+515753893+516158536+517509534+518116168+517092184+515629531
3388+515072763+515416640+516142276+517006606+517734590+518079311+518355918
3378+518994169+519645187+519687163+519203687+518823495+519213082+520806661
3368+523516728+526318394+527716066+527364119+526639146+527051136+528722886
3358+530913101+533263753+535476733+536344376+534782233+531720099+529334518
3348+528580035+528608461+528361905+528044406+528872783+531436204+534587048
3338+536699093+537545477+537621841+536587258+533958493+530552783+528047778
3328+527560448+528894102+530594699+530979287+529746207+528216405+527749249
3318+528535891+529908811+531134905+531734191+531433856+530267865+528776184
3308+527808389+527943411+529039783+530244558+530639686+530143322+529503867
3298+529344093+529780534+530755616+532038080+533245927+534232812+534957544
3288+535045832+534299119+533366615+533111206+533737292+534861126+535860237
3278+536418210+537186845+539161580+542168549+544588639+544661148+541932412
3268+537811485+534613547+533654846+534653234+536802678+539377121+541161489
3258+540979071+539182237+537248454+536267048+536395325+536911020+536785815
3248+535969664+535543762+536119199+537040501+537341861+536784009+535961775
3238+535683240+535974181+535870656+534579038+532293730+529807334+527872708
3228+526880161+526930689+528101257+530198547+532349678+533510971+533370168
3218+532259342+530587231+528854354+527578515+526787658+526048954+525103020
3208+524052116+522948638+521741574+520595336+519743231+519112388+518574169
3198+518449084+519124252+520383650+521671955+522482807+522271543+520906813
3188+519344309+518758634+518864146+518247275+516506569+514802840+514058054
3178+513789757+513208057+512455441+512023276+511669341+510614222+508580347
3168+506365199+505249916+505430708+505401258+503946434+501946526+500745244
3158+500169355+499576994+499388494+500188596+501373979+501732581+500739703
3148+498792069+496746270+495487685+495411381+496132590+496956330+497541463
3138+497661218+496703631+494391222+491776128+490321545+490115159+490085408
3128+489659958+489041852+488234523+487062781+485951322+485639544+486193753
3118+486916798+487068562+486396285+485250770+484247473+483535780+482564341
3108+480956308+479317290+478652511+479245293+480501860+481600491+481916274
3098+481110511+479355593+477493958+476628182+477338129+479089554+480307880
3088+479609767+477400129+475572400+475307024+475919349+476100712+475540210
3078+474772900+474085055+473325243+472366512+471270892+470270004+469645996
3068+469421754+469354183+469236566+468948305+468460373+468083432+468328453
3058+469057731+469294140+468573774+467755846+467691617+467930043+467458371
3048+466146337+464857008+464421681+464854840+465403929+465279417+464372267
3038+463190136+462202799+461477826+460805188+459897526+458632256+457304805
3028+456440535+456198857+456144385+455743205+454931992+454098195+453632274
3018+453556513+453547630+453352174+453076319+452911246+452765263+452437887
3008+451952304+451405774+450731419+449932642+449320889+449175961+449292042
2998+449131155+448461437+447643449+447172168+447118840+447179606+447177528
2988+447233084+447295777+446889448+445770462+444533376+444011418+444187150
2978+444138821+443108183+441297738+439563175+438608689+438486435+438683457
2968+438705740+438504803+438201186+437755711+437250675+437003878+437030557
2958+436977440+436840883+436957928+437103037+436552562+435260131+434066226
2948+433586786+433636530+433788535+433836895+433571820+432704749+431385399
2938+430336994+430047921+430199172+430201371+429883901+429424184+429054741
2928+429028574+429406297+429824370+429798926+429186963+428187942+427061789
2918+426012481+425195486+424655762+424262501+423787637+423124484+422402131
2908+421875565+421767252+422106824+422527607+422385629+421431776+420231849
2898+419582818+419657797+419927268+419771228+419054054+418156902+417481644
2888+417069563+416787415+416575036+416376900+416200866+416300747+416809336
2878+417246681+417026142+416298459+415639943+415226838+414933037+414802080
2868+414869260+414871488+414499245+413780897+413102297+412851073+412980795
2858+413024698+412656611+412010591+411349606+410783383+410390393+410217822
2848+410059163+409558704+408687056+407918180+407719593+407945010+407953923
2838+407374150+406566188+406211953+406590850+407294835+407540367+406842796
2828+405454911+404074162+403176497+402738972+402570557+402625451+402789169
2818+402715455+402213611+401558016+401111035+400878030+400671914+400403106
2808+399987954+399321127+398500850+397811228+397421069+397268914+397229377
2798+397229979+397126274+396601244+395501318+394264745+393579309+393545192
2788+393610535+393343473+392827868+392331414+392003405+391892082+391923067
2778+391904307+391744684+391565248+391476960+391348503+390901643+389997083
2768+388795801+387677537+386974877+386705707+386586344+386361438+386044060
2758+385761881+385508520+385158831+384632597+383951226+383241791+382731967
2748+382557499+382544792+382382609+381953636+381279251+380335636+379275518
2738+378595713+378659339+379193192+379560888+379423457+378926341+378343496
2728+377742554+377032215+376229584+375554235+375243210+375297201+375403616
2718+375203372+374704057+374258071+374057436+373906846+373595189+373195634
2708+372820682+372286859+371294131+369984748+369041645+368958626+369435387
2698+369789021+369753760+369564808+369432015+369250922+368805538+368103540
2688+367406692+366895272+366453591+365923231+365423405+365220902+365307022
2678+365290250+364830051+364038772+363274292+362730863+362425017+362297885
2668+362173704+361944161+361815162+362020254+362385420+362513456+362276596
2658+361856596+361368212+360662119+359619888+358555434+358045670+358299182
2648+358931380+359395705+359402751+358950411+358251575+357689236+357578304
2638+357808810+357877164+357431298+356635231+355876473+355393479+355327203
2628+355756718+356456879+356877090+356579675+355674061+354766550+354429237
2618+354664260+354946378+354824064+354378830+354014928+353906014+353850487
2608+353704475+353648166+353808481+353936607+353767047+353427747+353200613
2598+353111001+352992992+352770978+352470762+352099303+351716431+351500739
2588+351513928+351498812+351173243+350683835+350527916+351000040+351850338
2578+352524000+352668326+352338150+351792252+351278664+350977064+350925121
2568+350993264+351029730+350960623+350729183+350308521+349816162+349487371
2558+349468461+349668343+349891713+350104092+350377989+350602804+350582750
2548+350399429+350299036+350319060+350364288+350428667+350462272+350286870
2538+349836638+349286344+348879653+348742434+348847283+349107660+349461113
2528+349830887+350148416+350495094+351008923+351585745+351920679+351896379
2518+351731426+351705379+351848983+351960939+351905111+351743561+351521547
2508+351178392+350782692+350546344+350511926+350497653+350361819+350102164
2498+349784545+349570148+349678521+350125531+350573264+350620239+350245286
2488+349827635+349719654+349939079+350267147+350466367+350402891+350128151
2478+349867503+349843684+350086205+350401536+350545501+350473684+350367570
2468+350365161+350398585+350337368+350129385+349814114+349536393+349453916
2458+349547896+349674064+349782888+349886744+349886323+349664037+349312451
2448+349099109+349200013+349548197+349935134+350195361+350288527+350297380
2438+350381813+350627827+350919520+351059119+350987513+350814731+350707714
2428+350778537+350970951+351086310+351046562+351025906+351194592+351491766
2418+351779936+352051545+352362450+352694855+353012294+353359845+353763795
2408+354091623+354203278+354195720+354261394+354371151+354402106+354504457
2398+354943457+355620853+356161632+356440739+356650769+356899854+357062278
2388+357001843+356716232+356223120+355399441+354033567+352088402+349842931
2378+347689212+345823391+344136766+342358902+340355651+338260439+336208798
2368+334171430+332286669+330947053+330298022+330208831+330842113+332562163
2358+335333898+338818170+342881644+347543169+352418970+356488496+358651220
2348+358438269+356348837+353774274+352087228+351500920+351418504+351452500
2338+351514410+351587100+351764248+352150945+352651223+353047435+353268395
2328+353508055+354062927+354997990+356050038+356995008+357976564+359202718
2318+360498100+361475591+362035490+362459134+363044147+363802062+364546578
2308+365179709+365779929+366428237+367080189+367653037+368151719+368648866
2298+369176335+369705551+370214652+370713786+371243754+371869900+372593879
2288+373269318+373747856+374054214+374208928+374037170+373469532+372852901
2278+372591109+372605322+372471595+371990378+371341256+370749498+370260903
2268+369849455+369538400+369348454+369276908+369384347+369752314+370303271
2258+370803519+371086269+371190727+371301960+371580736+371998839+372365872
2248+372547627+372580510+372563346+372558709+372610170+372749317+372945646
2238+373056548+372866933+372279210+371485402+370854649+370615470+370685872
2228+370800207+370759255+370545972+370252020+370020099+370097155+370762627
2218+372064242+373691035+375168051+376219737+377034233+378107058+379686966
2208+381518429+383265639+384940882+386722028+388601067+390423617+392138126
2198+393860102+395706169+397662626+399682680+401797164+403992529+406097136
2188+407956212+409629888+411282818+412943848+414467628+415670115+416442905
2178+416834028+417085522+417437951+417815795+417911370+417636870+417241231
2168+416975764+416875432+416806927+416556035+415920344+414812680+413339488
2158+411783909+410356307+408989680+407575447+406171693+404805187+403495593
2148+402477481+401917551+401815291+402653334+405314288+409900835+415555991
2138+421625154+428024856+434515947+440580323+446006719+451091075+456262273
2128+461560423+466613793+471323317+476080899+480949563+485292746+488546000
2118+490786472+492455542+493970860+495553359+497239411+499209268+502104854
2108+506797184+513767896+522830057+533400159+544610139+555019504+562957710
2098+567621072+569319621+568688477+566259294+562524340+557968478+552912457
2088+547062689+539556828+530046723+519244699+508118010+497275064+486993373
2078+477233159+467993789+459722215+452812358+447047505+442052461+437776428
2068+434260869+431445381+429224000+427438970+426000226+424931345+424111249
2058+423310695+422514749+421806578+421201240+420916261+421331293+422516375
2048+424242868+426434107+429365556+433546707+439387924+446902908+455954409
2038+466654264+479068416+492735010+506859696+520751978+533918565+545909284
2028+556027287+563390297+567651967+569345457+569390384+568712265+568044686
2018+567437570+566143002+563390116+559183130+554216180+549164496+544186766
2008+539067089+533590888+527667706+521344459+514828616+508374021+502202326
1998+496617271+492003202+488517123+485793717+483150649+480305260+477691582
1988+475794475+474577203+473812603+473466769+473530696+473924138+474635199
1978+475625788+476742607+477916788+479213043+480669101+482353348+484416130
1968+486769431+488916436+490458976+491630387+493001711+494827994+496974457
1958+499318815+501839930+504391217+506774961+509030459+511397250+513981389
1948+516595158+519041565+521488092+524195268+526889195+529079230+530986213
1938+533237977+535850481+538341815+540596229+542945857+545561553+548212299
1928+550649130+553067654+555879619+558947595+561620624+563709302+565558772
1918+567078697+567748626+567664614+567643114+568372303+569915535+571723149
1908+573081796+573775151+574124087+574405091+574707113+575262496+576357724
1898+577955579+579746150+581456503+583046770+584683651+586285059+587184379
1888+586918432+586122274+585726785+585769845+585623200+584865948+583634554
1878+582517223+582044407+582135405+582518970+583595649+585920826+588559828
1868+589088653+586497107+582586360+579441418+577471080+575990600+574493259
1858+573006817+571717428+570659177+569687769+568720275+567939776+567607040
1848+567909724+568989415+570323189+570210510+567668408+564138034+561413815
1838+559750738+558429189+557096680+556330092+556909022+558439066+559043892
1828+557500058+554655452+551515207+548077940+544562201+541902060+540637362
1818+540318236+540191044+540177313+540852481+542344583+543616749+543505395
1808+542332478+541526505+542036539+543784893+546026781+547780555+548416638
1798+548225849+548249035+549574137+552460358+555349168+555783381+553818463
1788+552033854+552222294+554164689+556763944+559401501+561871817+563874496
1778+565467653+567596802+571586562+577691800+583437442+585158394+582864232
1768+579583727+577403027+577117988+578972637+581963466+584021310+584629630
1758+585112925+585972016+586969802+589112501+593821152+600255873+605148206
1748+606682224+606387850+606323531+607237426+608993669+610990627+612348129
1738+613263469+615668744+620899413+626421203+627564972+624563061+620610701
1728+617402042+615715056+615855859+617326160+619755283+623986841+631034038
1718+639438014+644361121+643098350+638702743+634834695+633043462+633902372
1708+637587400+642975795+647631147+650899006+655172299+661929458+668228857
1698+670758493+670335120+667742671+663565194+660523837+660647054+663306051
1688+667230107+673120286+681699935+688600186+688308221+683713093+680151102
1678+679831013+682652433+686737406+690073317+693242469+697494503+700910693
1668+700477142+697866204+697046258+698932585+701280165+702050306+701983758
1658+703073506+706960344+714834352+724910198+729175481+725843846+723067594
1648+723770284+724258457+720785537+715774203+712978137+713143631+716146204
1638+722342380+730093712+733095442+727820508+720359274+716920862+718636755
1628+723135887+727415143+730730758+733621195+735655973+736997094+739995211
1618+746436677+753599925+755873671+753407270+750813375+749943082+749349939
1608+747339310+744325837+742104124+741814990+743382854+746302258+750231975
1598+754879137+759704199+763709316+765903205+766415890+766248588+765712296
1588+764407610+762754951+762013658+762648958+763912029+765112288+766757238
1578+770047198+774566204+777026583+776080107+774872502+775731171+777654836
1568+778961992+780209345+782220094+784846449+789402854+799284238+814971247
1558+825913893+824086526+817814167+813725881+812377352+812168195+811531390
1548+810724693+811835279+816310863+823374200+831029174+836643769+836523201
1538+831586665+827951924+828414743+830824293+831064646+828532119+826744980
1528+828274723+832579934+837789585+843606833+850334302+855834292+857945554
1518+858589887+860582629+864299636+868756672+873358425+878685331+886858049
1508+899065212+908998509+907043708+898649247+893528426+893401715+896030841
1498+899306889+902695436+906354568+910262905+914372872+918051155+919507303
1488+917437415+913280474+909781296+908712326+910614009+915032622+921263848
1478+928596445+935191120+938469759+937914918+935448336+932769706+931075915
1468+931690016+934415861+936557415+935957166+934222904+933965086+936142233
1458+939787875+940853473+935835032+927656112+920869925+917320219+916753575
1448+918222431+920685219+922686512+923094709+922546492+923365113+927596310
1438+934822190+940808426+940509295+935595282+931774088+931554151+933201390
1428+933828017+933108585+932700991+933647467+936087068+939909346+944012507
1418+946048430+945169465+942885059+940511643+938595205+937382781+936878950
1408+937285942+938862899+941035710+942423505+942414652+941811211+941673419
1398+942944199+946347982+950764066+952650453+949877513+944754343+940623479
1388+938259217+936519595+935195155+935487722+938033498+942488486+948253039
1378+954570324+960830698+966824642+971425432+972463207+969960189+966908172
1368+966255829+969229796+975698604+983637533+988911503+989533072+988577021
1358+989313677+991113402+992303182+993545958+995729669+997468147+997626896
1348+997819973+999954241+1003635957+1007536345+1011244920+1014861474+1018353123
1338+1021643867+1024528461+1026685554+1028708709+1031612936+1034450798
1330+1035209255+1034208457+1033929983+1035476889+1037778759+1040372835
1321+1044033834+1048153978+1050631701+1051175160+1051825937+1053704073
1312+1056319589+1059763662+1064754279+1070400733+1073741823+1072859907
1304+1069563021+1066895352+1064798604+1061038718+1056392821+1054656330
1295+1056948444+1059843639+1059761012+1056910022+1053507865+1050357201
1287+1046491563+1041086847+1035155174+1030780886+1029140874+1029601344
1278+1030134204+1028468537+1023425525+1015870943+1008314134+1003190241
1270+1000491738+996938961+989320241+978897747+970076060+965431728+963874103
1260+962033546+956597695+947317283+937984416+932510142+930559195+928389335
1250+923288448+915556087+906775351+898099886+889756977+881465257+873345477
1240+865502303+857112419+847708248+838747082+832091580+827739153+824250033
1230+820656003+817180674+814638391+813577611+813610372+813515701+812306409
1220+810246276+808750139+809082574+811197148+814090716+817086665+820173370
1210+823315783+826355213+829544118+833340680+837547727+841280452+843916684
1200+845646489+847046389+848715489+851266204+854874988+858847464+862425715
1190+865776502+869232499+872203635+874116701+876009412+879482512+884516250
1180+889748967+894560359+899691056+905760822+912519186+919692491+927001239
1170+933217891+937217588+940182461+944463342+950307028+955565099+958610732
1160+960338188+962709256+966527137+971005913+974076780+973789031+970014089
1150+964567217+961157291+963316250+970158265+975531604+974453118+969446842
1140+966234992+967369366+972831836+981048757+988205501+990853296+989234724
1130+986371328+984609303+984427066+985016415+985346381+986340674+990689006
1120+998411009+1005262177+1008146351+1008690532+1008777856+1007324899
1111+1003275337+997889652+993515003+991309551+990896115+991356164+992270480
1101+993705249+995501180+998675812+1004699266+1012092508+1016661921+1016646625
1091+1014301995+1011775973+1009387441+1008241624+1010724467+1017261870
1083+1023577288+1022048329+1010034243+994849199+985000456+981422867+979614771
1073+977022562+974414575+971233800+965146027+956426659+949040704+946390681
1063+947957159+950410251+951421407+951688018+952405884+952611187+951402858
1053+949799704+948654791+948165533+948325187+948951694+950044212+952167820
1043+956513502+963082643+968913260+970216622+966753940+962463904+961556574
1033+963973773+964958009+961446847+956846539+955813160+957262745+956150473
1023+951422130+947548662+948390047+953846013+961072436+966293951+967076257
1013+963953718+959144675+954303533+949804401+945091957+938904755+930361481
1003+920732856+912561222+906962767+902798720+898280075+892510464+885886520
993+879808202+875289618+871785683+868379189+865118979+862143628+859179899
983+856503136+854803804+853477377+850844939+846730335+842854639+840249422
973+838014641+834972923+831329449+827712474+823761860+819160528+814825325
963+811958135+810536856+809674091+809093474+809215548+810302586+812463593
953+815902004+820522668+825773693+831207255+836680325+841885339+846169171
943+848893631+850235355+851605805+854767248+860626834+869032255+879117858
933+889095841+896655300+901097581+904010481+906936208+910145349+913732272
923+917557260+920081958+919497728+916512620+914032728+913783944+914844724
913+915670813+916080214+915959104+913815321+909354431+904983214+902287481
903+900598025+899700813+900787188+904072632+907882082+910764569+912890345
893+915192817+918202497+921498118+923650754+923626604+922750771+923669785
883+927082481+930710357+932000107+931185462+931006657+933767011+938942696
873+943661283+945650772+945276422+944125607+942825619+941529364+941265644
863+942931070+945654988+947825510+949251547+951105775+954234035+957590302
853+959309146+959410201+958646746+956856897+954644279+954052340+955989014
843+957798254+956004551+951627613+949247633+950905049+954679329+958650239
833+962164894+963946793+962995439+960835395+960553729+963857240+969840043
823+976356910+981969156+986505988+990252023+993319998+996110102+998418838
813+998857688+997971737+999825242+1007654805+1018088862+1022419187+1017961549
803+1011028476+1005302708+1000196039+995247337+990410050+986760373+985518199
793+985736690+984674344+980858571+976093551+973360299+972700006+970492446
783+963944745+955255429+948014854+941652762+933760145+925248790+919158548
773+916458840+916078166+918086988+924024683+933281728+941000479+942522091
763+939369380+937186091+939749874+946431934+954338463+961826677+967963894
753+970301959+966877037+960062424+955381417+955989435+960328854+964706755
743+966393139+965301645+963624656+964258992+968154622+973222025+977311455
733+979987555+982091470+985792277+990648054+990021546+981275259+972729576
723+970605667+971524259+969505500+965259248+963966305+968215629+975793216
713+981419314+981586013+978595846+977019250+977328318+977875029+979812666
703+983515098+984025675+977519347+967895299+960563485+955271328+949480036
693+943672544+940049848+938878738+938149489+936850163+936222331+937120447
683+938712039+940197998+941544540+942214288+941780195+941164649+939604434
673+933404765+920987481+907238110+902218404+910073502+920231192+924086412
663+924515265+926222426+928356092+926430319+918459471+909141480+905392976
653+909351480+917418986+923867078+923782704+917546540+912420058+915139941
643+924359226+930217847+925233734+913677830+905756607+907471416+915763196
633+921541118+919744284+912230052+901836827+890033283+877003404+865965905
623+861538199+862652879+866140253+873520788+886435760+901567627+915469846
613+926422550+928361211+918736560+909569731+912707084+922309813+921963406
603+910997936+901653747+892856570
##END=
