##TITLE=<SNM>
##JCAMP-DX=4.24
##DATA TYPE=INFRARED SPECTRUM
##DATE=29/4/2025
##SAMPLING PROCEDURE=Instrument type and / or accessory
##ORIGIN=Admin
##XUNITS=1/CM
##YUNITS=ABSORBANCE
##RESOLUTION=4
##FIRSTX=4497.3318
##LASTX=599.83466
##DELTAX=-1.4281778
##MAXY=2.0478256
##MINY=0.43700716
##XFACTOR=1
##YFACTOR=1.9071862e-09
##NPOINTS=2730
##FIRSTY=0.45316827
##XYDATA=(X++(Y..Y))
4497+237610924+236982714+237216375+237863571+238331220+238421415+238205084
4487+237662476+236839218+236234182+236456404+237350683+237860836+237158870
4477+235810036+235337731+236522332+238507407+239759764+239550683+238240353
4467+236632294+235477164+235201438+235689995+236413604+236955525+237457146
4457+238442495+240037990+241482817+241760559+240698140+239131476+238092747
4447+238046774+238644794+238960727+238351597+237246940+236651702+236867517
4437+237169340+236892410+236347645+236222681+236478984+236488000+236092389
4427+235790269+235874401+236089998+236129001+235977582+235863260+236044994
4417+236450169+236609292+236302313+235973191+236014366+236000725+235279116
4407+234108048+233440022+233582894+233835212+233646555+233379001+233580409
4397+234231683+235048268+235935797+236756789+237054314+236595150+235983708
4387+236084810+236820685+237162402+236406837+234673705+232390167+230232280
4377+229137124+229509734+230758950+232032277+232915712+233329372+233412660
4367+233540343+233905484+234248185+234346803+234342365+234290454+233994569
4357+233491777+233023737+232525241+231926690+231742143+232463658+233603114
4347+234157521+233805225+233021955+232342179+231942770+231714063+231578645
4337+231683294+232119269+232715898+233287415+233641867+233486448+233055802
4327+233263585+234348318+235289930+235392782+235192093+235177279+234961074
4317+234187492+233321481+232988984+233034581+232713179+231765223+230837660
4307+230624845+231117277+231983820+233215925+234931009+236735709+237769485
4297+237515463+236358349+235239191+234878020+235301493+235927046+236187428
4287+236107624+235946689+235507464+234515254+233404847+232965826+233426709
4277+234348803+235125822+235495603+235799676+236430183+237009607+236853016
4267+236139674+235715294+235857837+235968831+235407971+234192914+232858176
4257+231963287+231849793+232548368+233601255+234272671+234449436+234906335
4247+236153628+237607471+238387193+238355441+237993191+237727653+237580219
4237+237248409+236581399+235959330+235862916+236126751+236174849+235964878
4227+236027805+236528551+236943086+236812184+236274123+235722404+235385438
4217+235303618+235480727+235959330+236697331+237394546+237633879+237245471
4207+236426558+235580423+235170998+235449818+236069324+236336316+236139174
4197+236145253+236698393+237101365+236596416+235554671+234910179+234866128
4187+234877254+234569071+234123080+233899718+234152989+235001733+236248605
4177+237264348+237426346+236834264+236257403+236156644+236212133+236073153
4167+235897435+235836007+235813709+236006194+236680376+237597767+238307187
4157+238774398+239106520+239122115+238771164+238461700+238494843+238604103
4147+238397944+237963876+237754515+238021803+238525908+238774086+238558396
4137+238236399+238355769+238999496+239655458+239827941+239642800+239677100
4127+240179831+240646183+240417835+239584264+238875360+238737770+238968509
4117+239204076+239323898+239377731+239446893+239550918+239642707+239803611
4107+240168361+240496686+240391661+240159844+240584881+241539384+241877256
4097+241106956+240108371+239733855+239829113+240075494+240628431+241389496
4087+241691334+241333257+241080829+241581747+242418787+242626320+241856161
4077+240781397+240337438+240713423+241286675+241458643+241196886+240704547
4067+240090151+239624705+239737262+240348829+240697203+240286855+239638128
4057+239655692+240545284+241758324+242748612+243287939+243229793+242595661
4047+241838753+241445829+241333054+241091814+240714392+240615243+241013198
4037+241632532+241980249+241812720+241415373+241350086+241813548+242397707
4027+242605084+242434413+242258820+242255023+242312231+242483730+243043778
4017+243935041+244588581+244599285+244253052+244082850+244108274+243813843
4007+242999868+242411614+243011931+244630725+245951244+246105960+245586541
3997+245211072+245074247+244888841+244610817+244426317+244628209+245481923
3987+246775720+247742350+247794245+247125860+246358779+245926757+245981950
3977+246495165+247206710+247708831+247734786+247297562+246584126+245850548
3967+245388962+245454186+246145401+247275497+248292537+248540589+247893722
3957+247017007+246661726+246798050+246841226+246673102+246845273+247609620
3947+248436206+248845225+248964172+248911902+248479334+247815637+247489766
3937+247503110+247315016+247047744+247509236+248657178+249245274+248681164
3927+247959509+248176808+249129905+249810166+249925911+250234937+251348266
3917+252643673+252686411+250965921+248635957+247270091+247438105+248648177
3907+250407827+252795014+255849009+258952226+261235639+262110823+261200590
3897+258649904+255583439+253540750+253310121+254102094+254281078+253699794
3887+253818586+255356420+257153651+258113655+258803214+259326352+258515689
3878+256470155+255055691+255506855+257501353+260213771+262570394+262971178
3868+261340195+259733215+259419078+259500132+258580241+256665110+254729242
3858+253988272+256090951+262254304+269371911+270518227+265677658+260076759
3848+256842937+256486891+258086778+260241383+262041771+263661424+265614559
3838+267367865+267722114+266674681+265246372+263907726+262441008+261039888
3828+260309639+260295122+260875796+262792319+266336152+269159924+269077510
3818+267559506+266289273+264672885+262311872+260453620+260314280+262258305
3808+265685878+268855085+270719244+272194588+273702529+273703373+271772615
3798+269868453+268943374+267885221+265835641+263729555+263075812+264307354
3788+266652648+269006098+270516008+271092932+271815306+273890733+276753820
3778+278326267+277908200+277100913+277903043+281158289+286028204+290630690
3768+294036324+296910225+299950515+303456657+308030015+313842198+319467833
3758+323241936+325865597+329862906+337338324+348552185+360309374+367837609
3748+371186394+374413357+380104966+386393127+389952274+391272480+393178299
3738+397944142+405812406+414175181+419417502+420429619+419226705+418563898
3728+419936327+423041592+426339779+428607910+429727474+430071066+430382998
3718+431685766+434494224+438772900+444344344+450342198+455238740+458593182
3708+460905629+462578834+464722454+468578595+472974095+474622235+472512899
3698+469253903+468039643+470449786+476148709+483317163+489073403+490629723
3688+488196235+484932582+482863999+481844225+481383186+481760687+483904901
3678+488605926+494513804+497227723+495251836+492853444+493211256+494518117
3668+493343861+489701175+486144279+484609210+485153632+486677980+488598425
3658+491021038+493442119+495257055+497729797+503011121+510874104+517055911
3648+517547828+514138725+511090403+510576391+512104802+513475669+513082636
3638+512010419+512778422+516051107+519841180+522472873+524914268+528819913
3628+533212725+536004150+537485214+539252614+542505954+547202479+551483656
3618+553274934+552853523+552036016+552332291+554692617+558933040+562545786
3608+561930671+556844425+551171879+548692918+550304743+553886298+556794421
3598+559160622+562957508+567813672+570648226+570543467+570518652+573192630
3588+577420553+580177725+580444060+579245020+578008228+577684387+577789709
3578+577121340+576159758+576788874+579483103+582891581+586041349+588902780
3568+590509855+589172241+586221302+585783515+589198931+592806550+592513088
3558+589061606+586069164+585604562+587601732+590860947+594099786+596997532
3548+599620443+601221580+601481664+601540294+601795128+601265896+599988350
3538+599168592+598891256+598403215+598336771+600075544+603138368+605061657
3528+604524111+602928913+602181224+602710331+603596844+603396765+601107195
3518+597593333+595571786+596608687+598716366+598548789+595816119+593553989
3508+594166291+597206863+600933055+604200271+606328577+606920752+606885124
3498+607862208+609853815+611135986+611104109+611081169+611892051+612856070
3488+613188349+613016522+612629739+611852235+610434364+608290182+605765717
3478+603898183+603640848+604485795+604618369+603176746+601612238+601815068
3468+603651037+605576951+607080391+608828727+610807834+612043939+611805293
3458+610041018+607336225+605074845+604958460+607673629+612009998+615466793
3448+616121349+614042109+610580689+606887812+604067697+603612783+605778405
3438+608386377+608923611+607064327+603930998+600388071+597646463+597324935
3428+599181843+600869487+600803732+599944283+600158614+602249480+605836098
3418+609319207+609887193+605640331+598302518+592169996+590239394+592371451
3408+596503303+600615215+603549403+604786633+604697876+604798322+606603288
3398+609804811+612099694+611251559+607188650+602131032+598744431+598262453
3388+600212806+603256315+606011488+607490363+607517803+607010073+607344539
3378+608999867+611078794+612502540+613250729+613828778+613890721+612392281
3368+609328270+606785053+607556307+612337651+618634750+623189263+625367824
3358+626724752+627731337+627337304+625683100+624759084+625938935+628121621
3348+628746424+626620993+623279833+621266537+621678572+623885197+626555487
3338+627992985+626961772+624044586+621148027+619631835+619786161+621437676
3328+623676992+625073173+625377949+625743918+626475230+626442915+625557527
3318+625336821+626280151+626975148+626320780+625093863+624741083+625285379
3308+624938975+622253308+618325099+615816573+615959335+617537032+618712819
3298+619038472+619744345+622220618+626149140+629634812+631557226+632777642
3288+634508602+636741792+638655018+639646915+639611849+638518006+636099863
3278+632648256+629882771+629757322+632300664+635229976+635893720+633663093
3268+630351373+628101306+627590575+628492527+630179546+631471343+631083310
3258+628927064+626266150+624648637+625050422+627386245+630365874+632499931
3248+633226930+633055166+633074105+633772164+634229578+633119609+630427192
3238+627566448+626002565+626462979+628750549+631452279+632687134+631851376
3228+630131354+629034198+629096954+630115978+631470406+632249347+632092521
3218+631718739+632172153+633771164+635769147+636928371+636577216+635443494
3208+634504352+633119921+630022345+625871679+622681657+620916194+619203236
3198+617031301+615883828+617266634+620719240+623985518+625183683+624638511
3188+623880384+623264144+621810271+619308307+617278322+617155437+618465548
3178+619693215+620102688+619690778+618362789+616185104+613684829+611390446
3168+609501222+607982718+606828057+606240632+606213755+606183627+605748903
3158+605308303+605383934+605633518+605007902+602898597+600165552+598776684
3148+599615943+600857986+599883341+596759012+594029905+593230649+593349159
3138+592796550+591363052+589739602+588389549+587414591+586670778+585782140
3128+584700923+583680898+582486796+580849470+579669744+580287734+582469045
3118+584324641+584402210+582966150+581207000+580047526+579703122+579764377
3108+579531795+578585277+577262164+576424280+576602983+577422928+578017853
3098+577887717+577078273+575779788+574235281+573020615+572703026+573112748
3088+573606603+574026326+574619439+574863335+573523033+570546592+567788920
3078+566834651+567264875+567965497+568819257+569955229+570627786+570189937
3068+569286985+569035963+569452061+569258045+567465580+564895173+563362543
3058+563495679+564202927+564386880+564090230+563666256+563118209+562558599
3048+562344581+562359207+561809410+560406353+559183124+559286196+560474047
3038+561484508+561491133+560652812+559376641+557759691+555887906+554171260
3028+553099669+552655193+552363856+551895254+551165816+550146230+549049199
3018+548308511+548096743+548304698+548861683+549452733+549270093+547892788
3008+546084134+544975727+544790523+544879969+544587131+543556918+541804207
2998+539981801+538840767+538296595+537763050+537113495+536555572+535960646
2988+535019441+533798712+532729809+532215703+532313398+532711620+533071525
2978+533273168+533401804+533709767+534346384+534758794+533759396+530815646
2968+527019197+524188675+523190340+523499648+524144515+524641370+524958897
2958+524954084+524342282+523277316+522418806+522193786+522401742+522653763
2948+522680578+522115374+520752570+519131526+518099813+517802225+517612459
2938+516905274+515699515+514719462+514694148+515457400+516134645+516272376
2928+516083954+515564659+514291613+512187466+509720130+507493628+506154764
2918+506167453+507166350+508113712+508467586+508512246+508399455+507812749
2908+506783537+505946028+505654565+505402888+504454713+502843607+501339448
2898+500471811+500118938+500064839+500237323+500265575+499611894+498416949
2888+497559470+497627069+498225401+498494924+498145801+497591222+497082523
2878+496397464+495528234+494846239+494361885+493543628+492139789+490712105
2868+490015577+490040704+489996232+489411713+488803724+488726467+488860166
2858+488683808+488284023+487933994+487572494+487046668+486268008+485119441
2848+483731917+482671702+482425993+482842716+483329414+483444205+483119740
2838+482375114+481137540+479555093+478133596+477216737+476627218+476113206
2828+475763488+475655354+475529187+475235693+475111277+475405145+475622664
2818+475032645+473740004+472614751+472087894+471618479+470564577+469144862
2808+468202157+468182905+468608598+468619942+467908194+466896452+466104228
2798+465629032+465177712+464393864+463254829+462200552+461686008+461633629
2788+461491898+460786744+459573360+458415448+457850682+457806803+457694950
2778+457081991+456043340+454927651+454042201+453483528+453078838+452583545
2768+451958211+451318938+450725387+450167277+449619543+449030930+448428192
2758+448023220+447990779+448144511+448067223+447536022+446666323+445765996
2748+445163976+444971522+444897235+444486668+443623314+442675420+442145781
2738+442221413+442571318+442578006+441877071+440648029+439358950+438339551
2728+437631710+437159107+436950464+437077881+437366781+437409316+436983623
2718+436273000+435607943+435146623+434828565+434454251+433784632+432754513
2708+431614197+430713214+430170730+429898332+429819763+429801168+429537739
2698+428855337+428000983+427367210+427060278+426899452+426683808+426373938
2688+426122573+426103603+426237489+426217487+425877208+425300878+424531906
2678+423509882+422361284+421419860+420889721+420704080+420638512+420396585
2668+419809660+419138572+418880925+419120289+419378749+419210797+418646655
2658+417979348+417369828+416770183+416141192+415612147+415321841+415168703
2648+414876053+414318912+413678357+413240351+413099464+413138155+413285105
2638+413560534+413800274+413690921+413210317+412648863+412123725+411485326
2628+410707229+409989012+409481500+409173630+408995771+408883949+408768720
2618+408529012+408022594+407276812+406572971+406185313+406100305+406074834
2608+405886506+405486691+404986773+404542266+404282182+404266743+404343187
2598+404147952+403543213+402920128+402747020+402992541+403266064+403312318
2588+403169774+403017949+402985759+403060234+403180432+403339070+403478301
2578+403425609+403074798+402497905+401830942+401200982+400740661+400519861
2568+400492797+400566834+400647747+400612338+400378818+400070136+399969783
2558+400169019+400380568+400325782+400133610+400019194+399814739+399276162
2548+398626388+398322580+398449622+398662453+398581540+398120438+397573079
2538+397357436+397540576+397737343+397616458+397326683+397248489+397497604
2528+397852509+398035525+397898513+397461663+396941775+396611997+396504426
2518+396422294+396304815+396329317+396582401+396914460+397211017+397543670
2508+397937891+398208508+398168067+397881855+397611832+397558828+397693402
2498+397777722+397553515+397008250+396457078+396222370+396263593+396281313
2488+396109704+395827243+395566908+395389299+395294573+395284322+395428209
2478+395787958+396197806+396322816+396104954+395900749+395989913+396206119
2468+396239403+396047105+395761019+395422052+395036238+394718336+394591481
2458+394670269+394936323+395353515+395754455+395922689+395836306+395650384
2448+395475307+395348640+395306886+395290072+395132934+394832877+394647111
2438+394756683+395002141+395107744+395047020+395006110+395026143+394897132
2428+394498911+394077438+394025527+394470565+395176719+395795271+396133675
2418+396210776+396150333+396100422+396217151+396561899+396978247+397236425
2408+397327371+397420691+397532732+397518449+397440724+397602457+398070715
2398+398532286+398817310+399163308+399701667+400117733+400127953+399906247
2388+399796737+399965752+400451668+401194763+401987486+402706204+403560995
2378+404903641+406974630+410044266+414478769+420291295+426786630+432977751
2368+438306079+442771210+446441147+449029993+450096740+449695737+448486228
2358+446808897+444117231+439888089+434602327+429552553+426022627+424622602
2348+425300034+427723022+431417774+435568878+439028141+441041375+441911011
2338+442445307+442863343+442799556+442224257+441619549+441151228+440338034
2328+438870721+437118572+435366985+433256618+430512009+427602199+425133864
2318+423142507+421348604+419645803+418089514+416681363+415352937+414154554
2308+413362486+413257071+413758958+414370135+414564401+414214403+413576536
2298+412970765+412640300+412771092+413315295+413871405+414104425+414171493
2288+414387511+414704788+414842456+414675067+414261875+413729986+413273448
2278+413072868+413144999+413353829+413514281+413443493+413061804+412526259
2268+412137788+412025466+412019216+411940803+411928333+412300708+413144280
2258+414197557+415120292+415765785+416237387+416775121+417504308+418232214
2248+418598589+418436481+417883309+417226847+416762682+416650829+416733805
2238+416608669+416034058+415192361+414476456+414084829+413896094+413739362
2228+413661762+413785710+414027012+414194401+414303629+414579402+415203081
2218+416166600+417253693+418187554+418971089+419945828+421346198+423025309
2208+424799492+426738688+428885871+431021990+432960780+434830877+436876833
2198+439140025+441450691+443652066+445735650+447744040+449647420+451422009
2188+453175533+455084071+457221253+459422878+461304101+462581397+463437345
2178+464339078+465451454+466416880+466719312+466203205+465274314+464549502
2168+464267291+464164219+463909448+463399779+462599336+461375513+459670743
2158+457669135+455596115+453504593+451405414+449319861+447099360+444574895
2148+441834880+439034673+436390604+434673708+434861411+436932431+439809239
2138+442640011+445364118+448122634+450905746+453655762+456300393+458814139
2128+461248471+463597483+465838831+468078928+470415158+472794486+475110089
2118+477269117+479259755+481263269+483448987+485657831+487631187+489479594
2108+491539238+493795368+495868513+497740641+500091467+503572857+508035768
2098+512727949+516969342+520475859+523301381+525579325+527238716+528009657
2088+527653126+526107932+523492335+519979973+515779646+511434683+507809374
2078+505426171+504114278+503379528+502718909+501722074+500273326+498480986
2068+496414028+494242468+492320836+490758765+489267545+487587120+485739244
2058+483864303+481984924+479980035+477933673+476306003+475358141+474743839
2048+474079814+473451917+473091136+473044601+473238773+473528298+473788289
2038+474121786+474837722+476283595+478749055+482285294+486645103+491572241
2028+496912915+502342877+507368180+511737740+515619227+519264287+522646075
2018+525569824+527986717+529805810+530559061+529895005+528229613+526253320
2008+524085323+521531543+518795278+516318224+514191074+512189903+510242081
1998+508487213+506949019+505518804+504261634+503369058+502858671+502650560
1988+502775914+503238453+503895009+504644729+505541775+506682559+508129589
1978+509867268+511730489+513469512+514934981+516185212+517479916+519166810
1968+521399906+523909214+526256070+528390502+530663945+533223538+535735127
1958+537823868+539490510+540995513+542608463+544552191+546963271+549747946
1948+552600689+555413741+558522443+562110749+565579169+568183203+570044987
1938+571745757+573513282+575468761+577958161+581054737+584201755+586733783
1928+588588566+590359967+592551404+594941482+597164297+599567439+602448247
1918+604857639+605648832+605436814+605773717+607071203+608593395+609777433
1908+610725264+611688846+612697995+613508189+613746896+613483561+613529878
1898+614583780+616232108+617496466+618255093+619193423+620388837+621011265
1888+620617607+619797224+619202423+618905711+618828829+618982467+619214487
1878+619286368+619163483+618952027+618842830+619217862+620282703+621350544
1868+621135463+619341810+616977046+614879555+613088403+611368319+609545163
1858+607445860+605101223+602884346+601029938+599358108+597807601+596823080
1848+596949028+598219886+599718264+599723577+597469260+594296427+591861657
1838+590533357+589672784+588788083+588201783+588398112+588870840+588258976
1828+586186799+583693899+581356263+578829548+576199886+574182714+573016927
1818+572290991+571748569+571608057+572073222+572900043+573489155+573403585
1808+572826349+572418439+572821411+574246407+576265329+578059732+579121322
1798+579627365+580143409+581276318+583249674+585170900+585519055+584389021
1788+583595141+584488654+586909986+589715412+591971354+593498609+594544573
1778+595519094+597065163+599980099+604489045+609149880+611598463+611406510
1768+609991764+608605271+608211237+609525474+612086067+614352885+615776194
1758+617212066+618901585+620298204+621718013+624228039+627859411+630999616
1748+632382734+632686509+633263809+634747560+637091447+639803240+641848352
1738+642831811+644305936+648141013+653284451+656025560+655685468+654489054
1728+653875064+654439300+656352212+659015064+661791738+665377606+671205915
1718+678898008+684727129+685691461+683671352+681951893+682193351+684739755
1708+689263140+694602658+698978030+702084670+705957812+712189405+718752402
1698+722330644+723101835+722375648+720843955+719964318+721144418+724400945
1688+729194479+736157947+745489304+752619286+752680416+749187682+747368652
1678+749031106+753792574+759570816+763814802+766660670+770171469+774443207
1668+777279637+778187526+779039349+780884819+782849798+783848696+784250293
1658+785098740+787388310+792405925+800261219+806204725+806636262+805343089
1648+804987434+804624403+802753369+800085829+798209357+797970399+799722735
1638+803365796+807442018+808550737+805142447+800310411+796997128+795536191
1628+794907325+794394969+794111633+793657656+791729305+788507843+786219460
1618+786204209+786759444+785040172+781546562+778623751+776984424+776040781
1608+775315657+774732920+774261004+773987231+774153558+774689603+775118390
1598+775229649+775373162+775832763+776377185+776625393+776519947+776417751
1588+776949796+778540119+780774559+782667720+783871135+785064800+787150102
1578+790411067+793320128+792793083+788887313+785181435+783739687+783748125
1568+783337715+781899280+779984742+778660629+779579957+783935141+789615000
1558+790129731+784784651+779574957+776858288+775849702+775298593+774501525
1548+773715333+773919600+775803261+779395192+784773962+791175508+794378780
1538+791841189+788002300+786637809+787082596+786841763+785736919+785854367
1528+788493529+793390009+799473027+805886760+811975654+816660428+819596741
1518+821957879+824591791+827411406+830692561+835274951+841632055+849693366
1508+858344541+863589112+862495332+859788726+860092064+863228269+867111787
1498+870530453+873998561+878095910+882580792+887610283+893283954+897563256
1488+897658951+894872339+893462594+895581337+900347055+905998037+911589575
1478+916774829+921123512+924802138+928921426+933342803+935965401+936855915
1468+938678945+942528210+946270529+947468256+946881019+946521738+947025031
1458+947677711+946849516+943778942+939676342+935703817+932203206+929461285
1448+928232805+929013684+931112113+933159537+934060364+933535569+932699311
1438+933473689+936579141+940162759+942236936+943288900+944268984+944742024
1428+944302924+944335739+946670501+951236827+955965605+958869665+959508657
1418+958873852+958260113+957839764+956703980+954024877+950113981+946581118
1408+945459147+947488383+950999994+953435139+954497980+955890786+958136352
1398+959730238+959574412+958561576+957926647+958073097+958965923+960163025
1388+960438548+958818160+956688666+956633162+959156877+963155217+968430479
1378+975124612+981557847+985503495+987430347+989617721+992454525+994570455
1368+995509785+996294477+997715723+999637762+1002145725+1005521388+1009105943
1358+1011635909+1012314654+1011386512+1010303108+1010677389+1012568863
1350+1014619975+1015718444+1015653376+1014857870+1014576472+1016321808
1341+1020027123+1023912767+1026704004+1028550099+1030158549+1032384488
1332+1035748337+1039594790+1042578606+1044121488+1044903992+1046419058
1324+1049684274+1053941387+1057845344+1060874852+1062928652+1064161507
1315+1065133965+1066417324+1067732936+1068632763+1069871743+1072053679
1307+1073741823+1073301786+1071639394+1070261652+1068334237+1064511537
1298+1060243173+1058514651+1059952774+1061838184+1061033741+1057019274
1290+1051326664+1045447851+1040014513+1035148224+1031236453+1028486531
1281+1025387392+1019461700+1011015793+1003996383+1001251649+1001323405
1273+1001017254+999123718+996196031+992542470+988018897+982515303+976138323
1263+969271426+962181572+954846384+947726591+942020917+938251909+935524176
1253+932671058+928998308+923753736+916391859+907755436+899594866+892658026
1243+885925827+877914520+868511594+859076728+851207870+845628583+841902390
1233+839014582+836204968+833395791+830878764+828729831+826742724+824832624
1223+823238801+822474236+823195672+825492868+828328609+830476042+831953730
1213+833947025+837413696+842117784+846956321+850931909+853704958+855470921
1203+856789346+858745637+862531147+868214756+874392907+879301263+881888046
1193+882160006+881281619+880987969+882289330+885107382+889079283+893855753
1183+898885618+903798412+908794587+914183921+919955975+926201882+933704146
1173+943574737+955790152+968165019+977497126+982241843+983391628+982299785
1163+979653872+976566297+975123736+977420182+983569706+990516922+994239927
1153+994195986+993340163+993616124+994299432+994497886+994884857+996497307
1143+999067963+1001301653+1002707336+1004397542+1007235471+1010179222
1134+1011858365+1013148162+1015952776+1019634590+1021072087+1018330416
1125+1013294925+1010486311+1012880015+1018471178+1022173869+1022031419
1117+1020859569+1020999581+1021015145+1018795956+1015822515+1015285157
1108+1017717114+1021277417+1024422748+1026685440+1028050744+1028560475
1100+1028167692+1026753571+1024210917+1021101840+1018234221+1016177170
1091+1014996695+1013744901+1012143452+1011128053+1010210850+1007998411
1083+1005192047+1003440648+1002929917+1002973671+1003237506+1002839284
1074+1000001043+992934128+980971860+967195436+957547427+955657579+959225132
1064+963204909+966029962+969063845+972056663+973099127+971927777+970403022
1054+969710588+969551199+969319492+968533425+966177162+961621586+956923436
1044+955540756+958165355+962261203+966270170+970905940+975146551+975859424
1034+972996930+970163752+969487131+970079869+970560660+970392333+969940983
1024+969878415+970808931+973602107+978374951+983215176+985384860+984168382
1014+981534532+979384912+977583008+974875840+969597766+960820331+950151922
1004+940554167+933328052+926485782+917642216+907920513+899961960+893735742
994+887614033+881924486+878486569+877742943+878064095+877279841+874459726
984+870537267+867137852+864882785+863063818+860558042+857000926+853286422
974+850449681+848251306+845686775+842278547+837902425+832646852+827627237
964+824301766+822901522+822845330+823891106+825773329+827738809+829288566
954+830748628+832570846+834761782+837595148+842111846+848997245+857185504
944+864607762+870600959+876324197+882485159+888027444+891714195+894021829
934+896850883+902010010+910044069+920011543+929864194+936797472+938699634
924+936077036+931372448+926872439+923710045+922136536+922003650+922588512
914+922682770+921685060+920056984+918418219+916938968+915548413+914013032
904+912329263+911711461+914032658+919327922+924998467+928611338+930585506
894+933005837+936695089+940289520+941970788+941638385+941249414+942645470
884+944990108+945836867+945178061+946254653+950913925+956469960+959258948
874+958930857+956896497+954202392+952271103+952662823+955517504+959532221
864+963366923+966636014+969474193+971280284+971059328+969585952+969543449
854+972533078+977311298+981191566+982813641+983883295+987204578+992372518
844+994622960+989920684+980303740+971304474+966917475+969146977+977487750
834+986198867+987908888+983679840+982138271+987232330+994433881+999205287
824+1001955647+1003126809+1002779342+1004083828+1009184387+1015220901
815+1018303726+1018475241+1018723200+1021388489+1026408229+1031038061
807+1031876382+1028002177+1020680679+1012107261+1005565954+1004739196
798+1010314484+1017343832+1019864734+1017863814+1014648665+1010648199
790+1003882061+993916587+982977843+974197470+969562013+967883245+964983248
780+958938233+952436242+947799034+944331676+941255352+939488514+939661654
770+940935700+942246061+943905578+947406126+953462579+961019410+968077074
760+972877483+974630319+974768894+976475102+980648519+984354835+984584667
750+982312786+981608789+984813874+989097364+990142703+988294483+986083732
740+983993929+982847082+985208783+991357369+996822022+996644882+989966813
730+980520571+975189992+978075800+985572626+990191832+988639888+983985866
720+980761842+982367041+990552863+1002649581+1012046256+1013324990+1008182990
710+1003288260+1001601429+1002108347+1003544907+1004261843+1002596326+998222704
700+991540322+985191156+984450531+992043927+1003083618+1007201406+998802503
690+984319145+974773269+973281892+973636110+970378520+964436451+958664647
680+955613200+957399914+963116526+967796300+967752609+964241685+956714669
670+944632702+936558327+942208746+954741188+960292723+954126136+941503248
660+930716392+925478633+925009281+927534746+930438681+931841675+934602848
650+941714704+947135978+940985766+926068434+914191609+911125911+914237738
640+919233539+925450568+932913141+938373794+937687736+930692015+920826112
630+912165624+908671702+912841369+923441897+933865410+936816099+933608951
620+931926495+935493799+937906942+928565271+909207310+891534367+880831331
610+877058384+882247389+897393741+915942321+926915568+925400002+914811850
600+901673043
##END=
