##TITLE=<SNM>
##JCAMP-DX=4.24
##DATA TYPE=INFRARED SPECTRUM
##DATE=29/4/2025
##SAMPLING PROCEDURE=Instrument type and / or accessory
##ORIGIN=Admin
##XUNITS=1/CM
##YUNITS=ABSORBANCE
##RESOLUTION=4
##FIRSTX=4497.3318
##LASTX=599.83466
##DELTAX=-1.4281778
##MAXY=2.1014433
##MINY=0.38577762
##XFACTOR=1
##YFACTOR=1.9571216e-09
##NPOINTS=2730
##FIRSTY=0.39689681
##XYDATA=(X++(Y..Y))
4497+202796195+202492252+202284699+201986862+201914592+202462619+203495189
4487+204176473+203797671+202817011+202334950+202596789+202942045+203055537
4477+203277434+203786265+204276031+204448926+204402893+204477325+204802923
4467+205060132+204852154+204324653+204175057+204899862+206084434+206643913
4457+205888028+204212867+202688079+202141635+202640219+203575911+204232541
4447+204374387+204132069+203483844+202367659+201180102+200642673+201166671
4437+202520743+203941922+204508131+203787834+202301830+201144759+201081016
4427+201938423+202733457+202486511+201142870+199686119+199208124+199876784
4417+200886940+201410740+201451656+201617729+202185141+202602667+202063716
4407+200557231+199045082+198477106+198927326+199832898+200645825+201039871
4397+200957626+200720791+200789437+201273524+201851778+202215840+202423179
4387+202638467+202672227+202162573+201221323+200406234+200005412+199824005
4377+199665684+199539523+199377668+199092973+199001470+199652816+201128663
4367+202839746+203954820+203841724+202441011+200524583+199265289+199131468
4357+199359791+198947092+197913699+197114797+197172906+198071823+199426123
4347+200655297+201235409+201265209+201437860+202065436+202572958+202354518
4337+201643844+201102350+201025937+201329165+201842458+202240432+202127443
4327+201610298+201378076+201828159+202465101+202536838+201952402+201240723
4317+200862926+200921735+201345200+202005120+202712215+203316538+203773778
4307+203952688+203624974+202927473+202491505+202794946+203711939+204835281
4297+205728869+205870623+205112835+204191183+204011527+204568798+205108907
4287+205005663+204142607+202861841+201810511+201488659+201789253+202176019
4277+202362741+202613022+203285383+204275148+205076624+205319261+205029449
4267+204421866+203780920+203468343+203575637+203711452+203613538+203667139
4257+204305527+205288242+206048527+206379135+206442116+206467790+206649197
4247+207012893+207255256+207006147+206337883+205799099+205876805+206528594
4237+207188376+207210350+206473211+205511160+204926632+204923221+205563695
4227+206956277+208796247+210185768+210363292+209430797+208200054+207480488
4217+207522471+208047047+208765822+209648354+210459210+210510467+209455908
4207+208060067+207627267+208640910+210201818+210992436+210707954+210117441
4197+209830401+209718478+209538761+209450654+209760323+210442978+210954854
4187+210628648+209561511+208792973+209083820+209951399+210467083+210548216
4177+210796578+211418231+212020012+212247817+212125859+211954487+212079034
4167+212597124+213265541+213778453+213998781+213897457+213551531+213190758
4157+212931249+212656496+212460106+212703961+213355262+213956205+214383431
4147+214839301+215159690+215000013+214549397+214299177+214352017+214438403
4137+214318623+214004933+213825019+214094959+214660376+215164974+215634929
4127+216269526+216954358+217486198+217825043+217798973+217214765+216427192
4117+216032264+216038431+216039177+215951695+215962628+216029340+215954862
4107+215803454+215938827+216673256+217928728+219229168+220074682+220278625
4097+219905351+219141045+218354645+217993065+218215297+218751736+219217762
4087+219511534+219805899+220161616+220358159+220210147+219871911+219717457
4077+220025085+220754078+221515566+221877755+221791978+221549523+221347209
4067+221149311+220893578+220619785+220445962+220530734+220908882+221264645
4057+221187152+220823333+220894020+221782567+222906153+223316568+222786509
4047+222007708+221769014+222152477+222588109+222635299+222450862+222336091
4037+222203474+221866943+221612155+222049447+223397229+225068431+226056597
4027+225866770+225004673+224365478+224288152+224421835+224356539+224085183
4017+223897350+224069407+224645498+225331229+225701230+225659552+225498946
4007+225411920+225279775+225097866+225206012+225841598+226720491+227304121
3997+227452925+227508765+227642920+227527921+226923917+226188484+225845725
3987+226015848+226584265+227477487+228360918+228572491+227910683+227123689
3977+227078996+227715602+228221052+228025514+227308050+226685163+226668687
3967+227348951+228445508+229608944+230561996+230997065+230664493+229714807
3957+228754613+228390521+228713118+229367876+230163200+231185598+232120300
3947+232246324+231635331+231412931+232210905+233137719+232979397+231842944
3937+230793654+230542124+231043829+231932269+232839060+233420024+233501401
3927+233241374+232883037+232369181+231575821+230937494+231349462+233285762
3917+235984372+237662031+237172797+235277231+233626861+232878758+232513950
3907+232406260+233446931+236091224+239168774+241110815+241497870+240517424
3897+238344457+235689413+233880797+233919018+235315011+236223385+235869297
3887+235563526+236415893+237718297+238522270+239182418+239740693+239271865
3878+238072537+237805566+239073784+240825982+242164719+242988229+242911101
3868+241941010+241270933+241605758+241985779+241245107+239767920+238618645
3858+238523244+240522693+245999325+253204948+255710609+251988839+246413791
3848+242166972+240203339+240298938+241613890+243295172+245249182+247808170
3838+250259011+251023743+250056316+248891524+248424843+248205504+247693612
3828+247075660+246630115+246555697+247567923+250054230+252302559+252463134
3818+251748121+251898433+251964840+250215993+247367528+245650491+246633023
3808+249802806+252611634+253702389+254630437+256589974+258039188+257597312
3798+256395000+255565520+254939421+254142178+253341037+252914314+253107811
3788+253976700+255325700+256686944+257785434+259089985+261131280+263214815
3778+264001109+263494486+263028307+263802784+266207806+269552707+272343536
3768+273983703+275379194+277173618+279206171+281727715+285212040+288869991
3758+291228781+292480583+294424390+298747179+305913241+314040105+319931797
3748+323235065+326334497+330500716+333707045+334150992+333712497+335173344
3738+339859860+346935561+353968259+359084834+362050659+363568670+364732549
3728+366624582+369665082+373422987+377547817+382241216+387304799+391814827
3718+395070129+397573307+401284859+408495203+419059645+428895932+434535789
3708+437220481+439662201+443142476+447479000+451516880+454169107+455501921
3698+456450663+457926007+460200954+463062956+466618973+470867817+474235225
3688+475157379+474865283+475038147+475627152+476124029+476725186+478177719
3678+481130630+484679703+486064595+485129528+485332360+488222899+491172186
3668+491681916+490936006+490953243+492391188+494827944+497675358+501031528
3658+505258688+509402308+511870494+513581592+517734532+525638768+533011256
3648+534389661+531818810+530268638+530774378+531340236+530621919+529669705
3638+529978582+531304787+532511911+533751562+536926218+543613097+551455813
3628+554167245+550427400+545691607+544167565+546169328+549865622+553651820
3618+557358469+561330566+565010779+567099644+567696567+569166582+572582017
3608+575316473+575151832+574107765+574861959+576491924+576459216+575577170
3598+577454067+583175636+589538836+592961215+593869878+595304564+598924964
3588+603744874+607448477+608668210+607541853+604741005+601450618+599395132
3578+599350119+599957823+599109035+596621084+594765933+595833938+599747134
3568+603888562+605495625+604797042+604216139+604876591+605423994+604501322
3558+603682258+605872905+611270369+616624342+618995893+619214014+619539093
3548+619575335+617719087+614920370+613733224+614977505+617733584+621394123
3538+625429323+628238151+628553180+627145599+625804105+625279300+625012634
3528+624712772+625531835+628383057+631538283+632138312+630435559+629567035
3518+630711483+631507096+629705668+626344077+624158851+624401519+625957844
3508+626987049+626961162+626620306+627145477+628948063+631325888+633726676
3498+635119821+634056506+631414208+630737553+634409483+640592205+645086609
3488+645913348+644675646+643275435+641389402+638235577+635550580+636161025
3478+639875471+643257771+643850735+643063832+643333056+644200483+643652593
3468+642131170+641956052+643505007+644925318+645092822+644532993+643593449
3458+641763697+639231342+636926671+635200710+634337060+635022669+636940985
3448+638152495+636955847+633966176+631472377+631037294+632895064+636037560
3438+637794158+635658575+630657029+626792805+626716545+629472563+632357834
3428+633728442+633959719+634272556+634695823+634133619+632466498+631191763
3418+631512274+632992643+634578570+636048950+637875717+639921458+641287011
3408+641404447+640355385+638735774+637694996+637732639+637658815+636499079
3398+635412374+635940103+637498560+637873403+635969036+633066223+630892631
3388+629584760+628399442+627995970+630077770+634481722+638567722+640450527
3378+641100564+641950509+642401369+641277753+639252782+638078245+638283696
3368+638752281+638673523+638925632+640570764+643221529+646127814+649489770
3358+653170775+655746133+656270207+655501272+654528044+653832141+653715559
3348+653861257+653379637+651932647+650461353+650518122+652414266+654740561
3338+655704226+654340257+650792889+646443574+643496845+642929829+643231701
3328+642408191+640973261+641510126+645576086+652015059+657826166+660512320
3318+659858689+657489331+655161879+654123842+655179117+657938911+660558490
3308+661139089+659524412+657517350+656761511+657421111+659049310+661106015
3298+662237549+661022263+658658995+658452570+661360377+664150140+663174597
3288+658809201+654694147+654193341+658408714+664851220+668355219+666162562
3278+660983280+657186727+656246695+656871454+657429395+657262744+657065454
3268+658463838+662126997+665962715+666525711+663199022+659225890+657824156
3258+659050711+660831064+661671630+661605664+661355017+661451560+662019550
3248+663001184+664483137+666417960+667982873+668230291+667216984+665828346
3238+665002034+665408734+666798468+667452160+665907103+663003804+660818456
3228+660464627+661672239+663198230+663161684+660476626+656538578+654130664
3218+654382346+656122742+658165986+660327152+662003592+662129920+660838678
3208+659191597+657807466+657280651+658133642+659277664+658768512+656831984
3198+655563401+655672309+656251507+656968119+657901756+657890122+655466005
3188+651340901+648121171+647461388+648422069+648883527+648122694+647066262
3178+646372978+645543804+643879363+641526146+639382887+638342536+638443647
3168+638468620+637056471+634596295+632766482+632290771+632416490+632301065
3158+631718090+630483861+628492878+626200998+624285058+623127636+622972193
3148+623907535+625357631+626186502+625644703+624065658+622489233+621622720
3138+621568997+622490025+624646318+627365668+628835744+627730096+624559338
3128+620731112+617336630+615218101+614628609+614576043+613901764+612958138
3118+612716689+612974645+613017282+613093542+613768065+614374308+613607688
3108+611447557+609313984+608383697+608396549+608090109+606614186+604147371
3098+601339579+599086072+598360750+599132364+599991263+599887350+599546860
3088+600148778+601401342+601970124+601425097+600653239+600339732+600069655
3078+599123288+597350305+595121772+593035343+591781378+591971297+593707125
3068+595997543+597019622+595784600+593263331+591164355+590203187+590088797
3058+590416617+590937707+591341117+591172639+590260443+589112218+588474973
3048+588402367+587995729+586334455+583604263+581119236+579971742+580022115
3038+580670508+581770856+583136166+584142407+584474187+584335433+583627287
3028+582020590+579738455+577350702+575256964+573748210+573095128+573275788
3018+573870519+574430164+574620692+574013171+572434188+570584762+569519315
3008+569357597+569358511+569359546+569796031+570285447+569749922+568063066
2998+566334669+565448360+565142041+564633378+563670870+562594032+561629880
2988+560705502+559744760+558534286+556770561+554752595+553261627+552463578
2978+551704633+550621278+549770785+549836203+550604711+551212537+551232211
2968+550785554+549821889+548532839+548089959+549355009+551077742+550879965
2958+548315693+545562233+544749504+545737960+546613975+545773958+543393880
2948+540988889+539757826+539693261+540246268+541036399+541527277+541061616
2938+539878125+538986090+538649438+538059276+536652852+534897837+533491596
2928+532559543+531963168+531718552+531794994+531911090+531810709+531411928
2918+530555039+529085390+527351450+526033225+525306684+524757271+524130258
2908+523584683+523204784+522836763+522525023+522582522+522978075+523167080
2898+522870994+522455158+522191964+521781792+520841395+519340194+517548329
2888+515910262+514810340+514253374+513976475+513857212+513866897+513747269
2878+513131402+512084472+511198103+510899946+510934147+510700738+509928575
2868+508872204+507967561+507448207+507191683+506833011+506091304+505024273
2858+503994185+503414165+503438346+503774907+503861370+503317591+502284092
2848+501299687+500728894+500435092+500134133+499721282+499079864+498010153
2838+496628368+495438024+494798494+494632513+494600047+494300459+493549432
2828+492665925+492126045+491777758+490912494+489361651+487871871+487047996
2818+486660818+486340276+486148469+486075498+485766012+485143720+484588003
2808+484194460+483612612+482896914+482713817+483269077+483775700+483408623
2798+482114944+480278858+478328472+476766879+475925400+475749308+476063362
2788+476537581+476465220+475464155+474198496+473559057+473530338+473421917
2778+472704452+471335762+469765032+468642878+468124133+467628535+466606548
2768+465272425+464274132+463847454+463634632+463274164+462790565+462372932
2758+462097982+461828909+461210729+460027542+458620387+457528962+456840886
2748+456372241+456193072+456426329+456762220+456671159+456048714+455309169
2738+454751168+454071072+452753364+450858072+449152761+448454300+448876531
2728+449618147+449652684+448781206+447726328+447145668+446942166+446599666
2718+445937995+445405332+445509885+445973353+445880891+444863777+443562271
2708+442676054+442116073+441350489+440248617+439279561+438879501+438831382
2698+438488943+437606928+436623041+435985582+435588658+435169289+434881000
2688+434927840+434924855+434322450+433269977+432357538+431785984+431422896
2678+431242784+431155469+430868306+430287677+429616900+428936986+428144966
2668+427292371+426590469+426135468+425862345+425664842+425403262+424918475
2658+424229608+423620472+423294753+423001134+422328438+421364743+420640212
2648+420417949+420472647+420529477+420493022+420277185+419793221+419144432
2638+418586157+418253159+418069910+417912700+417721014+417485626+417266592
2628+417165815+417182322+417108711+416655294+415762254+414762134+414142857
2618+414102564+414377301+414518339+414312553+413902656+413490627+413050761
2608+412488466+411939510+411650002+411634927+411698000+411713501+411694010
2598+411625273+411362961+410765673+409942894+409228657+408845408+408793360
2588+409051681+409505769+409701627+409202526+408278361+407747435+408007766
2578+408608831+408884695+408681954+408268646+407844465+407476231+407283632
2568+407319203+407381058+407232101+406932970+406739335+406731112+406766014
2558+406756603+406738391+406671846+406438955+406129834+406090334+406507236
2548+407118564+407462648+407262861+406536625+405549997+404715066+404341775
2538+404416452+404648399+404692772+404390504+403951979+403809905+404115067
2528+404561723+404873007+405141470+405478427+405709095+405679340+405573478
2518+405683391+406004237+406249645+406247148+406171923+406315916+406710586
2508+407068130+407077480+406696820+406129804+405565711+405048672+404588615
2498+404262927+404184261+404437527+404958616+405419191+405439474+405033841
2488+404665028+404737298+405152890+405473371+405435759+405197325+405109461
2478+405387091+405947803+406417240+406449828+406197414+406172776+406519753
2468+406798053+406632681+406199364+405899714+405855371+405883147+405825495
2458+405763488+405867736+406139702+406450802+406773476+407144268+407416660
2448+407359496+407068983+406947984+407145730+407343324+407237553+406910768
2438+406617088+406528859+406730412+407149568+407502179+407553283+407393332
2428+407276322+407255613+407165313+406933518+406698434+406560532+406448183
2418+406317804+406249249+406269928+406307602+406340798+406410693+406532057
2408+406714423+406997322+407441177+408134673+409083842+410039772+410624695
2398+410682469+410378465+410012788+409835143+409922976+410160435+410383764
2388+410470927+410229356+409379898+407723954+405145551+401491376+396738468
2378+391263130+385627536+380048620+374322240+368361293+362597605+357661051
2368+353761833+350599359+347861827+345670572+344565837+345096003+347285431
2358+350611480+354707104+359937429+366970249+375464952+383293050+387664750
2348+387030519+382159931+376032181+371799113+370154620+369734886+369465448
2338+369406182+370006547+371164212+372157541+372590950+373026277+374221433
2328+376051033+377687637+378700975+379561488+381003149+383191725+385722344
2318+388173474+390358152+392237424+393904027+395582142+397507280+399817220
2308+402452392+405051444+407105743+408411786+409277477+410143076+411126233
2298+412104943+413099429+414285753+415653194+416922782+417855322+418447555
2288+418802572+418962858+418888243+418537764+418001751+417498447+417156130
2278+416910417+416700550+416572912+416482064+416226270+415705668+415093121
2268+414687610+414662971+414950621+415343098+415702166+416018413+416335483
2258+416735970+417284773+417915045+418578970+419420966+420431015+421135841
2248+421130237+420709254+420509193+420718116+420940775+420676819+419806012
2238+418693512+417822796+417347511+417096499+416906214+416777906+416778059
2228+416889647+416951776+416803032+416519829+416350650+416386221+416537005
2218+416819569+417321289+417868540+418108436+418005741+417976473+418442652
2208+419417555+420541902+421426384+421953016+422287354+422680379+423298103
2198+424108061+424849220+425293867+425593486+426137904+427054546+428061428
2188+428813612+429253081+429597439+430024848+430456612+430750993+430967316
2178+431213608+431408369+431445616+431432764+431592136+432023931+432601393
2168+433030690+433113955+433080546+433480576+434538530+435771420+436529086
2158+436771175+436961886+437379762+437965600+438667167+439495611+440371839
2148+441233601+442164131+443243740+444400796+445490790+446498037+447622627
2138+449043243+450608065+452021433+453342643+454980222+457194929+459855256
2128+462615416+465160014+467348864+469248359+471048478+472916116+474820849
2118+476493360+477732889+478731152+479845357+481109068+482256896+483177346
2108+484051076+485116341+486603349+488807396+491847349+495324395+498490707
2098+500839569+502411517+503529407+504288870+504294017+502999973+500371837
2088+496983476+493372487+489579163+485429238+480997967+476612501+472556896
2078+468980170+466007219+463696030+461909707+460475874+459441278+458916686
2068+458726919+458486475+458035311+457601933+457472224+457611648+457738768
2058+457710140+457596207+457370503+456908740+456423162+456474479+457309166
2048+458522991+459632141+460694542+462070359+463807435+465656161+467642422
2038+470252255+473894735+478397271+483240236+488211691+493527839+499215938
2028+504718807+509390248+513165573+516425261+519314064+521452023+522332058
2018+521899350+520677424+519320642+518113761+516961821+515711937+514280784
2008+512538317+510354888+507889870+505599786+503776582+502265880+500774547
1998+499287355+498121528+497666466+497962947+498500513+498713274+498664180
1988+498857236+499558285+500655284+501891889+502986421+503837067+504735649
1978+506073092+507830543+509604775+511085784+512386467+513930183+515980492
1968+518272920+520274501+521807070+523155325+524641785+526418971+528545723
1958+530948825+533396636+535716414+537906817+539996839+542034540+544189128
1948+546612148+549285206+552174131+555230743+558105171+560372809+562176552
1938+564084939+566383093+568895408+571262696+573173276+574618987+576000742
1928+577771167+580108060+582940704+585854115+588085754+589290077+590062910
1918+591089922+592206046+592958109+593613932+594771049+596319760+597507515
1908+598068075+598584169+599505746+600560777+601391901+602082200+602763179
1898+603328855+603760223+604183978+604551695+604723097+604767379+604844370
1888+604988606+605167744+605315452+605331898+605318071+605624755+606310486
1878+606808551+606573193+605849089+605420705+605778006+606687766+607227920
1868+606317917+603848361+600904129+598502428+596723049+595050568+593166057
1858+591259862+589679234+588458588+587336981+586198320+585172222+584305830
1848+583707750+583931474+585212362+586172433+584998505+582109945+579312630
1838+577440789+576077489+574806104+573990878+574071706+574517815+574057514
1828+572303047+570231602+568612662+567220674+565699129+564201826+562978621
1818+562068314+561482050+561284578+561500993+562085978+562833106+563338115
1808+563321974+562942806+562689540+563070231+564271691+565933756+567417536
1798+568457462+569414914+570951869+573379580+575855410+576858484+576395686
1788+576045085+576798731+578403175+580370889+582725994+585437609+587907774
1778+589664981+591180435+593515257+597156001+601035574+603364671+603893800
1768+603664594+603513170+604072390+605796767+608209371+610003125+610709748
1758+611081790+611683159+612722110+614816092+618594249+623458320+627520808
1748+629696592+630688520+631447100+632429952+634069236+636520946+638970158
1738+640750694+642918926+646821645+651203974+653023615+652429494+651675909
1728+651679381+652326372+653526980+655321830+657867646+661663285+667233186
1718+673949728+679221412+680940611+680144389+679026315+678980815+680705618
1708+684436144+689508163+694341169+698299012+702681829+708363988+713520977
1698+716285340+717542472+717925904+717328859+716986420+718275531+721009195
1688+724451065+729333287+736756391+744079784+746569014+745209309+744044578
1678+745229897+748856083+753564466+757893011+761931074+766111484+769192034
1668+769836711+769642711+771172356+774810907+778666969+780890812+781927692
1658+783478596+786921015+793172992+801331530+806044055+804653589+801845553
1648+800833769+801754858+803316177+804392770+804679476+804005684+802585312
1638+801666964+802811594+805375988+806048440+803743647+800657676+798975937
1628+799171399+800303482+801500374+802127752+801137712+798402952+795415961
1618+793291463+791383076+788565903+785381014+782995575+781392045+779519168
1608+776781423+773896640+771771594+770426568+769649715+769633635+770224711
1598+770553384+770063541+769205312+768731733+768914464+769669633+770713700
1588+771220598+770150034+767681026+765549158+765128937+765961218+766902529
1578+767761977+768714739+769040488+768464031+768139987+768454407+767887026
1568+765487273+763038975+762290567+763186439+765748579+770977565+777466362
1558+778359554+772511291+767126436+765376538+765979674+766738193+766981774
1548+767992645+771231683+776452263+782022043+787071281+791395379+792594768
1538+789502281+785980434+785132377+786534050+787976350+788811982+790672128
1528+794755265+800205660+804987805+808490099+812047334+816466575+820854752
1518+824797246+829063358+833819373+838296357+841947029+844873657+847843654
1508+852392512+859159245+865048683+867337152+867886869+869300420+872491156
1498+876886337+881169991+884040582+885357102+886760602+890316985+895995124
1488+900986619+903382291+904413445+905960999+908665608+912435848+917280670
1478+923244541+930048368+937074396+943160453+946276392+945297072+942103473
1468+939745566+940016678+942553297+945044111+946068930+947102216+950276690
1458+955650947+960178121+960893820+958387474+954073730+949100690+946171930
1448+948513939+955610076+962443809+965012345+964125549+963005100+963666527
1438+966246575+969827870+973316215+976523946+979624961+982171021+983506484
1428+984047857+985061469+986680836+987165135+985203025+982868020+984134898
1418+989125418+993368201+995275005+997273845+1000051121+1000749703+997470220
1408+993038797+991566225+993541126+996641715+999721351+1002907946+1005564802
1398+1006913970+1007134831+1006249131+1003840120+1000841739+998902897+998198588
1388+997676646+996701225+996138838+997971027+1003211889+1010073886+1015145539
1378+1016911335+1016808152+1016558115+1016110483+1015065990+1014822835
1370+1017263215+1022003211+1027008106+1031851832+1037818505+1044193887
1361+1047015871+1044245417+1039352110+1037549889+1040986461+1046923896
1352+1050139850+1048421686+1044058057+1040341053+1039351866+1042095885
1344+1048359557+1055572459+1060460650+1062405036+1063010973+1062988071
1335+1061607230+1058673292+1055872261+1055225756+1057262117+1060920281
1327+1064260004+1066153347+1066646235+1066321338+1066375670+1068013432
1318+1071080764+1073741823+1073545691+1069688472+1064920153+1063475842
1310+1066656590+1071410168+1072937682+1068774327+1060949030+1054390917
1301+1053305248+1058117301+1065054399+1068374388+1064540680+1055939749
1293+1048356999+1044724783+1043326278+1041737853+1039722811+1036990853
1284+1031505130+1022273775+1012112500+1005016363+1001707704+999069730+994015010
1274+987179632+981597426+978634556+976625666+973340336+968149663+961640217
1264+954481708+947161604+940603186+935535187+930866700+924543823+916486397
1254+908609388+902017103+896290114+891133795+886575008+881694187+875076990
1244+866446579+856853355+847798398+840475370+834995250+830213896+824955979
1234+819336252+814496364+811373116+809954693+809496036+809196296+808618133
1224+807649290+806287818+804546874+802576662+800928180+800545967+802092363
1214+805494703+810258149+815521914+820058834+823255235+826021669+829945646
1204+835427532+841202093+845657941+848242922+849608536+850866278+852935834
1194+855969300+859167528+861746053+863959359+866450721+869255163+872509429
1184+877225304+883928385+891140069+896635598+900097387+903506061+909394829
1174+918821706+930005121+939276250+944624864+947494054+950167416+952755992
1164+954384373+955757662+958478230+963147935+969138485+974692123+977583241
1154+977553943+976937955+977219848+976822712+974237974+970897946+969243312
1144+970156482+973218027+977686667+982498415+986705139+989336047+989553985
1134+987817670+985777959+984816669+985175737+986375735+987987001+989699926
1124+990950846+991546063+992120754+993333726+995101654+996756471+997698147
1114+997805350+997311427+996543954+996054538+996488647+997415279+997111275
1104+994630511+991240292+988642337+987094783+985989379+985084127+985543758
1094+989575852+997585828+1005814718+1009123316+1007056805+1003302890+999839883
1084+995451828+989353163+983932309+981002513+978072230+971909730+964324422
1074+960372730+961655810+964285134+963790846+960418778+957254660+955227314
1064+953186020+951158674+949963305+949286041+948879707+949493320+951454760
1054+953797135+955423507+955652469+954092064+951498616+949026136+946688695
1044+944391272+943172452+943819931+945382103+945772052+943841250+940615612
1034+938295347+938329518+940624809+944803758+950137753+953895566+953004080
1024+948550120+944806499+943716140+944156157+945913548+950227048+955895807
1014+958803614+957112799+953389461+949995771+945709558+938234498+928327219
1004+919070160+912194033+906767819+900902136+894379412+888436433+883343461
994+878302202+873123590+868238993+863375349+857677901+851365622+846049961
984+842892847+841384276+840487003+839803527+839111583+838296052+837657466
974+836946275+834951516+831195530+826772269+822761616+819147003+815639654
964+812247913+808782043+804933412+801429900+799993204+801341519+804324002
954+807655990+811522468+816588762+822454018+828031168+832887442+837762841
944+843647833+850098440+855192264+858179560+861024507+865860254+872262864
934+878605415+885171325+893885915+905001597+915596738+921958781+922658947
924+918776998+912842669+907817429+905361395+904814663+904681634+904876304
914+906043228+907230800+906435065+903618197+901316572+901416099+903053496
904+904443413+905155579+905687693+906274566+907079072+908467710+910317684
894+911618368+911461645+910443404+909954719+910216268+910933429+913505436
884+919556714+927548113+933764762+936497269+937112100+937619545+938589058
874+938968287+937798683+936100010+936093432+938627614+942427882+945780945
864+947870663+948254887+946428790+943298781+941832238+943883583+947297800
854+948843831+949186026+950963273+953526631+953297242+948818370+942982229
844+940139109+942578575+948871058+955459749+960869821+966096857+970637553
834+972774660+973635508+975796735+978746205+980423437+980849689+980506763
824+978612933+975599629+973948466+975703847+980949521+987588281+991967564
814+992205359+991676473+994400513+999450726+1004445449+1010300412+1018727747
804+1027068042+1029528340+1023947840+1013099311+1000823832+989635727+980296804
794+973008191+968331420+966860066+968081565+969556696+968096001+961687971
784+950943721+938959576+928531208+919905792+912525082+907748479+907068656
774+909391296+912189830+914581421+917939052+922626360+926514948+928940283
764+932173109+937311764+942127593+944709347+946186244+947888876+949736474
754+951726117+953680430+954559735+954005997+952198660+948525330+944013870
744+942990574+948562424+958453622+967459973+972449641+973135798+970710341
734+967817396+966929504+967532761+967166080+965553779+964511965+964933771
724+966855924+970806641+976389760+980773124+980774647+976029109+969740341
714+965895426+965446515+966368274+966822240+966172812+964522198+963322566
704+966065366+974397742+982712515+983431016+978242171+974941612+976148859
694+977020245+971360927+958768286+946310867+940930641+943089310+948092256
684+950425190+947941137+941418230+932910066+925304352+921564446+922809579
674+926111173+926138278+918899672+904340413+889311169+885823189+895293800
664+908716651+919721537+926907151+931253299+933226983+932133213+925637837
654+913108970+899361770+892142534+896203560+909450562+923529846+929952373
644+928063172+923058337+918673389+918335458+922637750+923182534+914343261
634+904766604+901811470+904451880+909175308+912135315+907756823+893267734
624+878913074+874482138+877081312+876997012+871838256+868823977+873350725
614+884459403+896451709+900846342+893697336+882210587+877130223+880698118
604+884898202+883447618+881085021+884352688
##END=
