##TITLE=<SNM>
##JCAMP-DX=4.24
##DATA TYPE=INFRARED SPECTRUM
##DATE=29/4/2025
##SAMPLING PROCEDURE=Instrument type and / or accessory
##ORIGIN=Admin
##XUNITS=1/CM
##YUNITS=ABSORBANCE
##RESOLUTION=4
##FIRSTX=4497.3318
##LASTX=599.83466
##DELTAX=-1.4281778
##MAXY=2.0918572
##MINY=0.38303432
##XFACTOR=1
##YFACTOR=1.9481938e-09
##NPOINTS=2730
##FIRSTY=0.39491618
##XYDATA=(X++(Y..Y))
4497+202708874+203170274+203692161+203931871+203780427+203408730+203088785
4487+202869726+202721586+202924644+203728125+204722579+205189104+204992991
4477+204652609+204667829+205044069+205331202+205085678+204359525+203629135
4467+203202858+202921324+202595336+202395231+202563257+203011640+203476482
4457+203878911+204176752+204014645+202968945+201192242+199513611+198812378
4447+199264432+200136186+200563167+200542102+200651571+200932768+200896482
4437+200582304+200615515+201181947+201827345+202277854+202688834+203055176
4427+203086811+202722014+202144384+201301359+200035498+198743693+198150031
4417+198268754+198317094+197831080+197357411+197791016+199178843+200406491
4407+200362388+199346625+198706107+199064495+199708959+199824547+199477250
4397+199039682+198471414+197706498+197218663+197552223+198620549+199791214
4387+200342257+199880902+198701594+197623356+197202295+197346244+197711408
4377+198062851+198284480+198315212+198117386+197714238+197356860+197542877
4367+198543725+199873575+200454525+199587376+197826797+196609964+196894985
4357+198382551+200037655+201073488+201464857+201738238+202189756+202380484
4347+201767471+200599437+199580125+198916278+198338694+197808455+197624458
4337+197894350+198290798+198465831+198577486+199057840+199829564+200282459
4327+200148989+199864228+199966996+200551893+201171514+201051215+199865605
4317+198427786+197968282+198664743+199439266+199341990+198722873+198683390
4307+199533804+200338203+200211280+199500593+199211885+199813028+201055988
4297+202404883+203230072+203064462+202139534+201382297+201501801+202328947
4287+203296141+204126286+204614671+204314842+203168010+201944248+201414651
4277+201559732+201964823+202427615+202882622+203180217+203177755+202893957
4267+202546568+202469316+202839865+203403300+203619819+203299323+202974375
4257+203336022+204443569+205781955+206865746+207477474+207591593+207377460
4247+207076346+206766986+206513110+206561572+206984760+207341832+207142859
4237+206473872+205827526+205574186+205845990+206517011+207045659+206877510
4227+206253192+206035158+206571332+207346421+207859588+208136364+208218863
4217+207931394+207474675+207546420+208474759+209710881+210456584+210446748
4207+210019675+209732726+209899345+210354887+210764980+210995007+210915093
4197+210249732+209026888+207803462+207161124+207276742+208022001+209116454
4187+210138842+210645492+210413552+209593091+208670642+208301454+208984851
4177+210620052+212360821+213207915+212922710+212154168+211606032+211398155
4167+211380379+211659190+212376287+213250549+213877682+214260056+214526537
4157+214439158+213756037+212845107+212446089+212895603+213753849+214165900
4147+213659220+212567933+211591652+211146084+211239291+211692171+212350388
4137+213178743+214112497+214905561+215340023+215461790+215472728+215500783
4127+215496898+215289495+214783625+214106653+213505725+213177489+213210592
4117+213587092+214224306+214952279+215389372+215115472+214177679+213168937
4107+212685340+212942153+213929219+215542514+217391895+218780227+219194787
4097+218827481+218460633+218711251+219428103+219995224+220177615+220329518
4087+220697650+221047839+221192583+221314014+221565411+221835977+221943900
4077+221720649+221086403+220304002+219858541+219909849+220093969+219891385
4067+219112181+218134538+217673505+218121903+219104624+219784349+219607954
4057+218797788+218104571+218074833+218695510+219661618+220681037+221556768
4047+222266155+222916326+223484930+223730668+223399051+222441264+221164588
4037+220181561+219954854+220398295+221058547+221540553+221667873+221508551
4027+221419336+221769188+222389452+222639595+222343743+222220095+222914230
4017+224003972+224518622+224180137+223559811+223262934+223483416+224121593
4007+224848542+225251108+225326785+225558112+226128522+226479337+226125707
3997+225473395+225250634+225496877+225674235+225554517+225477709+225780475
3987+226343114+226813188+227005354+226931284+226693471+226536550+226764711
3977+227405443+228138066+228639148+228804728+228673965+228399790+228230983
3967+228313008+228613541+229090238+229674645+230141507+230324143+230326667
3957+230229926+229904183+229442859+229408333+230268843+231712842+232712803
3947+232534313+231725829+231512645+232105419+232375725+231617753+230565658
3937+230127479+230474654+231656272+233752951+235918880+236597076+235561059
3927+234427413+234535842+235334320+235492710+235123629+235580471+237331030
3917+239024653+238890831+236751320+234098075+232496176+232388452+233470744
3907+235945406+240469203+246456732+251481885+253567366+252828700+249991168
3897+245783921+241950604+240607659+242277280+244687188+244777198+243216924
3887+243360046+245988233+248318626+248671246+248677182+248884477+247544515
3878+244994360+244005888+245755544+249115651+252997553+256459816+257375030
3868+255298941+253077191+252719584+252774119+250815331+247152703+244206743
3858+244312463+249348095+259876065+270206039+270073105+260885480+250896576
3848+244394778+242441773+244604598+249541883+255669292+261945529+267315930
3838+269721540+268115832+264545569+261386317+258799035+256114844+253872397
3828+252950223+253138687+254567771+258944207+266277358+271396361+270436357
3818+266978561+264320422+260813306+255147880+250033144+248717001+252168464
3808+258185701+262529339+264078386+265841260+268847446+269848661+267464896
3798+264452591+262008310+258890299+255038121+252201307+251521628+252699575
3788+255009729+257831107+260352181+262140877+263890228+266144577+267736303
3778+267216864+265412045+264511823+265931331+269825470+275067098+279737397
3768+282930426+285042968+286238430+286973654+288968559+293263399+298171482
3758+301303627+303508534+307931414+316513017+328012356+337217145+340219354
3748+340671331+343684524+349303446+352350201+350419821+348051108+349984732
3738+357854301+369538831+379503504+382989417+380361352+376081289+374619530
3728+377650651+383516168+389005613+392727841+395588365+398149457+400190744
3718+402257088+405860118+412714490+423809366+437178110+446758573+448626693
3708+446178281+444461575+445676985+449730432+455235909+460000838+462382523
3698+462380657+461307880+461361910+464978371+473442765+484679815+492039033
3688+490547352+484192042+479299838+478402003+481003756+485347027+490673831
3678+498110300+506990294+511906301+510626428+508506023+508653643+508448382
3668+505898610+503156396+502044825+501962066+502056329+502750831+504882739
3658+508608179+513358301+518740726+525585399+535353837+547216857+554961997
3648+552307652+542865233+534479437+530568623+530429172+531987978+533854323
3638+536141837+539524584+543786932+548177289+552973211+559032394+564737410
3628+566012908+563231411+560328207+559489052+561808996+567654198+574171630
3618+576610098+575332275+575137141+578465062+583809060+588997085+592496338
3608+591974512+586584745+579953011+576827444+578528944+582602033+586097063
3598+588490007+590854375+593659920+596319589+598483928+600698565+603114883
3588+604338859+602683190+598514829+594351241+592586348+593506946+595571790
3578+597528574+599422271+601311379+602729327+603669383+604830396+606639529
3568+608558987+609693382+610314212+611593014+613390338+613920852+612480509
3558+611097378+612117348+615635080+619941790+623487975+626218685+629050114
3548+631714862+632328900+630177411+626997997+624593305+623487792+623793434
3538+625136241+626094532+625286461+622844627+620531965+620401141+623278523
3528+628212122+632823924+634926829+633833125+630375910+626432299+623652881
3518+622378729+622061828+622408223+623553509+625629674+628849534+632990544
3508+636067648+635317157+630753940+626260172+625741835+628725931+631259978
3498+630914440+628967753+628148301+630229667+634986856+639835584+641638170
3488+639991373+637316529+635935356+636147134+636275632+634457321+631007204
3478+628609548+629928247+634847833+639592172+639849046+635858380+632527766
3468+633945653+639398935+644565850+645951306+644432273+643990422+646592940
3458+649510646+648886267+645187231+642214454+641640679+641740234+640214471
3448+636346490+631333895+627621397+627136591+629535899+632995867+636261436
3438+638625314+639327098+639000162+639687689+641824003+643767203+644510167
3428+644237445+642904735+640824960+639424268+639054254+638010909+635616191
3418+633734487+633803081+634998298+635956650+636345082+636163533+635305225
3408+634505844+635297760+638168472+641049281+640769706+637167593+634057569
3398+634660593+637971381+640634354+641090400+640364385+639830506+639854247
3388+639947194+639490658+638478826+637643955+637871825+639510973+641977222
3378+643737097+643379199+641291531+639529208+639977850+642836080+646384406
3368+648086335+646587617+642893782+639280411+637470115+638125395+641166704
3358+645543722+649304131+650854004+650512933+650372441+652508205+657212587
3348+662653203+665991894+665739181+663179862+660012442+656654170+653387806
3338+650870341+649402953+648441296+647172162+645743628+645262800+646455141
3328+648986924+651773990+653761736+654605357+654590611+654098279+653269526
3318+652197422+651151875+650186241+648922797+647491204+646970419+648213671
3308+651008141+654315869+657015128+658555027+659113137+659278900+659397180
3298+659137368+658139182+656993589+656902111+658321221+660425105+661945055
3288+662360533+662186510+661970327+661610838+660687792+659158295+657944476
3278+658122171+659809537+662159097+664314930+665814811+666193514+665367759
3268+664292168+664112148+664764980+665107826+664217639+661884845+658477010
3258+655074560+652820639+652045611+652618774+654532542+657244038+659156093
3248+659105122+658138264+658648096+661668662+665821970+668948822+670168944
3238+670211838+669976380+669481906+668419103+667052677+665733184+664046369
3228+661917092+660829568+662164543+664755985+665969988+665475453+665571399
3218+667388364+669334133+669742024+669130739+668641528+667844594+665763412
3208+662964352+660778108+659083828+656737021+654001599+652837283+654234242
3198+656498810+657166634+655745688+653588569+651868773+650360081+648181424
3188+645511414+643771058+644067827+646264291+649312759+651545324+651163256
3178+647886367+643722167+641020583+640105920+639400587+637763764+635874779
3168+634998971+635253031+635826561+636105953+635840206+634990711+633631260
3158+631625219+629136208+627311961+626918879+627004789+626485350+625872413
3148+626153702+627235963+627951087+626733168+623159509+619273232+617808597
3138+619210574+621671989+623326067+623308690+621941223+620469979+619595947
3128+618712001+617380759+616274634+615615988+614334616+612039760+610135048
3118+609655444+609774152+609587768+609731380+611017281+612765714+613386666
3108+611854416+608431345+604669650+602331105+601709173+601717372+601630483
3098+601729916+602227878+602677254+602767264+602667770+602484874+602099441
3088+601638438+601569538+601891396+601816010+600831652+599537247+598745820
3078+598458167+598282063+598128049+597931263+597364341+596480395+596006849
3068+596309248+596502913+595289645+592549756+589574593+587606000+586766539
3058+586756076+587801195+590103884+592721332+594108256+593769694+592404064
3048+590482709+587861038+584878900+582694797+582179763+583015492+583979229
3038+584060733+583377367+582763084+582434679+581666749+580023685+578211064
3028+577177265+576933669+576812942+576539608+576175958+575174222+573000154
3018+570686023+569917359+570670052+571462825+571553937+571118695+569988216
3008+568205884+566824773+566442827+566103775+564749220+562821501+561591651
2998+561478266+561814136+562064157+562363068+562723047+562624287+561776505
2988+560678456+560082163+560304649+561071661+561534928+560673194+558354841
2978+555874518+554783079+555201371+555907438+556076567+556020578+556026881
2968+555606630+554341534+552611581+551035397+549854498+549179025+549255757
2958+550082001+550930762+550757840+549258082+547169374+545461509+544541890
2948+544118152+543598407+542713788+541688372+540822355+540135073+539411383
2938+538409403+537138065+536041486+535507729+535134227+534135367+532615294
2928+531562404+531423687+531606705+531508190+531314525+531500847+532077192
2918+532677524+532993568+532815384+531881385+530107620+527995965+526367281
2908+525564656+525306191+525253935+525241208+525089090+524717547+524252260
2898+523641710+522637099+521401557+520466824+519925724+519248171+518088811
2888+516856146+516271723+516527374+516984399+516829956+515991536+515036733
2878+514302641+513726968+513335599+513206856+513101243+512687479+511986398
2868+511254907+510629518+510081534+509595780+509279215+509225338+509225246
2858+508854620+508049885+507267147+506875564+506722743+506320513+505194348
2848+503195496+500829751+499120725+498733914+499236159+499534948+499109007
2838+498417441+497938418+497449024+496657474+495794027+495022579+494018090
2828+492632695+491306256+490489742+490168741+490010963+489677602+489098932
2818+488530449+488164657+487830593+487292491+486624942+486092837+485789643
2808+485484765+484832606+483777972+482728019+482151857+482000749+481776244
2798+481231106+480662470+480349424+480101667+479642561+479053336+478519823
2788+477957031+477190815+476329540+475689251+475359623+475024242+474326711
2778+473297991+472310910+471697361+471441833+471171712+470523163+469559762
2768+468635064+467847033+466972725+465950552+465035308+464463919+464269489
2758+464370268+464566993+464553807+464234978+463841498+463457533+462793167
2748+461726968+460621454+459798392+459137575+458375611+457416983+456345155
2738+455340849+454480461+453717702+453188748+453069398+452985996+452256401
2728+450880399+449652782+449221303+449420078+449475179+448787438+447593506
2718+446667676+446302006+445907241+444814088+443229368+442074567+441905102
2708+442332848+442642407+442552856+442135297+441452972+440540604+439459444
2698+438337440+437441532+437013908+437028196+437225807+437209286+436546664
2688+435199482+433789275+433019539+432947886+433130262+433242484+433283818
2678+433332372+433370126+433355226+433248878+432872562+431999967+430753473
2668+429628532+428994209+428829242+428964869+429247473+429386312+428978422
2658+427933793+426700301+425819782+425405528+425198004+424913288+424402508
2648+423711371+423064351+422625377+422344149+422115881+421896608+421631841
2638+421241940+420658527+419857708+418964217+418226239+417796657+417697224
2628+417930387+418323102+418349689+417550736+416191163+415179851+415205061
2618+416042687+416793575+416792566+416179782+415561338+415279346+415136774
2608+414808247+414340115+414018839+413853321+413575612+413167630+412991220
2598+413216276+413393879+412944900+411997990+411274024+411109088+411137480
2588+410981232+410644964+410195557+409681625+409370721+409528529+410002901
2578+410388641+410499761+410407304+410143546+409698208+409273919+409155027
2568+409244089+409125167+408714676+408446206+408667254+409202571+409601436
2558+409539757+408970816+408136158+407465183+407293363+407576946+407935823
2548+408033941+407833759+407455056+407002559+406637838+406567623+406788579
2538+407003446+406929835+406609966+406334123+406310045+406477735+406637899
2528+406675806+406613699+406534428+406571417+406876019+407389706+407716306
2518+407496574+406914813+406527850+406570591+406752110+406766550+406654298
2508+406590385+406634932+406738709+406781542+406649556+406394120+406200485
2498+406165240+406233038+406291535+406215293+405951351+405644271+405527399
2488+405679700+405998926+406336877+406609079+406847841+407095292+407237374
2478+407147211+406959084+406931181+407118850+407386769+407549900+407415344
2468+407026025+406854021+407316737+408158278+408701245+408595050+408009588
2458+407315207+406899210+407064483+407790253+408681113+409303596+409492641
2448+409288604+408752063+407981991+407229909+406837622+406981112+407450008
2438+407768867+407673901+407431988+407556203+408256947+409269666+410101906
2428+410359668+409993478+409325685+408741997+408385017+408219896+408201907
2418+408217265+408066249+407709299+407384321+407343875+407592580+407953079
2408+408285828+408603739+409027691+409603700+410145473+410369580+410216514
2398+409945903+409907323+410290064+411035201+411863281+412443818+412638615
2388+412511799+412117095+411422042+410397483+409003185+407104501+404568159
2378+401478939+398199052+395173010+392662337+390634329+388823635+386901607
2368+384734699+382560722+380806109+379764723+379592076+380413363+382152710
2358+384486880+387226249+390562217+394843014+399909853+404528325+406955657
2348+406194458+402781973+398720540+396050163+395139600+395181821+395649310
2338+396315267+396725360+396458206+395689695+395088476+395140212+395801366
2328+396769019+397714185+398315190+398608563+399221347+400653460+402491352
2318+403921110+404767209+405463303+406285936+407139471+407939250+408800035
2308+409841881+411002954+412080718+412912102+413523448+414128889+414952562
2298+416010623+417080983+417931213+418525303+418929400+419116640+419037736
2288+418836514+418774590+418903761+419005489+418932765+418822226+418857777
2278+418996402+419028160+418796771+418340266+417889849+417673329+417675257
2268+417698356+417647354+417587817+417582860+417651056+417827313+418132405
2258+418528914+418977770+419496873+420090657+420619947+420875934+420876546
2248+420911944+421131034+421297592+421161384+420821139+420507879+420259296
2238+420006001+419758978+419517677+419139219+418470477+417572275+416711214
2228+416124497+415863095+415884358+416172929+416677376+417246838+417735314
2218+418077701+418238661+418238110+418228687+418382915+418724017+419174740
2208+419689895+420259204+420872110+421531153+422238964+422964337+423683682
2198+424458374+425382643+426415647+427356836+428059415+428590113+429105850
2188+429664205+430228710+430752800+431181739+431461468+431631881+431853754
2178+432263939+432837806+433453435+434016135+434438956+434645807+434717032
2168+434851099+435105800+435415145+435846409+436534242+437402707+438218854
2158+438841153+439293008+439759028+440506460+441580675+442649199+443361569
2148+443741648+444083025+444622871+445415307+446389293+447454360+448579730
2138+449785655+451118427+452674510+454540764+456621548+458624622+460326704
2128+461811164+463378292+465281994+467594687+470183438+472697292+474740384
2118+476231912+477426395+478444621+479087663+479323702+479609091+480426248
2108+481741489+483161211+484461888+485743414+487124434+488517844+489775934
2098+490860643+491726843+492195954+492072993+491264831+489759566+487668195
2088+485226086+482568681+479644244+476472754+473278777+470267635+467517803
2078+465180297+463486506+462384328+461404468+460140381+458748929+457762460
2068+457487994+457732630+458029797+458014959+457620041+457012275+456439356
2058+456144697+456286963+456781437+457288546+457536578+457638367+457950496
2048+458685567+459804756+461174700+462591424+463764705+464634822+465684561
2038+467620785+470722213+474626112+478682924+482489379+486144940+489918139
2028+493694274+497044866+499804825+502123851+503995337+505274261+506110999
2018+506824838+507367559+507404028+506923200+506310936+505812088+505299227
2008+504571621+503567774+502332447+501057866+500015562+499176040+498096135
1998+496510038+494944868+494426408+495468774+497480812+499310382+500289294
1988+500470997+500190779+499946877+500373491+501805696+503953513+506164693
1978+507982729+509469699+510958535+512535269+514091230+515862977+518268403
1968+521051308+523273960+524446354+525089580+525993473+527499105+529546939
1958+531927890+534347695+536531125+538484360+540561137+543105708+546063493
1948+549104007+552158410+555514601+559033434+561709502+562901904+563573338
1938+565198597+568018399+571092261+573621902+575655356+577598066+579527559
1928+581330757+583350627+586121968+589288409+591799204+593515268+595214076
1918+596847595+597517438+597237067+597104652+597952312+599802626+602044859
1908+603759149+604426605+604399682+604314200+604307530+604186497+604105176
1898+604587656+605738878+606906622+607717262+608809619+610535229+611800325
1888+611529132+610345051+609372870+608785878+608355531+608066226+607799256
1878+607342108+606723664+606132817+605977824+607096248+609987398+613370328
1868+614411287+611795858+607290036+603268163+600621588+598912806+597334603
1858+595428545+593309609+591374731+589826083+588632885+587813433+587525780
1848+588144958+590110859+592739383+593435660+590499781+585834927+582185332
1838+580324616+579403406+578592582+578252979+579284759+581232487+581945224
1828+580372283+577862038+575319242+572079433+568141696+564882674+563136322
1818+562388156+562031910+562422300+564166633+566822570+568850333+569080039
1808+567899018+566629822+566428386+567869892+570631564+573356155+574632571
1798+574521023+574632571+576776534+581418014+586227887+587323793+584416734
1788+581221962+580647942+582828986+586372356+590005980+592777626+594082863
1778+594723763+596864911+602265876+610480647+617700047+619391634+615977130
1768+611354925+608176001+607496123+609454742+612643885+614771327+615596775
1758+616644586+618041179+619151404+621300323+626614766+634395580+640473303
1748+642086629+640994210+640145571+641067883+644056997+648249834+651636925
1738+653631585+656738367+662836833+668536404+668464323+664178600+659937484
1728+657231617+656593287+658440847+662084078+666574113+672670499+682027252
1718+693543939+701128824+700177386+694084672+688325502+685724025+687183214
1708+692628419+700478623+707694106+713196340+719429301+727627000+733783290
1698+734335955+731419901+727266164+723255979+721779778+723989275+728507580
1688+733825511+741183260+751905521+760973092+761588293+757228470+754594806
1678+756389254+762024025+768253620+771876781+773991801+777268996+780562162
1668+780638098+778594425+778001069+779382854+780374187+779731145+779324724
1658+781644056+788411141+800924179+816624402+824091313+820668425+817812460
1648+819666506+820793375+815073795+806229688+800838942+800464339+804032735
1638+810511128+817724286+820377652+816233278+810572134+807577084+806729791
1628+805877848+804686118+804389104+804273761+801850101+797812380+796081263
1618+798168932+800177421+797205317+791257684+787219412+786327695+786409200
1608+784852474+781498425+778468864+777426376+777842099+777920911+776877627
1598+775736808+775746170+776783763+777679518+777534131+776122914+773509199
1588+770236348+767652615+767038027+768334023+770331314+772270598+774678961
1578+778078046+780839718+780078519+777080838+776205276+778549206+780523306
1568+778617677+774849864+772801969+773509872+777632096+787339527+802026939
1558+810316116+804581484+793784755+784870280+779272468+776524930+775707865
1548+776908528+781333151+789347588+799671933+811108828+821463768+823542503
1538+815552543+807354415+805083606+806887232+807862718+807145759+808310136
1528+813463773+821510273+830542476+840152432+849534641+855387002+856532778
1518+856452987+857191117+857650346+857743415+859568274+864861668+874036749
1508+885800458+893910289+891392886+883528670+878657669+879180718+884241040
1498+890957522+895059798+895268577+895665208+900550712+909968349+919258467
1488+923256476+922152860+919514790+917627457+917450129+919631479+924311141
1478+931030315+939310375+948806335+957894649+962413321+960359552+956582927
1468+956759459+961654998+967167940+969006995+968402808+969265582+972924295
1458+977685033+980062373+978085091+973410875+969039364+967219462+968411803
1448+970649264+971203948+969838379+968588947+969202129+972503371+978912681
1438+987605159+994536233+995224188+991793346+989912192+991792550+995387993
1428+997516046+997391403+996341450+995917038+997919041+1004000496+1012646716
1418+1018109299+1017671365+1015279890+1014126281+1013410056+1011151118
1410+1007276774+1003827207+1002573126+1002858025+1002760672+1002521359
1401+1004087141+1007567669+1011217815+1014407325+1017550454+1019552640
1392+1018901338+1016238425+1013091258+1010427612+1008985739+1009453595
1384+1011805786+1014787313+1016431601+1016014716+1015319296+1016858766
1375+1021118483+1025668056+1027485266+1026700203+1026519448+1029707919
1367+1036328271+1044094338+1049704572+1050435788+1046983346+1043516708
1358+1043142962+1045423622+1048214115+1050112340+1050628414+1049822056
1350+1049093410+1050470299+1053685081+1055924500+1055992298+1056056425
1341+1058117659+1061749264+1065751067+1068702856+1068562609+1065670419
1332+1063755918+1065463721+1069329438+1072073671+1072071101+1070034587
1324+1067929908+1067703384+1069697310+1072323569+1073741823+1072660847
1315+1068783259+1063960536+1061398036+1062729033+1066753843+1070477845
1307+1070803129+1066986976+1062100003+1060438949+1063091398+1066849911
1298+1067838001+1065681678+1063102535+1061856224+1060105466+1054621772
1290+1045233567+1035581390+1028852487+1024171296+1018721991+1011988315
1281+1005916405+1002142534+1000560476+999654318+997704204+994225389+990026250
1271+985654005+980618158+974560261+968227255+962532213+957261336+951375566
1261+944315137+936639386+929412338+923152025+917701619+913043251+909377747
1251+906029327+901318642+894408740+886473606+878967656+871569216+863013435
1241+853273634+843710488+835473505+828720738+823130268+818444733+814636962
1231+811960160+810759374+810985225+811980903+812840189+812854141+811797457
1221+810268327+809651475+811071380+814159866+817282680+819343241+820902659
1211+823015844+825711676+828397351+831104564+834213365+837429371+840267224
1201+843205061+846986581+850939800+853563550+855091089+857694402+862400314
1191+867544467+871286152+873954143+876519335+878712434+880174071+881959952
1181+885697293+892019529+900151817+908643287+916537547+923897927+931452278
1171+939960087+949390206+958425653+964926257+966917307+964237384+960089705
1161+959490475+964968050+974164242+981861471+984183373+981235562+976611522
1151+974373266+975462808+977224948+977296356+976852792+978458959+982183512
1141+986025549+988754362+990169434+989691543+987174507+984240402+983472227
1131+986230167+991608002+997213280+1000612426+1001224934+1000600677+999931201
1121+998840618+997393055+996828642+998031018+1000522293+1003304464+1005849892
1111+1007509233+1007779447+1007691762+1008841332+1011105960+1012455682
1103+1011789755+1010411764+1010015989+1010696173+1010656645+1009328768
1094+1008702370+1009377781+1007914308+1000742637+990234295+982610616+980143143
1084+980087338+980629111+983035272+986372249+985371798+977528754+967891079
1074+962466862+960837994+958130168+952815603+948826221+949280493+952710785
1064+955692434+955901029+953403819+950441200+948543954+946645178+943370492
1054+940281883+940122912+942269078+943633668+943809527+945142299+948108222
1044+950896084+953091201+955517003+956869294+955154944+951560726+949235641
1034+949878500+952908122+956346980+957767987+956256052+953344771+950659402
1024+948756465+948358977+949737886+952187919+955130162+957653868+957868277
1014+955758213+954942983+956813489+955791072+945723356+929106818+914111194
1004+905309308+901374569+898431959+893847998+887960086+882753092+879434349
994+877144388+873754542+868042673+860965417+854845290+851511678+851003070
984+851695308+851448286+849053201+845136880+841144011+837511181+833959551
974+831174198+830233346+830249867+828756167+824688830+819349421+814498184
964+810781035+807914117+805629907+804444113+805210636+807846196+811366253
954+815278291+819833860+824791384+829193550+832628125+835780983+839290331
944+843011886+847084179+852248952+858211516+863435827+867564476+872379060
934+879639579+889616673+901405654+912761962+920856741+924652457+925047681
924+922789048+918324529+913001520+908263055+904382285+901386991+899927128
914+900097541+900655836+900441856+899785168+899608147+900003126+900520545
904+901063726+902087612+904237572+907705495+911864861+915775185+918761852
894+920707866+922088488+923344406+924227189+924199776+923695573+923659716
884+923505579+921987892+920306523+921387377+926067161+931745132+935076419
874+935237959+934138932+934380937+937235556+941840567+945891994+947273167
864+946077277+945391769+948440849+954298962+957949414+955791072+950386680
854+947350450+948549277+950885314+951114041+949593540+948652198+949549177
844+951851927+954460197+956823463+959634455+963239137+965483328+964464949
834+962623324+964230776+970321042+977815489+983054118+985439658+987940601
824+993421357+999786916+1000870095+994607335+988011703+989133248+997498546
814+1005156736+1006103707+1002131765+998498018+997849713+998686543+997563040
804+992787188+986557715+982492703+981535269+981058357+978658438+975626797
794+974430539+974589143+973030642+967656601+959267317+950539287+943961155
784+940844522+941277744+943198181+942597727+937639041+930734463+924671548
774+920020217+917048297+916592862+917814820+919139331+922074843+929543039
764+939760731+945957284+944277506+938253263+932983182+930207375+930489276
754+934784972+942403206+950571656+956303780+958050744+956240020+953303284
744+951258020+949128192+946948801+948774210+956350712+964197305+966279956
734+964559242+964770407+969118176+976458242+984511717+989928469+989696315
724+983837407+974667159+965510680+960600455+962461844+968832727+974809670
714+978335723+981136435+984374897+985467683+980144612+968620276+957751588
704+955152374+962402858+973342098+979232641+977485983+972051363+965971744
694+958552928+949853718+943251294+941311521+942738647+944489467+944434763
684+941806117+938755018+938252834+939295078+938973832+935730352+930963618
674+926900809+923056753+917123866+907823101+898649550+896555395+901434535
664+908212818+915037972+921667320+927667944+934194431+942157896+947883473
654+947133043+942551162+939627949+938504630+936482863+935096489+936711161
644+937634513+931223980+916874886+903004233+896130862+894982148+898022050
634+908937548+926593331+941973593+952229773+956717238+951478303+934307142
624+906859548+880582450+869247925+878242681+898189648+908359857+901882688
614+894076603+895578747+902531666+904059449+893005233+874236350+858391046
604+850697856+850920586+857035573+863572524
##END=
