##TITLE=<SNM>
##JCAMP-DX=4.24
##DATA TYPE=INFRARED SPECTRUM
##DATE=29/4/2025
##SAMPLING PROCEDURE=Instrument type and / or accessory
##ORIGIN=Admin
##XUNITS=1/CM
##YUNITS=ABSORBANCE
##RESOLUTION=4
##FIRSTX=4497.3318
##LASTX=599.83466
##DELTAX=-1.4281778
##MAXY=2.2648952
##MINY=0.69072783
##XFACTOR=1
##YFACTOR=2.109348e-09
##NPOINTS=2730
##FIRSTY=0.70985848
##XYDATA=(X++(Y..Y))
4497+336529803+335101957+334676373+335540653+336502478+336144570+334608866
4487+333289784+333032811+333462549+333829584+333859537+333823876+334001135
4477+334487868+335443730+336814270+337968301+338356021+338265851+338401345
4467+338922383+339262885+338958016+338406856+338585047+339632435+340234063
4457+339344040+337801102+337277889+338100489+339187692+339589229+339162204
4447+338181814+337067654+336268168+335839390+335324371+334421463+333543365
4437+333409934+334312192+335841001+337059911+337218266+336505106+335621498
4427+334860668+334370176+334726643+336021735+336933290+336090683+333883584
4417+331844277+330914638+331027554+331746366+332633958+333169831+332833540
4407+331762133+331192945+332399507+334933063+336792173+336804182+335805001
4397+334979631+334519912+334376421+334631981+334774822+334157285+333318437
4387+333462577+334515391+334996586+333938262+331813477+329611266+328005230
4377+327460343+328359295+330504539+332756030+334014727+334487049+335146774
4367+336336296+337518359+337921196+337073390+335111339+332927948+331748881
4357+332099781+333191589+333717205+333426380+333422424+334497052+335604939
4347+334840944+332090060+329801721+330416404+333593268+336552635+336953550
4337+334924501+332422282+331424260+332615732+335113910+337320699+338072853
4327+337120608+335209307+333756652+333654869+334467749+335188538+335495922
4317+335909779+336942389+338348815+339044766+337955444+335249518+332469500
4307+331231742+331896695+333301284+333789657+332842639+331549920+331305296
4297+332176669+332865245+332410640+331452432+331242197+331966519+332807939
4287+333279583+333795732+334820825+335957111+336320105+335654870+334622232
4277+333892598+333406458+332883132+332739273+333639610+335026369+335323495
4267+334217276+333341014+333913113+335179326+335935663+336127333+336082121
4257+335666370+335102833+335400440+336994411+338694742+338902914+337602735
4247+336154488+335321489+334671174+333714181+332629635+331947502+332016902
4237+332798586+333929785+334893983+335360286+335563881+336114137+337074972
4227+337636475+337331578+336959965+337304648+337730459+337165622+335822069
4217+334898137+335055079+335887936+336511125+336347204+335518500+334577444
4207+334018315+334035920+334461334+334877566+334961462+334844957+335102466
4197+336150193+337502535+337954285+337009698+335771177+335548735+335895368
4187+335257910+333542913+332342003+332573205+333743315+335249009+336794235
4177+337823200+337785504+336899551+335774285+334730006+334158076+334624153
4167+335884659+336602707+335821023+334131599+332872563+332810962+333988193
4157+335931820+337543988+337719128+336570578+335380801+335163276+335689852
4147+335968244+335541614+335042674+335189923+335750408+336086868+336138834
4137+336180090+336248896+336488010+337375405+338937868+340178198+339852503
4127+337664591+334443137+331563173+330370768+331402162+333658966+335282014
4117+335477074+335054570+334806188+334530254+334034365+333874287+334378964
4107+334912011+334699403+333879459+333433868+334136120+335711978+336983588
4097+336905174+335535737+333713023+332092405+331008198+330737069+331278847
4087+332176641+332973866+333701607+334794489+336538760+338461929+339477980
4077+339052085+337800961+336566255+335661086+335122303+334852756+334668970
4067+334765158+335529605+336594682+336972822+336312362+335120127+333919980
4057+333083081+333041684+333808306+334568543+334567187+334208487+334346327
4047+334778297+334714775+334351498+334450032+334842837+334794432+334458424
4037+334701494+335755805+337010885+337887174+338298715+338329798+337891667
4027+336993845+336166187+335926677+335876549+335324315+334676656+334958240
4017+336062850+336784458+336535115+335870163+335484280+335565096+335882624
4007+336111509+336341298+337132363+338540372+339480184+338829614+336918200
3997+335225160+334783808+335356980+336038350+336266614+336004865+335286196
3987+334420700+334377749+335860018+338110323+339535710+339515845+338795169
3977+338115098+337360937+336271107+335313181+335261951+336109983+337002040
3967+337297528+337128153+336816870+336355370+335661623+334950978+334612851
3957+334889688+335771714+336991274+338035017+338419685+338127842+337534861
3947+336884207+336262375+336031201+336671005+338080116+339432401+339849338
3937+339121796+337992942+337622007+338310328+338953325+338429349+337156128
3927+336414626+336811331+337803419+338376903+338226687+338222844+339314596
3917+340866632+341025693+339220357+336927130+335664138+335470518+335641617
3907+336241832+338072091+341184019+344229317+345955164+346370972+345715005
3897+343902972+341459472+339604516+339200182+339963300+340804635+341331918
3887+342176983+343264977+343262180+341854793+340648203+340717574+341276025
3878+341352772+341149828+341288034+342263281+344460773+347203519+348405164
3868+347162574+345105126+343805060+343038664+342030751+340927075+340262405
3858+340290634+341513415+344814640+349188826+350583977+347845526+343686097
3848+340387754+338797796+338820459+339971099+341815374+344103006+346328840
3838+347395330+346886273+346122024+346351841+346972599+346503357+344943550
3828+343640970+343278371+343726448+345305188+348094191+350231184+350119200
3818+348931853+347865985+346613731+345147032+344249040+344288798+344965704
3808+345648233+345754057+345812521+347260288+349988086+351524157+350697713
3798+349252942+348481063+347917696+347157148+346868584+347786581+349655468
3788+351540913+352984865+354362469+356176423+358552049+361262073+363734085
3778+365508592+366942512+368864834+371856640+376042434+380899453+385309893
3768+388500546+390563448+391867696+392964478+394635562+396912627+398824888
3758+400029698+401458391+403884343+407517677+412165281+416020124+416789658
3748+415621582+415921280+419665750+425135983+429177551+431711814+434353709
3738+438066926+443125223+448943643+453732110+456102820+456696620+457342979
3728+459515181+463437615+467930426+471478083+473429029+473834324+472927319
3718+471157305+469211926+467798435+467392038+467827032+468245156+467920140
3708+466718495+464879222+463224555+463042040+464744971+466745961+467183131
3698+466645817+467402182+470452227+474486194+477629318+479489106+480924298
3688+482105909+482132753+480816072+479339511+479066489+480168809+482030179
3678+484489136+486774819+486571818+483609088+480765774+480019667+480363785
3668+479964395+478963406+478596229+479212466+479914493+479925174+479503235
3658+479098250+478664104+478302522+478605611+480253299+483437849+486398713
3648+485830627+481723473+477693011+475933932+475577607+474916554+473990248
3638+474513999+477540703+481691769+484250983+484510386+484395435+484882987
3628+484186952+481805363+480014411+480510610+482767866+484819069+485090283
3618+483799995+482475233+482491283+484534348+488439687+493015856+496505190
3608+497830801+497303800+495815993+494190968+493399931+494200688+496090542
3598+497873243+499192241+500214649+500619973+500230021+500099868+501651933
3588+504756740+507421976+508173340+507310642+505647413+503952140+502904865
3578+502536219+502032899+500908312+500132194+501239714+504610819+508877401
3568+511396885+510418276+507626108+506208491+506761093+507367157+506989978
3558+506710399+507653856+509807747+512438735+514227935+514054039+512540009
3548+511677650+512319149+513155285+512972121+512263087+511639899+510709948
3538+508997156+506699548+504501124+503327934+503964177+506127732+508088398
3528+507872229+505212532+501919361+500181814+500661738+502135869+502935439
3518+502370179+500780758+499102665+498505926+499543367+501424800+502625060
3508+502196113+500471905+498686717+497966549+498724073+500563119+502452973
3498+503467469+503764511+504214594+504728935+504271787+502895144+501959995
3488+502029903+502367184+502622065+503231859+503948692+503610113+501950839
3478+500270260+499646450+499567612+498702880+496471734+493546869+491183083
3468+490394476+491309732+492868918+493644753+493046431+491428809+489536186
3458+488102068+487709121+488398714+489344488+489545568+488956458+488336435
3448+488193452+488374017+488397866+487815990+486697168+485986099+486491793
3438+487607959+488164743+488082909+487846791+487188281+485728392+483984177
3428+482598604+481422137+480071717+478774703+478285511+479193195+481297861
3418+483489107+484552206+484529883+484809405+486146996+487265141+486656590
3408+485030830+484082795+483855606+483242421+482063353+480846082+479613891
3398+478385881+477794850+478146654+478600638+477983779+476288336+475041169
3388+475922064+479004662+482545537+484448615+483881772+481802820+480127214
3378+480047246+481030320+481934386+482815395+484371133+486145866+486910454
3368+486596741+486427084+487117072+488150105+488960018+489774735+490801156
3358+491457405+491143749+490370344+490384812+491581229+492839869+492998450
3348+492615449+493169690+494729610+495728678+495219084+494066240+493471987
3338+493506687+493623616+493778975+494141687+494299533+493753826+492919612
3328+492667047+492943291+492762953+491689907+490720057+491060389+492197523
3318+492207978+490415330+488428497+487723136+487773548+487424173+486733450
3308+486493319+486843089+487122215+486898756+486576282+486614317+486763290
3298+486722543+486816414+487280456+487743369+487978527+488367009+489409932
3288+491354662+493944902+496217926+497156297+496665014+495582361+495036711
3278+495639723+496674339+496735092+495702398+494831506+494789459+495239542
3268+496076300+497343926+498287214+498143949+497477131+497418864+497925745
3258+497657978+495775076+493176471+491210492+489963890+488930857+488397188
3248+488911359+490100825+490950581+490915542+490274665+489526466+488781319
3238+487874483+486805902+485841817+485427677+486145640+488155983+490305013
3228+490730852+489030718+486748031+485373761+484974259+484855521+484745487
3218+484922209+485320468+485481253+485560825+486043461+486274889+484825116
3208+481743367+478937974+477936024+478368475+478671959+477752295+475984400
3198+474683826+474707958+475776313+476979286+477670235+477917487+478171012
3188+478541862+478716549+478491903+477836728+476726891+475366637+474090703
3178+472845683+471311449+469505209+467771958+466315968+464992562+463500121
3168+461845086+460638157+460582603+461601564+462824572+463392347+463081092
3158+462363581+462054671+462561863+463269004+463055802+461697046+460179285
3148+459332355+458913835+458291947+457226531+455827084+454549144+454114235
3138+454700180+455457421+455407999+454549455+453587885+452928047+452409891
3128+451850028+451471096+451690289+452521338+453226247+452819821+451167951
3118+449220000+447858164+446921743+445732616+444243000+443158962+443032624
3108+443595426+444104285+444297565+444597291+445156561+445394064+444847171
3098+443783253+442705460+441905296+441510936+441440490+441450634+441477648
3088+441597855+441715717+441673444+441457388+441052290+440421472+439747675
3078+439317767+439095608+438739113+438101259+437454843+437166901+437281654
3068+437374536+436890346+435881303+435155060+435218498+435478748+435176875
3058+434586324+434430456+434722609+435030360+435264077+435459251+435354642
3048+434776326+434026856+433476939+433091961+432692853+432438820+432642244
3038+433099929+433072180+432160767+430832812+429786808+429178229+428771266
3028+428438818+428172549+427875338+427441078+426948920+426591492+426388463
3018+426131038+425766942+425660298+426136520+426851064+426979240+426084753
3008+424614775+423549077+423498807+424027050+424139910+423548568+422876890
2998+422504571+422061665+421293008+420617628+420496856+420759028+420908849
2988+420779006+420544328+420335054+420132986+419862845+419365572+418493436
2978+417394959+416545316+416371900+416874260+417638961+418184922+418265088
2968+417884009+417248218+416812829+416949962+417368143+417336975+416584622
2958+415553256+414767220+414297187+413900680+413443984+412974149+412457462
2948+411776007+411060983+410723138+411020518+411754645+412354662+412248443
2938+411390068+410384445+409849193+409768858+409643988+409159487+408576933
2928+408425728+408808842+409216737+409207723+408909579+408569643+408115632
2918+407471533+406927861+406841648+407134733+407379583+407342736+407160815
2908+406976690+406824693+406843089+407098112+407260055+406996357+406598126
2898+406583969+406729381+406221879+404919722+403738761+403520954+404111278
2888+404783154+405062507+404845914+404140468+403078584+401986295+401160954
2878+400640340+400312187+400170194+400292011+400595637+400825708+400805165
2868+400584136+400333578+400143377+399972138+399850038+399977648+400367345
2858+400646557+400618384+400645228+400991155+401271214+401059199+400578372
2848+400306733+400241572+399974653+399300940+398459746+397816213+397502838
2838+397410409+397390685+397368531+397288139+397027069+396433692+395549971
2828+394743336+394424621+394619399+395021982+395477802+396062080+396549491
2818+396316085+395207350+394006073+393497666+393578284+393721125+393774306
2808+393811379+393720447+393394809+392922657+392355616+391669753+391046960
2798+390853256+391209694+391761674+391977306+391615640+390877359+390219584
2788+390072194+390515608+391126589+391345245+390977023+390134897+388990416
2778+387899088+387362565+387505039+387924068+388246767+388421002+388389410
2768+388030344+387528973+387280619+387329702+387325068+387077618+386757942
2758+386464970+386013134+385283811+384419701+383562061+382748305+382163801
2748+382159506+382773030+383398762+383290338+382434931+381586079+381344139
2738+381538804+381620044+381354114+380929688+380601168+380509275+380777438
2728+381435835+382106354+382140771+381371860+380389944+379811996+379637676
2718+379528914+379370672+379269963+379208023+379007396+378613064+378153034
2708+377683594+377156622+376682802+376493026+376588677+376719452+376699559
2698+376512241+376189457+375815131+375590598+375718830+376161736+376560561
2688+376539368+376144895+375804930+375762912+375790773+375593593+375226813
2678+374911319+374710381+374607298+374668984+374908098+375142521+375156621
2668+374906685+374543125+374263095+374056166+373699247+373167471+372760198
2658+372622387+372579238+372582120+372773903+373061026+373172332+373081541
2648+372910725+372590032+371976903+371164956+370495086+370308277+370678646
2638+371343910+371903236+372091261+371934630+371733410+371780910+372012790
2628+372101660+371899365+371533912+371112538+370638041+370177417+369845393
2618+369676357+369646489+369672966+369572653+369243737+368871107+368726825
2608+368834796+369002645+369053423+368930108+368751267+368792325+369218785
2598+369835559+370230767+370145486+369691701+369257244+369121213+369182842
2588+369210082+369172556+369109910+368990381+368928723+369147125+369546599
2578+369731487+369584012+369449790+369638831+370000074+370101602+369723660
2568+369092701+368653468+368671892+369036017+369376546+369381294+369042488
2558+368621820+368382734+368368351+368435180+368439080+368315877+368072553
2548+367848218+367884218+368259476+368768080+369170494+369367335+369282845
2538+368875995+368296775+367771556+367386973+367175523+367245968+367608284
2528+367985775+367999903+367575082+367086173+367012223+367451739+368058707
2518+368457023+368615462+368726909+368802328+368603312+368035593+367391635
2508+367055966+367129859+367452784+367841493+368185526+368393303+368380813
2498+368155460+367870287+367743100+367913492+368338060+368756664+368866614
2488+368692435+368616847+368831433+369044211+368983091+368811455+368758105
2478+368734369+368618203+368560784+368721993+368966334+369054864+368966927
2468+368897019+369037656+369399435+369792580+370033446+370154331+370267219
2458+370284145+370045512+369680907+369495538+369476691+369266682+368740021
2448+368274904+368248314+368557648+368879753+369133420+369406584+369654203
2438+369747566+369686671+369588505+369526169+369448235+369260974+369003747
2428+368847823+368856695+368911345+368945056+369049948+369286490+369586866
2418+369867292+370092927+370257159+370395536+370604697+370939038+371264676
2408+371319778+371011010+370579633+370376632+370552279+371017198+371578870
2398+372061054+372408054+372767912+373459653+374856500+377309523+381113361
2388+386483874+393611571+402774818+414259775+428013912+443550949+460433997
2378+478610415+497917946+517543034+536480960+554098757+569513383+581479987
2368+590021683+596530657+601393243+603732502+603467391+601072522+595928775
2358+587050872+574657525+559609963+542490230+524837677+509907721+500828287
2348+499231293+505185348+516452752+528234326+536485933+540996658+543522303
2338+545224866+546558388+547954303+549907340+552529907+555150948+556692614
2328+556675999+555519199+553644887+550945064+547360954+543216558+538649487
2318+533454425+527711791+521917051+516397367+511026827+505416155+499225867
2308+492479644+485561051+478846138+472460733+466402493+460637224+455042687
2298+449517607+444134209+439031181+434261081+429837445+425765642+421983194
2288+418473995+415415360+413012409+411238524+409847611+408556757+407204529
2278+405844332+404669079+403788438+403117043+402456865+401642714+400677244
2268+399753115+399095876+398802480+398781824+398743337+398373505+397677243
2258+397000959+396622706+396476304+396304330+395935260+395424537+395013420
2248+394906353+395061627+395261350+395365111+395396647+395393764+395318232
2238+395157278+394970893+394791910+394640875+394627255+394800501+394945941
2228+394795103+394384637+394008672+393899175+394038682+394182625+394065244
2218+393668341+393223767+392918079+392707844+392463389+392177312+391924663
2208+391690833+391417499+391180504+391076517+390976769+390711941+390451351
2198+390541916+391004715+391493851+391752660+391895360+392194803+392732484
2188+393316819+393679983+393731891+393667408+393805248+394255896+394813301
2178+395249341+395571955+395883013+396184717+396488596+396917176+397479724
2168+397878096+397824407+397517165+397458644+397787645+398155245+398286303
2158+398291615+398391646+398652038+399007544+399352623+399618977+399791969
2148+399827234+399687897+399488032+399398146+399440503+399555963+399733109
2138+399938257+400137811+400445081+400984034+401620927+402074656+402253073
2128+402320241+402481591+402783549+403115149+403394897+403678121+404012491
2118+404325865+404583770+404916472+405459721+406157254+406797171+407208315
2108+407418946+407619008+407930122+408276840+408565998+408883441+409375345
2098+410017070+410619998+411022751+411217077+411359494+411680724+412283595
2088+413018456+413647211+414111565+414536923+414986583+415329486+415386792
2078+415152708+414835321+414708050+414937754+415494283+416147000+416602622
2068+416759337+416808420+417022724+417499285+418153415+418874515+419589794
2058+420200973+420585160+420724950+420762334+420855131+421070424+421475183
2048+422168902+423112500+424069662+424843660+425477558+426145026+426937758
2038+427819784+428703562+429518504+430263058+431038412+431977377+433069722
2028+434114736+434947736+435655131+436474001+437558039+438906849+440395391
2018+441787519+442871528+443721425+444728660+446252778+448252750+450315115
2008+452081823+453554541+454914823+456243796+457571751+459001744+460556154
1998+462036812+463249280+464276831+465366605+466618520+467929973+469221759
1988+470562516+472031645+473576871+475039417+476270252+477265702+478231427
1978+479466557+481140298+483182119+485343809+487358616+489154090+490893106
1968+492718080+494597591+496528022+498600192+500748997+502750975+504588835
1958+506540516+508760811+511030670+513071304+514895318+516692600+518564991
1948+520577255+522916740+525732927+528806990+531575535+533625156+535090075
1938+536453663+538136729+540345156+543033902+545844720+548315376+550386811
1928+552559973+555372599+558763202+561996242+564339004+565909832+567514286
1918+569547517+571470319+572647126+573329541+574411460+576506575+579394535
1908+582264129+584408864+585637551+586265769+586923657+588085036+589616585
1898+591054943+592257520+593382446+594457470+595487338+596655894+597912217
1888+598785596+599102474+599394316+600173033+601290782+602269109+602845673
1878+603057151+603146557+603481803+604337436+605713570+607298866+608397343
1868+608224012+606820016+605171481+604196432+604230736+605145202+606345971
1858+606893542+606199258+604604242+603056586+602366371+602738690+603729337
1848+604641429+604997585+604461430+602732078+600223444+598152800+597301688
1838+597240991+596831655+595565103+594138783+593407765+593292136+593042510
1828+592411862+591835468+591345089+590244521+588137651+585609350+583554587
1818+582381906+581934478+581776802+581444891+580712855+579775671+578965984
1808+578373257+578058979+578307248+579184075+580123689+580424856+580111934
1798+579836198+579990314+580486175+581165651+581846485+582162854+582000883
1788+581799125+581995797+582514320+583031373+583658291+584872567+586751683
1778+588753210+590393776+591790256+593335709+595020922+596392987+597304288
1768+598045422+598865790+599900293+601174079+602368010+603046017+603433765
1758+604239948+605691078+607445126+609353686+611598000+613954778+615644287
1748+616384291+616824598+617705663+619347981+621710694+624290705+626235830
1738+627448015+628999402+631613944+634126986+634631097+633430893+632089233
1728+631645423+632531179+634398370+636296079+637820903+639838650+643458307
1718+648199725+651446780+651633279+650419455+649769196+650169264+651270285
1708+652695757+654267715+655983220+658145135+661208970+664859993+667345568
1698+667533875+666447775+665237229+664407988+664319203+665038184+666118294
1688+667201173+668884182+672148475+676231101+678508702+678424834+677649508
1678+677731285+679257692+681562138+683504832+685151164+687344275+689755986
1668+690981622+691016209+691211411+692070887+692843161+692962068+692991456
1658+693733608+695712924+699461209+704555731+707810473+707731013+707330493
1648+708562062+710775180+711938310+711472968+710823331+711325690+713263016
1638+716224163+719567294+722124530+722938286+723002261+723996920+726527708
1628+730110800+734305155+739383289+745271674+750684884+754729532+758423110
1618+763252974+769140342+774345408+778111721+781341087+784723608+788065043
1608+790650537+791918841+791839494+790766957+789196751+787755003+787214440
1598+788084541+789983211+791793491+792947014+794000958+795282769+796238207
1588+796811267+797889342+799868150+801979033+803420724+804581933+806584081
1578+809554666+811744783+811893529+812167456+814719211+818628506+821464982
1568+822424320+823178565+825099276+827951689+831073959+834930922+840585789
1558+845663300+846197534+844358431+843869918+845288381+846837281+847394404
1548+847710208+848926914+851186261+853815667+856207880+857900384+858392458
1538+858131699+858162443+858514699+858377538+857343487+856016465+855232774
1528+855277930+855651888+855720440+855698512+856078235+856647791+857414470
1518+859525918+863479634+867574354+869771195+870292657+871097823+874285481
1508+881303144+890565178+895755154+894924387+892661424+892238976+893824836
1498+895629861+896127021+895830828+896200886+897792794+899980593+901843150
1488+903510053+905437093+907082350+908255879+909990882+912948639+916148335
1478+918588585+920875285+924168457+928607352+933222290+936823636+938890946
1468+939495711+938773678+936890832+934238369+931613428+929574489+927778619
1458+925092812+920365183+915033016+912232936+913049404+916003826+918018408
1448+917424833+915784719+915177015+915160852+913829647+911186622+909659649
1438+911499261+916186312+920231413+921637443+922108437+923488075+925186739
1428+925048448+922826118+921265011+922406157+924588135+924538515+921763019
1418+919342605+919905944+923029289+926745134+928643973+927214715+923279875
1408+919024766+916352918+916335511+918468096+920571123+921248848+921732840
1398+924005638+928005356+931976987+934638945+935750252+935436708+934377678
1388+934207681+936034916+938267080+937952067+934810637+931832310+931854068
1378+934980069+939186631+942514277+944400683+945422922+946350555+947698940
1368+950126984+954133428+959033370+963231852+965814011+967378452+968875415
1358+970127217+970558538+970485634+971060728+973213601+976549328+979643511
1348+981419204+982325927+983800510+986096366+988095406+989595194+991951859
1338+995558857+998262184+998057036+996282359+996466145+1000546737+1006742788
1328+1011494210+1013428823+1014214717+1015333597+1016177814+1016477568
1320+1018179001+1022717136+1028174540+1031209157+1031744464+1033740792
1311+1040395517+1050989999+1062119224+1070255202+1073200864+1069932728
1302+1062406319+1056308264+1056551617+1063202273+1071122251+1073741823
1294+1069194985+1061485468+1056027047+1055088563+1056580213+1056537601
1285+1052852952+1046045410+1038945575+1034524764+1032114071+1028763198
1277+1024210482+1021378189+1021927738+1023964191+1025185362+1025763056
1268+1025985046+1024291298+1019755537+1013824879+1008618626+1005342918
1260+1003652109+1001703820+998407088+994584769+991379026+988939510+986622066
1250+984153953+982230643+981154715+979434745+975389193+969306397+962764022
1240+956816183+950979113+944071936+935773536+927188944+919964776+914425539
1230+909150338+902814469+895730118+889259631+884245190+880585690+877869647
1220+875547286+872853058+869507554+866157868+863534114+861712248+860617444
1210+860549683+861539143+862561947+862247951+860705550+859958877+861833415
1200+865769894+869555648+872221619+875045605+879215037+883874283+887229056
1190+888971914+890833736+894676740+900183312+904470464+905138638+903380690
1180+902709634+905388773+910421299+915146158+918067124+919530743+921065457
1170+924621818+931261850+939941951+947905671+953362454+957338493+961814914
1160+967261919+972557352+976184130+976912379+975537036+975353589+977846568
1150+981309905+985092890+990231211+996286993+1000981674+1002363686+1000307114
1140+996298296+993057175+993266167+997227625+1002535830+1005672173+1005007672
1130+1002812752+1002370920+1004826712+1009040904+1013404296+1017165014
1121+1019760058+1020882328+1022604333+1028154308+1035460988+1035938085
1113+1026467456+1016994339+1017600064+1025104772+1026811630+1018370021
1104+1010163627+1012048168+1021316249+1026893125+1024194771+1019696762
1095+1019434985+1022655309+1026297120+1028954105+1030707532+1033632962
1087+1039160218+1043927237+1042183305+1033742261+1024775065+1019367507
1078+1016696393+1014362334+1011245997+1008507405+1008855649+1013801594
1070+1020264170+1020900074+1012181542+1000394034+993047342+989972826+986638681
1060+983099614+984013458+990833319+1000418109+1011300251+1024018784+1033488849
1050+1031522474+1021823186+1014490396+1011006262+1007333255+1002966812
1041+999843241+997285835+992499374+984762165+977313859+973767219+974695870
1031+978440086+983658997+989591916+995242036+999824139+1002662649+1002204201
1021+998018945+993820011+994342547+999254922+1002545777+999421189+992121630
1011+985996221+983140870+981765527+980314228+979483913+979382865+978027076
1001+973303346+965464071+957094914+950859980+947467286+945746638+944270755
991+942335408+939317294+934133760+926899137+919881078+915349951+913508869
981+912441927+909363738+903408044+897333216+894321884+893656196+891956119
971+888519909+885571534+883777643+881539546+878057841+874176182+870593259
961+867626686+865765938+865231082+865570228+866392461+867728470+869031135
951+869092453+867886372+867294719+869127492+873417471+878648985+883158185
941+886548109+889991666+894729807+900592196+906427514+911236241+914810065
931+917986816+922229774+928213726+934637646+939716796+943040768+945108982
921+946344338+946961084+947018842+946460420+945518714+944938195+944314667
911+942040853+938445610+935752569+934769664+934480930+934449734+934954976
901+935473951+935447954+935820782+938036726+941966536+945784108+947344423
891+945823555+942343828+938552988+936284260+937520463+942302177+947592636
881+949943085+948750058+947639543+949947380+953627169+954857269+953922402
871+954628384+958612562+963422306+966428891+968639975+972768830+979340479
861+986175938+989943438+988851347+983963612+978160337+974431042+973681091
851+974758714+977146350+980982684+984493720+985817974+986426412+987948919
841+988373119+985358057+980137224+974582388+968624603+963788409+964679760
831+974843147+991605424+1006169729+1011764125+1008635015+1000799132+994597089
821+995404911+1002265011+1009357952+1012459256+1011293696+1007757906+1004633432
811+1004999421+1010513792+1019112399+1025631715+1027024126+1024435411
803+1018770937+1010434558+1003506753+1003204173+1008462645+1012014485
794+1009519132+1004729620+1004006457+1010555952+1022796031+1034497298
785+1038083046+1030691368+1016885944+1003069442+991979778+983829898+978239345
776+975021169+974153667+975262600+975950837+971993334+963065585+954149930
766+948788488+946702133+947238571+950994485+957039756+961315436+960966288
756+958231765+957819546+962607364+971025350+978401995+982459867+984936005
746+987816901+992088964+997991026+1003946099+1007355747+1006994957+1003401297
736+997141270+989916763+985300977+985565579+990209962+997052881+1002974837
726+1006196291+1006236981+1001949772+995081986+990591436+990870167+994727073
716+1000595113+1007069783+1013062155+1018871985+1024108756+1026833897
707+1026670457+1024386243+1018841241+1008578162+996696612+989675445+989670924
697+991286681+988086363+981091645+975425136+972502080+970376673+966300716
687+959343297+952460026+949919914+952864785+959966542+970508126+981719185
677+989493807+990734532+986198205+980837781+976638508+973903307+975509456
667+979737325+979301144+973979037+967091923+958616518+945330351+932236277
657+930283975+941762857+954160329+952624032+942479972+939477400+949273385
647+962474215+964665405+957218456+952708239+956725760+968780696+989256445
637+1018578222+1048585523+1061128069+1044321823+1005320990+960567407+926803796
627+911365717+912396094+920355067+921571491+909407933+889923566+873770349
617+867413908+871164171+880003135+887757130+891017918+888359633+882387437
607+880467178+884102942+889101163+895911926+905751258+915969239
##END=
