##TITLE=<SNM>
##JCAMP-DX=4.24
##DATA TYPE=INFRARED SPECTRUM
##DATE=29/4/2025
##SAMPLING PROCEDURE=Instrument type and / or accessory
##ORIGIN=Admin
##XUNITS=1/CM
##YUNITS=ABSORBANCE
##RESOLUTION=4
##FIRSTX=4497.3318
##LASTX=599.83466
##DELTAX=-1.4281778
##MAXY=2.128479
##MINY=0.3802813
##XFACTOR=1
##YFACTOR=1.9823005e-09
##NPOINTS=2730
##FIRSTY=0.39104456
##XYDATA=(X++(Y..Y))
4497+197268047+197071309+197559771+198235543+198468333+197985900+197306234
4487+197253313+198011624+198993749+199645557+200002950+200266259+200215293
4477+199521269+198498010+197972760+198268318+198717179+198465702+197540903
4467+196712187+196525342+197100160+198592455+200863177+202793720+203097547
4457+201922969+200576731+199691261+198788035+197721749+197310624+198009790
4447+199025952+199512053+199652442+199782969+199624464+199042008+198440039
4437+198107121+198105933+198596680+199444474+200023291+200010753+199687292
4427+199117841+197973482+196430656+195412374+195615111+196699588+197629619
4417+197691440+197047735+196339654+195955756+195768580+195511029+195329040
4407+195752689+196931341+198184773+198688554+198387599+197817592+197222929
4397+196387162+195423860+195108082+195848441+196809984+196879548+196155380
4387+195539519+195309706+195132287+195014028+195185328+195363257+195047795
4377+194394408+194035902+194118199+194157258+193886131+193726588+194112772
4367+194648005+194497903+193625198+192903150+192774757+192659295+192132827
4357+191838367+192490250+193693543+194526228+194749817+194749741+194663716
4347+194306187+193787326+193519537+193588875+193703466+193753515+193867835
4337+194080133+194394799+194914652+195558837+195908849+195640999+194946224
4327+194316937+194032474+194002376+194057251+194202030+194458844+194661250
4317+194635091+194457341+194356296+194396407+194440488+194527987+195027498
4307+196062484+197045375+197245841+196637377+195879277+195712487+196435121
4297+197591598+198237528+197767829+196379269+194877728+194253853+194948975
4287+196252772+196949848+196682615+196093755+195773857+195798227+196117509
4277+196749306+197551487+198162297+198337595+198244459+198218389+198357982
4267+198611203+199004167+199411504+199394816+198723043+197794515+197135550
4257+196769633+196491605+196430431+196830762+197582968+198448337+199326170
4247+199904671+199694403+198777587+197875023+197530439+197799506+198514774
4237+199321434+199878797+200316203+200890555+201224479+200709077+199627245
4227+199081999+199720562+200940874+201499485+200918639+200082346+200075054
4217+200701830+200847888+200154119+199468995+199560358+200213098+200810783
4207+201223698+201796245+202676769+203475161+203707319+203418362+203091157
4197+202999463+202938154+202634884+202213340+202107604+202534200+203120459
4187+203217129+202643002+201877355+201407175+201258938+201244535+201240626
4177+201227351+201441573+202287503+203651226+204693383+204865329+204633441
4167+204662097+204894450+204841019+204270982+203429216+202919346+203253391
4157+204224616+205060248+205397555+205574523+205692466+205157128+203679506
4147+202108656+201602815+202265012+203186098+203711078+204012724+204413250
4137+204783002+204772718+204314461+203763878+203635020+204198502+205228044
4127+206038448+205882649+204596848+202911603+201869898+201846264+202408769
4117+203099606+203893954+204868125+205859797+206636133+207071494+207037908
4107+206522009+205893564+205623925+205739223+205934562+206097022+206311876
4097+206553611+206761128+206952889+207004231+206659136+205971321+205394939
4087+205295187+205622783+206153851+206796503+207500646+208026166+208030647
4077+207466563+206733194+206261195+206121167+206215582+206570344+207150544
4067+207639426+207706599+207363158+206911380+206638870+206551235+206391542
4057+206035427+205748619+205847785+206313770+206917439+207470081+207868864
4047+208114402+208236510+208076005+207428091+206470005+205616874+205014935
4037+204607342+204507801+204856158+205463134+205974508+206261616+206415957
4027+206532879+206745748+207312868+208306299+209232256+209446493+209004157
4017+208513576+208167533+207684980+207125602+206854205+206765789+206421655
4007+205834209+205439275+205508959+206053648+206972464+207965518+208607133
3997+208772856+208801857+209037022+209342878+209322867+208928505+208571893
3987+208649515+209156904+209726475+209943073+209693926+209240946+208974765
3977+209191754+209946291+210874608+211392161+211315005+211005691+210812321
3967+210766617+210845306+211113156+211569594+212063243+212374030+212402399
3957+212264686+212057740+211726371+211503985+212066475+213578135+214979233
3947+215146864+214476098+214264041+214877496+215378301+214851397+213445954
3937+212086230+211785862+213104858+215669965+218079949+218894246+218167899
3927+217380768+217661291+218578979+218978122+218754128+218887301+219810281
3917+220557210+219822053+217582647+215141903+213737392+213528221+214075211
3907+215568018+218769237+223460181+227722500+229764897+229478075+227252155
3897+223369961+219098667+216591862+217200101+219837508+221638621+221783791
3887+222389400+224731880+227324409+228669896+229347352+229391177+227594393
3878+224652995+222970216+223560925+225723957+228739775+231740257+232765996
3868+231389208+230034596+230265762+230611218+229116006+226464407+224717432
3858+225177103+228731115+235974928+243495085+243674278+236670365+228875789
3848+224064406+223023603+224970668+228430987+232094794+235397329+237955084
3838+238895549+237994338+236435817+235188158+234050218+232582053+231102325
3828+230169768+229868994+230650668+233910054+239611117+243828559+243402880
3818+240633323+238120866+235152812+230992786+227309660+226151380+228313976
3808+232561290+236010935+237751791+239973517+243383200+245029161+243452478
3798+241084665+239310688+237338681+235122954+233866290+234063463+235260532
3788+237292706+240230271+243375247+245962875+248576618+252055233+255446289
3778+257010418+257035135+257628565+260760071+267163201+275298813+281682519
3768+284681603+286189745+288319852+291873278+297496463+305428001+314017917
3758+320914680+326483382+333556436+344424967+358861627+372652057+380707537
3748+384224249+388055537+394008904+398676004+399075372+397793135+398855332
3738+404423943+413674312+422340271+425715060+423672212+420311194+419032835
3728+420424672+423279157+425781842+426535657+425420149+423316923+421383103
3718+420682870+421864649+425021803+429556541+433571457+434701428+433125542
3708+431174102+430389527+431252701+433839277+437341405+440251908+442134492
3698+443707161+445276943+446896277+449517883+454325252+460559367+464708328
3688+463846808+459673822+456121599+455509677+457667086+460796697+464039095
3678+468738278+474931621+478282265+476974860+475653203+476653278+476031373
3668+470715427+463700675+458334244+454938437+452898926+452614900+454674707
3658+458311061+461572613+463648988+466238149+471589787+479858963+486959380
3648+487585645+482313839+475624337+470784795+469011600+469976345+472258478
3638+474216443+474904258+474407228+474227809+477098471+484701211+493654474
3628+496323738+491930110+486761199+484834384+486585990+490440461+493924458
3618+495896075+497945839+501811736+506761659+510604764+512705644+514214057
3608+515360024+514970337+512970487+511064750+510951453+512753273+515233977
3598+517326739+518960537+520106084+519881292+518328138+518237151+522451420
3588+529313334+533660446+533884877+532511171+531108539+529926249+529507637
3578+530229459+531534489+532500527+533030332+534307398+537389231+541111581
3568+542585715+540707882+537485269+534756139+532279644+529194444+525902974
3558+524136515+524937237+527063976+528069163+527157489+526171906+527278544
3548+530645426+534589981+537437220+538809242+539045279+538257186+536387953
3538+533639819+530904495+529775426+531316853+534648494+537418758+538092652
3528+537410940+536986615+537177068+537210023+536570708+535268445+533469512
3518+531645862+530233729+528893940+527131029+525505590+525059315+525948738
3508+527674485+530128910+533211465+535532506+535208850+532593559+530313711
3498+530267826+532069466+534227958+535755614+536405212+536237009+535586749
3488+535120448+535591861+537257291+539453187+541000809+540827916+538584451
3478+535154666+532317651+531187259+531037818+530408727+529162571+528399134
3468+528483687+528282769+526848386+525102733+524748287+525848731+526504944
3458+525333599+523438687+522993674+524541837+526589557+527594503+527396232
3448+526547220+525511063+524909393+525343822+526402832+526592864+524768914
3438+521439618+518433137+517287350+517907721+518838159+519047375+518886328
3428+519125071+519799446+520341098+520583330+520748526+520666198+520094297
3418+519721749+520652066+522715361+524226419+523713753+521519360+519424914
3408+518967152+520316563+522414557+523682722+522978219+520821111+519122606
3398+519063371+519958147+520352524+519511330+517921012+516863986+517183975
3388+518334392+519016103+518820178+518579149+519059823+519958388+520286374
3378+519682720+519093439+519910579+522624073+525996547+527702269+526731961
3368+524682497+523874138+525278273+528640403+532896588+536116014+537024140
3358+536662116+536703611+537129440+537221028+537273287+537689855+537931425
3348+537630199+537212729+536728087+535668475+534312871+533743375+534280938
3338+535182870+535934942+536628319+537044587+536544188+534794266+532085703
3328+529231127+527202351+526530141+527117738+528457347+530014650+531600759
3318+533371128+535054057+535458237+533684982+530553055+527907937+526770989
3308+526943402+527864638+528984987+530015131+531357506+533416471+535388899
3298+536097011+536098634+537088126+539056104+539888999+538318165+535937107
3288+535369655+537196613+539475618+540406236+540590916+541633088+543574004
3278+544996842+544980966+544015108+543357632+543723685+544429210+544065863
3268+542248528+540056661+538638393+538236318+538351240+538172573+537286156
3258+536320359+536118720+536212052+535261710+533313697+532271586+533487613
3248+535791455+536537994+534608624+531786943+530699849+532128821+534460206
3238+535463589+534737076+533912179+534250449+535142158+535359192+534690169
3228+533678848+532746426+532105969+531657348+530819041+529123422+527039140
3218+525899667+526830585+529371246+531340968+531037337+529244839+527857722
3208+527447108+527327977+526902809+525985723+524774927+523947866+523865117
3198+523745685+522594306+520571182+518591898+517230881+516507796+516191777
3188+515992303+515761137+515695828+516104578+516803308+517072721+516400452
3178+515071428+513903811+513445448+513387897+512793083+511160909+509195577
3168+508123758+508274221+508614415+507933546+506299507+504727590+503690591
3158+502945375+502654704+503298438+504347586+504477842+503392372+502157973
3148+501507984+500927423+499698617+498030121+496693549+496032585+495683521
3138+495111770+494132923+492932621+491856292+491103920+490504536+489869251
3128+489437919+489484315+489791283+489962132+489921029+489819157+489798079
3118+489943520+490064455+489642745+488419532+486838144+485552598+484699648
3108+483960596+483234895+482840247+482885469+482924979+482667052+482615154
3098+483330813+484248561+483971992+481918138+479012146+476566351+475169943
3088+474757434+474952188+475102169+474713535+474093915+473994869+474681752
3078+475835387+477019782+477746205+477457488+475947512+473627764+471255937
3068+469635610+469348697+470222666+471139362+470956756+469654944+468174044
3058+467365143+467413524+467913802+468288635+468382268+468563671+469014096
3048+469326086+469154816+468655409+468065828+467528595+467190175+466913185
3038+466325618+465438119+464620288+464009839+463497864+463042808+462537148
3028+461772868+460826856+460024089+459465057+458988142+458456953+457793854
3018+456957261+456137175+455729206+455882465+456258441+456328620+455787599
3008+454825289+454128033+454223921+454697499+454515314+453289034+451715373
2998+450582034+449953334+449496925+448999593+448399368+447707944+446999021
2988+446266344+445327157+444081482+442874566+442370860+442859923+443718226
2978+443858284+442940596+441824727+441455758+441622758+441324629+440251487
2968+439192718+438860312+439055937+439273031+439485524+439824275+439923230
2958+439308061+438312615+437882126+438289072+438612488+437886576+436382704
2948+435157356+434642705+434404593+434077509+433739840+433401751+432841546
2938+432022362+431165412+430439440+429944304+429818407+430076545+430535148
2928+430981845+431157354+430657346+429301080+427577889+426321059+425830012
2918+425514624+424663898+423544271+423231439+424166927+425444384+425868980
2908+425271461+424352871+423703573+423449074+423478601+423565709+423419156
2898+422938723+422412405+422227093+422299739+422027710+420997656+419566189
2888+418461866+417979358+417903375+418082041+418625107+419396964+419734782
2878+419117177+417857761+416693301+415910440+415286671+414693812+414337351
2868+414478101+415123700+415831992+415847326+414870704+413607981+413012145
2858+413149858+413367494+413381506+413478837+413662555+413414671+412516317
2848+411463591+410797005+410499959+410256044+409873423+409324584+408742399
2838+408404491+408367386+408241730+407705821+407022847+406653937+406586373
2828+406382810+405718539+404686019+403713817+403232121+403283388+403451500
2818+403242585+402545328+401714327+401200398+401082620+401024437+400741945
2808+400332713+400014139+399797706+399642403+399630977+399671058+399311650
2798+398277687+397021339+396305379+396316926+396551670+396517392+396192713
2788+395758375+395268711+394793329+394611265+394953413+395598170+395949790
2778+395590292+394645843+393573844+392695245+391986322+391255629+390465040
2768+389823530+389459943+389112141+388464618+387714351+387314230+387217019
2758+386949380+386400932+385925881+385638217+385165270+384219348+383096864
2748+382466750+382716348+383565240+384326031+384476944+383945335+382967329
2738+381844394+380810822+379987789+379391292+379017331+378920210+379094908
2728+379274206+379059818+378358923+377524103+376988885+376840197+376721006
2718+376177609+375227658+374423628+374137467+374044646+373630153+372943330
2708+372438872+372256718+372096122+371747178+371368857+371153868+371005420
2698+370719560+370299143+369891475+369508735+368996369+368315199+367706794
2688+367450160+367529090+367640163+367480860+367010470+366498675+366220813
2678+366059646+365656278+364963472+364300794+363938710+363942860+364225803
2668+364506763+364479882+364133133+363675281+363243799+362861750+362461238
2658+361868409+361020360+360167679+359660395+359617878+359856982+360024343
2648+359863176+359442008+359028086+358770129+358665371+358723794+358916562
2638+359015878+358699799+357868498+356771542+355819365+355334301+355410976
2628+355868136+356358612+356620297+356588124+356292010+355814885+355345487
2618+355071653+355000722+355008991+355026761+355023544+354866707+354430895
2608+353870901+353533894+353547996+353736315+353948778+354193024+354430324
2598+354525130+354414719+354145276+353777659+353386800+353095316+352997444
2588+353058483+353128933+353061640+352833871+352598285+352571104+352741862
2578+352769585+352412282+351931819+351715416+351703449+351613274+351446094
2568+351337487+351201066+350888445+350462195+350137005+350132525+350537727
2558+351159993+351639223+351817830+351810403+351690069+351394406+350992481
2548+350732149+350675651+350589444+350378755+350285062+350433209+350563074
2538+350450468+350252017+350226188+350401757+350662781+350946176+351228308
2528+351401262+351314845+351010643+350777402+350817032+350973689+350951107
2518+350698803+350459429+350492865+350839133+351339742+351794767+352050258
2508+352059760+351919731+351705644+351332796+350770607+350218370+349838846
2498+349579476+349443206+349602539+350072418+350547619+350708786+350561571
2488+350391053+350388166+350430412+350363270+350320573+350472629+350654212
2478+350601231+350390391+350317115+350465683+350637223+350630187+350439674
2468+350222700+350172816+350393248+350774395+351006403+350851430+350435795
2458+350141876+350194947+350481950+350772080+350953633+351005802+350890129
2448+350616686+350368892+350405365+350785280+351260902+351520754+351490866
2438+351287723+350974260+350585505+350288850+350241613+350411499+350739335
2428+351237689+351784724+352141787+352246996+352218371+352179913+352291888
2418+352681064+353171450+353379974+353175870+352820220+352645192+352756535
2408+353033135+353317402+353536300+353661204+353733940+353971811+354593415
2398+355485936+356271654+356712006+356853839+356834114+356733866+356607428
2388+356524860+356521252+356504444+356236324+355451207+354011742+351958911
2378+349449881+346692397+343916300+341282457+338778208+336345222+334111680
2368+332284933+330888916+329854924+329216180+329021066+329308250+330279129
2358+332266381+335519994+340126476+345890652+351944357+356734708+358905016
2348+358149397+355401173+352434924+350662030+350096864+350019798+350035825
2338+350182198+350637013+351344342+351902021+352026685+351917867+351966849
2328+352359181+353062632+353970849+355011336+356178262+357453163+358752028
2318+359964477+360977723+361728832+362324126+362984880+363788939+364626615
2308+365466066+366422241+367453167+368245500+368592760+368677042+368791362
2298+369018168+369349462+369865617+370608427+371454913+372229506+372838271
2288+373271076+373537001+373613044+373490936+373255380+373001813+372705368
2278+372311021+371878517+371489913+371144727+370894498+370874502+371018259
2268+370954003+370417763+369636495+369112072+369131346+369582252+370103608
2258+370380298+370435744+370588702+371023251+371593198+372135031+372656567
2248+373120252+373404489+373556996+373717952+373761492+373411736+372741992
2238+372148742+371784583+371407435+370881268+370479914+370511216+370851981
2228+371059904+370913200+370687567+370817102+371373037+372015629+372446810
2218+372779547+373378630+374386343+375564815+376683691+377829779+379132373
2208+380496427+381892804+383564789+385643088+387890371+390066964+392229846
2198+394478242+396689083+398694796+400565172+402557987+404795799+407040647
2188+408868236+410140852+411214144+412508710+413982964+415260391+416173749
2178+416931684+417783823+418673577+419237420+419197520+418734496+418272074
2168+417968623+417675667+417250108+416631751+415742959+414517310+413018730
2158+411484068+410162140+409058870+407934732+406574286+405007721+403530309
2148+402426558+401651244+401218559+401913410+404773969+409753540+415732796
2138+421857823+428050565+434334443+440477451+446241417+451568128+456576143
2128+461379934+465939930+470283915+474630967+479008508+483071262+486477022
2118+489136483+491122713+492661104+494204305+496322896+499414651+503533964
2108+508655428+515077982+523266696+533195228+543961947+554128380+562474953
2098+568311353+571113489+570570634+567208383+562181545+556409671+550323282
2088+543910109+536718946+528321798+518739474+508231884+497164751+486132408
2078+475761479+466465887+458430854+451560070+445600629+440484307+436275330
2068+432922641+430356482+428450023+426807927+425146557+423683006+422647239
2058+421882509+421255763+420901738+420918275+421246171+421836054+422766671
2048+424262184+426530245+429622421+433623596+438800626+445483753+454085246
2038+465034300+478218400+492724187+507401455+521377256+534124402+545446365
2028+555057855+562180162+566313728+568053847+568417855+568000626+567058583
2018+565658477+563653575+560934728+557578371+553689502+549312261+544433660
2008+539059592+533302151+527265074+520983240+514613065+508404597+502430844
1998+496751100+491781482+487982067+485190214+482699135+480071156+477554369
1988+475600222+474327967+473553375+473037521+472643294+472477015+472852089
1978+473930793+475501838+477197006+478751242+480092173+481446365+483217756
1968+485453553+487654080+489438851+491056352+492875521+494833036+496727226
1958+498625175+500617268+502557342+504374888+506299988+508528299+510932991
1948+513299556+515735819+518650472+522111467+525350016+527517709+528926594
1938+530681087+533291807+536354216+539274581+541748490+543719415+545356400
1928+547118770+549564896+552765980+555938559+558258037+560073929+562262128
1918+564493025+565578615+565562318+565797032+567114149+569200055+571343032
1908+573055909+574219196+575069110+575912048+576762083+577464060+578088400
1898+578878538+579845599+580758416+581593055+582599565+583685216+584185795
1888+583721719+582832836+582255342+582152208+582282584+582408270+582411457
1878+582323237+582249629+582242413+582523733+583653885+585774009+587586293
1868+587077776+583998228+580152778+577072088+575048964+573841056+573157721
1858+572595502+571728870+570329485+568416773+566379096+564951809+564711021
1848+565732625+567609015+569013992+567853351+563864174+559596142+557207146
1838+556529885+556065328+555031696+554268319+554871070+556283504+556483279
1828+554691742+552204483+549850847+547152868+544050468+541455564+539961103
1818+539217752+538621014+538202882+538619390+540142536+541818850+542177687
1808+540954022+539407844+539064764+540625194+543476402+545926257+546687409
1798+546302292+546418537+548179524+551433588+554393163+554913346+553388396
1788+552121915+552303347+553536093+555375859+557982851+561027278+563347839
1778+564496873+565730521+568820111+574082806+579157453+580949531+579604811
1768+577415590+575855339+575785280+577725535+580716320+582677743+583211277
1758+583680946+584503378+585383540+587238702+591331435+596863783+600995244
1748+602236709+601926283+601879136+602928403+605153286+607996916+610322107
1738+611881997+614392349+619388097+624789347+626198233+623667374+620164102
1728+617236100+615644879+615857102+617342903+619341370+622507094+628300557
1718+636152984+641795504+641788769+638125112+634458809+632862477+634129500
1708+638262284+643947380+648595297+651266815+654224225+659321063+664358245
1698+666188810+665190599+662366813+658786927+656857798+657927512+660964783
1688+664689418+670031494+677982486+684542273+684296433+679698250+675988709
1678+675895678+680067851+686738831+692428377+696005677+698987141+701321774
1668+701219481+699529876+699095568+700554187+701715851+700931005+699799710
1658+701083873+706653506+717342348+730034589+734486760+729486622+725505563
1648+726189800+727831115+725603646+720354181+715827200+714030552+715850534
1638+721498104+728852900+732207213+728407346+722118416+718413385+718485730
1628+720728473+723096782+725444284+728432243+731377685+733834155+737432442
1618+743375225+749353849+751539583+750429276+748875280+747675791+746313270
1608+744722892+743356703+742583463+742647329+743644999+745415488+747850188
1598+751041289+754658520+757656882+759238361+759693537+759748321+759699791
1588+759552215+759415945+759707428+760919005+762942189+765263351+768038726
1578+771707494+774803760+774486357+771957844+771405607+773931775+776696627
1568+777086434+776684118+778017051+781616121+787940111+798521488+811459509
1558+816530728+811008963+804623273+801945861+802115266+803303931+804628625
1548+806866016+811524577+818687295+826873603+835383567+842861944+842738964
1538+833360083+824148382+821112433+822882381+824663754+824833280+826481751
1528+831458556+837854710+843230522+847948618+852860174+856412818+857393710
1518+857105595+856516735+856260612+858438888+864872448+874860696+886086019
1508+895810206+899174862+893272311+884697339+880314806+881608951+887028122
1498+893278385+896721098+896388722+895337831+897132976+902118440+906722456
1488+907754765+907160433+908143971+910734906+913412198+915655062+918058070
1478+921158846+925111279+930234697+936044517+939062665+936250246+930865834
1468+928102005+929491647+932736330+933997520+932112290+929769900+930527804
1458+935471173+939904581+937811398+931505329+926147377+923455051+922354366
1448+921069843+919189003+917842299+917670007+917939420+918554379+921330236
1438+927542852+934395265+936762070+934858378+933317492+934512531+937132573
1428+938740272+938961575+939044985+939433469+939650683+940146211+941755954
1418+942880693+941367109+938962778+938610256+939922321+939902175+937387193
1408+934982982+935914201+939834341+942861930+942679595+941124818+940512985
1398+941103048+942453481+944067193+944410334+942217985+938586983+935452771
1388+933365241+932056964+932235029+935323356+941447271+948547748+953892951
1378+956364816+956998538+957783504+959982828+963013905+965145275+965557092
1368+965460873+966924965+970524756+974802771+978078785+979807238+980367232
1358+980723784+982067301+984610969+987167145+988989051+990982106+994389219
1348+998880418+1002445270+1004190501+1005804514+1009036869+1013063391
1340+1015531407+1016045096+1016470985+1017776796+1019354787+1021067364
1331+1023849174+1028224730+1033280795+1037434687+1040519467+1044243019
1322+1049440286+1054428516+1057045792+1057467712+1057951934+1059734630
1314+1061595865+1062420702+1063456379+1066369888+1070676408+1073741823
1305+1072733208+1067407730+1060949515+1056983731+1056254030+1056860209
1297+1056782392+1055446272+1053413527+1051432619+1050002084+1048820636
1288+1046465196+1041693217+1035221171+1029069653+1024546882+1021741979
1280+1019963492+1018266671+1016019117+1012674065+1007889518+1002276346
1271+996976666+992608086+988686202+984058431+977938005+970561981+963129067
1261+957429538+954556741+953420757+951907714+948870683+943828870+936660259
1251+928226788+919594145+910704778+901359212+892726870+885830437+879556541
1241+871749637+861623375+850481041+840493935+832974605+827554953+823100738
1231+819352409+816947536+815791285+814525525+812042535+808750945+806003473
1221+804726227+804817214+805662137+806946720+808685035+810661974+812484781
1211+814199042+816262157+818892542+821963249+825343962+829051939+833311251
1201+838354086+843736514+848144965+850600472+851715169+853137465+855826304
1191+859204611+862245430+865062901+868481981+872348720+875775377+878727855
1181+881604261+884548921+888451080+894696532+903376082+913072546+922134265
1171+929323023+934143231+937206121+939356915+940522547+940506671+940279835
1161+941268484+943647077+946336577+948778012+951608232+955364499+959449054
1151+962694699+964459114+964968413+965407051+967565182+971924862+976658593
1141+980073404+982640946+985203437+987279300+988613857+989969582+990306228
1131+986502934+979316942+974195749+974308626+977859466+982235624+986789847
1121+990779806+993030186+993935366+994815409+996045929+996858017+996245823
1111+993448137+988918811+984701294+983144833+985759101+991560081+997014613
1101+999512637+1000347817+1002333055+1005487954+1006747159+1004094583+998416884
1091+991560141+985580435+982408698+982296843+983514554+984373007+984192236
1081+981439292+975098223+968437707+965824641+967492356+969613503+968752343
1071+964822882+960013017+956455261+954977759+955205919+955674926+954695898
1061+952142127+949777246+949339871+950557100+951458552+950820319+949466038
1051+948297218+946921949+945174071+943683399+942655601+942104026+943285594
1041+947255167+952756966+957862043+961418295+962522527+961214671+959379776
1031+958982693+960056195+961763420+964071051+966520725+967214223+964851928
1021+960746205+957810986+957671589+959013362+959694111+959836215+960649866
1011+960984888+957970409+951106811+942624089+933780486+924141092+914329285
1001+906355862+900712200+895773883+890252600+884354258+878563141+872717118
991+866611665+860804551+856518960+854429926+853321785+850965623+846724473
981+842282766+839576969+838939879+839321748+839170624+837073592+833031976
971+829010325+826592463+824623523+820859498+815413566+810811534+808824012
961+808585629+808335460+808112292+809324591+812320307+816138816+820189092
951+824290425+827506663+829080444+830346565+833787716+840117900+847379603
941+853197001+857463409+862109340+868665399+876700642+884051770+888632754
931+890796958+893285000+898319054+904856711+909790998+911873357+912140485
921+911360931+909820826+908515556+908465101+909679024+911445303+912872049
911+913334261+912535524+910228674+906703814+903594679+902543066+902563994
901+901108021+898570366+898524783+902675788+908288059+911409882+911621865
891+911723255+913766645+917264504+919850990+919315591+915896271+912701621
881+913519062+919374165+926953511+931835179+933529655+934578682+935789297
871+936289214+936434144+937423636+939181856+940380865+939934709+938110699
861+936558026+936663025+938923388+943314340+948655694+952773203+954664627
851+955681541+957537965+959911386+961478852+962223106+962465457+961210402
841+958299478+956745301+959210611+963866826+966390769+964894745+961605200
831+960484911+964871592+975212603+987487795+994975012+993416385+985626018
821+978796578+977463044+980673750+984809060+988032575+991003635+994591700
811+999209367+1003552029+1003686915+997065970+986698920+979317363+980644764
801+991396208+1005776370+1014892754+1013793212+1005529388+997621754+994654843
791+994573238+991991804+984446615+974131403+964418702+956226741+948620393
781+941198064+934779780+929485813+924722374+922075752+924527711+931561076
771+937283096+936092146+928713656+920703369+918148816+924143016+936828942
761+950852132+961032216+964968653+964204675+961633344+959005905+958299057
751+960903463+965237585+966693739+961309026+950808232+942540739+943384580
741+953848750+967329806+976420752+979860519+980631714+979767608+976144123
731+970566792+965887183+963770848+964308471+967838864+974226179+980798895
721+983915606+984147193+985322087+988077497+989899402+988424607+984566227
711+981557882+980113335+977231457+971522486+967928769+971581481+979640900
701+984376676+982235864+974573529+964715898+956162275+951369068+951936339
691+958384812+966082448+965556070+955567582+945937809+943627292+945581499
681+943777213+935362626+926623119+925551240+932190167+938891215+941084165
671+940915662+938627756+931332736+924966831+929134975+941296448+950114132
661+944945792+930254482+921452133+924680218+931888400+932996482+927919489
651+921856914+917466023+915748334+915788746+913316882+906201431+899466706
641+900355348+911297486+926919353+937832626+938564431+928047701+908694463
631+887973654+877200139+879986820+886267211+883938893+874714082+869109629
621+871279367+879786204+892009798+902845614+908419397+908272363+904877037
611+903055372+904933505+909517977+913861781+912648701+903144314+890813015
601+884597271+888999648
##END=
