##TITLE=<SNM>
##JCAMP-DX=4.24
##DATA TYPE=INFRARED SPECTRUM
##DATE=29/4/2025
##SAMPLING PROCEDURE=Instrument type and / or accessory
##ORIGIN=Admin
##XUNITS=1/CM
##YUNITS=ABSORBANCE
##RESOLUTION=4
##FIRSTX=4497.3318
##LASTX=599.83466
##DELTAX=-1.4281778
##MAXY=2.128927
##MINY=0.51578808
##XFACTOR=1
##YFACTOR=1.9827178e-09
##NPOINTS=2730
##FIRSTY=0.53260022
##XYDATA=(X++(Y..Y))
4497+268621300+268784056+268784326+268343826+267704436+267094957+266548759
4487+265977880+265379223+265040874+265301453+266123050+267100128+267842030
4477+268266687+268600527+268979369+269148679+268892279+268564993+268720444
4467+269191127+268992657+267584218+265981998+265736661+266763011+267316304
4457+266516953+265561880+265686097+266403258+266705292+266719812+267045896
4447+267446714+267430510+267367710+267819574+268327352+268102007+267460843
4437+267233633+267207780+266586276+265629460+265327336+265658019+265578475
4427+264663625+263638748+263375314+264048585+265127303+265996729+266544520
4417+266842075+266615406+265843382+265394795+266092206+267651166+269258075
4407+270460859+270910257+270198567+268577319+266974648+265917545+265196867
4397+264729672+264872436+265621614+266326991+266593972+266766980+267227290
4387+267808481+268045009+267702091+267178049+267287174+268191081+268939958
4377+268702798+267770542+266768934+265923527+265591792+266330207+267850868
4367+268933855+268882780+268179447+267434749+266671081+265777095+264814356
4357+263877231+263314559+263781393+265227410+266423460+266441587+265885830
4347+265846298+266411646+266886356+266869551+266541935+266201752+265932366
4337+265594588+264982945+264184676+263708673+263867641+264249159+264289713
4327+264063947+263974692+264045579+264008512+263796274+263617524+263666676
4317+263951514+264411404+264974587+265360975+265213731+264725944+264658244
4307+265339030+266069148+265877382+264576024+262847304+261547629+261108031
4297+261415266+262064607+262798212+263773396+265194762+266696033+267485253
4287+267143447+265930442+264393217+263077579+262484484+262842975+263800633
4277+264518215+264333002+263242440+261686937+260358313+260141956+261355051
4267+263049952+264013923+264265002+264558077+265059904+265522409+265888716
4257+266033104+265775051+265351446+265149579+265199091+265410788+265825735
4247+266282800+266277509+265497367+264380861+263845455+264280664+265140199
4237+265719075+265842570+265757134+265947096+266784746+267750942+267625914
4227+266166820+264664828+264224959+264665549+265466313+266608492+268000788
4217+268918493+268646582+267344863+265840496+264766558+264307029+264575092
4207+265736421+267663010+269689887+270908604+270779307+269457537+267586142
4197+265863614+264690200+264052042+263824773+264166729+265300010+266936199
4187+268333726+268932502+268656863+267755000+266704330+266097046+266202864
4177+266662574+266862156+266572207+266062234+265707682+265681979+265961676
4167+266434673+267068081+267999766+269230328+270237197+270262479+269148589
4157+267656276+266702677+266468343+266529850+266635939+266872287+267215235
4147+267576702+268098550+268778645+269145733+268871025+268280155+267758818
4137+267174321+266323534+265470402+265111821+265538041+266693778+268165468
4127+269387071+270021472+269930263+268960941+267322647+265856669+265209913
4117+265101810+265051456+265208170+265758426+266173704+265806526+264877186
4107+264306006+264758501+266106275+267561551+268248650+267974393+267408354
4097+267135541+266905115+266370761+265962728+266191561+266711244+266919034
4087+266951771+267330433+268063407+268686083+268922071+268922371+268873731
4077+268622232+267942528+267061318+266512233+266537185+266912811+267245809
4067+267216258+266707787+265937025+265313026+265066307+265149218+265442324
4057+265845186+266211101+266393578+266299815+265862652+265190373+264738329
4047+265005672+266029526+267331786+268226885+268218588+267486035+266841233
4037+266780778+266959197+266920867+266710493+266507844+266362735+266436778
4027+266973476+268021591+269323791+270268522+270245945+269496407+269021516
4017+269160794+269045476+267951396+266350680+265112693+264389790+263884566
4007+263734526+264403588+265833010+267324722+268267559+268520411+268209689
3997+267718385+267678793+268341782+269091531+269162988+268699521+268539501
3987+269042049+269616926+269487809+268679770+268040650+268230372+268960580
3977+269502660+269669264+269768710+269829164+269603518+269241180+269198131
3967+269508582+269750582+269652730+269370026+269304701+269688384+270185821
3957+270213598+269810376+269676689+270202235+271019804+271556171+271501038
3947+270767462+269608479+268718370+268711426+269538344+270620910+271455554
3937+271820327+271687152+271340416+271301185+271717966+272033257+271702063
3927+270918404+270198056+269677561+269213673+268929646+269217190+270229892
3917+271528274+272301050+272170130+271599431+271139210+270600287+269558756
3907+268458123+268413240+269840498+271806889+273122888+273573428+273499175
3897+272982197+272096027+271360137+271437727+272384412+273357853+273620716
3887+273481919+273644164+274055233+274107391+273812873+273602288+273344385
3878+272698531+272020390+271872124+272287522+273181809+274642256+276040083
3868+276224123+275277378+274522428+274761753+275301668+274932295+273239979
3858+270744435+268596258+268597611+272011973+276485633+278474842+277877237
3848+276358320+275232435+274872712+274846287+274787065+275120634+276419617
3838+278243394+279504980+279798055+279346673+278497569+277870143+278057610
3828+278799693+279131308+278605371+277897499+277921188+278593978+279259613
3818+280116052+281608093+283048639+283298545+282364997+281054530+280194694
3808+280178942+280403265+280046608+279609656+280266302+281956693+283580227
3798+284818514+285763186+286160426+286247787+286886847+288371313+290055692
3788+291435391+292865415+294767053+296893826+299017232+301571758+304856943
3778+308293882+311317828+314272541+317939605+322824635+328765235+334843941
3768+340185644+344768399+348778743+351920261+354059600+355715089+357360869
3758+358813529+359933793+361488965+364730681+370354847+377438318+383625938
3748+388000604+392447780+399471998+408524355+416005006+420525564+423324404
3738+425773864+428980617+433570077+438839420+443425332+446757445+449279985
3728+451730196+454213926+455980735+456266054+454986492+452544007+449697427
3718+447291077+445684108+445056592+446077951+449105895+452657641+454724470
3708+455328568+455545947+455679934+455523851+455416560+456086975+457490003
3698+458839911+459874107+461201138+463474583+466741070+470106672+471948125
3688+471717880+470971799+471093881+471746529+472007708+471737210+471491843
3678+471634938+471816423+471400003+470566502+470292937+471249392+472703646
3668+473102690+471882620+469756178+467923893+467130825+466977509+466563373
3658+465678375+464838711+464228270+463651709+463510838+464671686+467418670
3648+470713415+472930464+473119465+471426067+468961607+467098689+466613848
3638+467561615+469653726+472322428+474739631+476433570+477838221+479749569
3628+482145999+484100846+484960352+485131044+485393787+485757809+485662151
3618+485383085+485948252+487605124+489769264+492085879+494489344+496588369
3608+498183343+499868264+502175048+505031067+508138766+510932677+512729668
3598+513431618+513329888+512477628+511384931+511470848+513280526+515213278
3588+515470369+514636868+514415130+515095555+516138409+517457413+519154779
3578+520888400+521847802+521330132+519859796+519228852+520511301+522790609
3568+524592050+525570872+525671880+524624878+523420771+523898998+526356695
3558+529192692+530946214+531243228+530220155+528453285+526966414+526689662
3548+528057728+530874727+534170313+536453349+536842713+535731678+534139350
3538+532860328+532078473+531239680+529316067+526083791+522999601+521705488
3528+521850628+521282033+518790246+515949559+515454978+518073326+521731882
3518+523726322+523444399+522123651+520641350+519103493+517689793+516476788
3508+515479568+515432972+517308967+520561806+523093334+523687902+523046618
3498+522396976+522539230+523790715+525680538+527077824+527267516+526408582
3488+525033121+523834245+523560800+523981248+523686580+522008393+520102817
3478+519077159+518412005+517339871+516422797+516390570+516515869+515646293
3468+514107114+513164968+513139355+513149215+512488691+511586227+511380422
3458+512175263+513321531+513752742+512917557+511495980+510827820+511327031
3448+511970300+511759685+510895761+509892949+508791174+507486118+505969305
3438+504402048+503332649+503278688+503914772+504342315+504116909+503413967
3428+502605357+502137471+502258110+502619486+502612512+502113872+501571852
3418+501549997+502177814+502833799+502619125+501540257+500822164+501551049
3408+503296214+504654149+504928976+504516645+503902657+503008460+501648541
3398+500063667+498867978+498694219+499593256+500836684+501786405+502434123
3388+502587530+501594309+499507128+497423975+496368104+496755454+498593090
3378+501248204+503614511+505204646+506440318+507620375+508506185+509007621
3368+509389590+509823325+510316885+510818922+511071443+510801847+510210946
3358+509878519+510268545+511600596+513726708+515889014+517149578+517285579
3348+516843606+516462539+516567215+517258643+518031179+518042903+517033478
3338+515678098+514960276+515375974+516641228+517878403+518127197+516989226
3328+515043127+513476711+512803140+512460913+512020083+511939637+512556330
3318+513150117+512851781+511829670+511013183+510981257+511264983+510896662
3308+509785507+508967398+509354477+510974944+513226655+515120326+515716758
3298+515164878+514722364+514908509+514507180+512489472+510069534+509428310
3288+511128922+513936180+516571965+518658334+520351972+521976888+523717904
3278+525183552+525842573+525939313+526092629+526177344+525535458+524026341
3268+522226764+520898982+520433080+520554470+520647362+520341030+519556950
3258+518214617+516528495+515419384+515849031+517609227+519233783+519430689
3248+518335227+517130037+516806990+517461081+518451687+519072590+519056176
3238+518469604+517527879+516662692+516156326+515675573+514762227+513556436
3228+512432595+511288191+509869140+508455741+507693727+507972883+509163463
3218+510640594+511521533+511273040+510166574+508822679+507502532+506316703
3208+505575672+505150474+504276358+502904956+502233248+502990062+504306511
3198+505042671+505103757+504754797+503898177+502670291+501664684+501020423
3188+500186501+498990150+498046260+497719906+497546418+497041224+496308461
3178+495522097+494572135+493490711+492520307+491727780+491019547+490353521
3168+489745245+489157080+488424407+487359066+485989137+484676866+484009758
3158+484346875+485249369+485721103+485331589+484716668+484550816+484447553
3148+483504234+481754650+480288552+479888426+480289003+480788635+480975922
3138+480841304+480558780+480084611+479045785+477520735+476412617+476180778
3128+476021389+475234934+474415291+474279591+474313501+473498969+471695033
3118+469649818+468120800+467372585+467193234+467144894+466919940+466501536
3108+465940968+465209286+464397339+463733749+463239197+462664711+461880751
3098+461122225+460747411+460878361+461284861+461631867+461965707+462656774
3088+463726414+464564996+464319629+462543741+459882163+457907715+457569186
3078+458136518+458372956+458173765+458194989+458537576+458681724+458330238
3068+457712672+457065045+456168713+454762048+453221366+452348092+452581945
3058+453687208+454939384+455553282+455290870+454591115+453949560+453476413
3048+453120087+452874179+452627339+452112495+451179128+450052340+449247788
3038+449095795+449350210+449520963+449517295+449560705+449577870+449200050
3028+448298428+447106105+445951119+445138030+444789490+444571089+443981481
3018+443110432+442625981+442917193+443710050+444503990+444939740+444774940
3008+443874430+442345532+440640350+439329553+438588913+438132029+437843012
2998+438070552+438965861+439922588+440044369+439044474+437513652+436241755
2988+435359072+434455044+433510764+433060554+433295129+433675234+433600980
2978+433010080+432254349+431651544+431213449+430792249+430404027+430153039
2968+429906229+429485931+429089983+429047866+429309166+429599085+429894685
2958+430314081+430679456+430588127+429882660+428786747+427642193+426745681
2948+426295201+426216648+426098955+425536824+424577483+423699219+423323292
2938+423324555+423084719+422230415+421219637+420849152+421247835+421738178
2928+421691131+421142859+420542699+420259394+420343928+420487836+420241236
2918+419454752+418425576+417590541+417281383+417656137+418473645+419099899
2908+419086040+418545915+417807018+417043321+416442891+416295466+416551205
2898+416551776+415642157+414058907+412806911+412546182+412963685+413402411
2888+413756542+414333013+415033249+415187318+414282418+412576365+410865741
2878+409831185+409617473+409848140+409981194+409739014+409255736+408852964
2868+408734519+408851611+408993204+409013195+408930705+408766686+408411562
2858+407813387+407205231+406918048+406965065+407018695+406835708+406501688
2848+406218593+406088665+406097262+406002597+405394952+404301984+403415453
2838+403196661+403183734+402707882+401827363+401021188+400474328+400166793
2828+400173437+400405666+400427311+399947039+399291986+399006517+399093306
2818+399038803+398550865+397890101+397440372+397256001+397134430+396960130
2808+396768274+396478445+395874828+395079024+394707908+395123697+395808962
2798+395944061+395355055+394481240+393716069+393212920+393060806+393204773
2788+393297094+392963465+392231844+391486153+390996201+390649826+390151006
2778+389384002+388527262+387818127+387344138+387160820+387329919+387639739
2768+387661353+387304847+386912116+386679796+386463379+386195225+386044584
2758+386111021+386251441+386231630+385912130+385275956+384396219+383488525
2748+382847390+382517790+382218281+381810429+381535511+381571044+381689128
2738+381581896+381288641+381056050+380867110+380412241+379653413+379040537
2728+378841677+378671555+378147302+377637900+377799514+378561017+379064286
2718+378663889+377643221+376733933+376246176+375988123+375793801+375778500
2708+376112129+376665542+376952244+376622764+375926105+375301805+374734834
2698+374021551+373361658+373103364+373163278+373162136+372926389+372574843
2688+372288171+372134162+371998763+371665434+371058210+370410913+370100582
2678+370255161+370574210+370618793+370260362+369764969+369481183+369560847
2668+369918316+370306748+370439622+370167651+369577923+368881504+368254138
2658+367791904+367470931+367156000+366809354+366621346+366743398+366971750
2648+366900533+366378474+365670302+365143944+364908378+364811397+364678733
2638+364455883+364222180+364137916+364244096+364312667+364085578+363635579
2628+363283221+363194869+363238368+363206954+363056282+362882734+362744929
2618+362636525+362601383+362660665+362648821+362398373+362050044+361865192
2608+361823737+361727628+361546444+361347433+361098428+360824954+360710778
2598+360820384+360989514+361091424+361115143+360991588+360671336+360328057
2588+360179130+360167436+360076377+359907549+359916447+360245086+360686668
2578+360916613+360845606+360622125+360410788+360284197+360199963+360019680
2568+359675439+359292358+359029435+358906451+358883904+358945742+359052402
2558+359160025+359267587+359357743+359366010+359261935+359097315+358950522
2548+358854925+358784399+358718593+358712671+358853662+359149503+359476939
2538+359650638+359583720+359360268+359089078+358775741+358435468+358173417
2528+358022535+357882476+357742687+357784955+358127452+358601231+358939369
2518+359128249+359361862+359633262+359669397+359373766+358991016+358704524
2508+358431951+358123063+357911275+357896756+358032125+358229212+358420497
2498+358577301+358751872+358990565+359186149+359174785+358999072+358901942
2488+359017861+359216932+359309914+359278860+359238487+359278590+359414500
2478+359617119+359832454+359999388+360048420+359871594+359385821+358694333
2468+358095556+357855721+358038799+358546758+359180738+359676431+359872977
2458+359864740+359834829+359784565+359596496+359289232+359026790+358929569
2448+359003341+359210018+359525580+359906497+360214904+360298176+360204923
2438+360141191+360162986+360174981+360243673+360542520+360953679+361108650
2428+360876270+360506897+360291983+360316002+360520725+360842750+361232806
2418+361589252+361791149+361848297+361894833+361971191+361961782+361828637
2408+361742238+361880374+362231860+362671067+363093229+363426287+363651542
2398+363863810+364187128+364640675+365231425+366151866+367772363+370501731
2388+374753773+380975875+389617945+401074037+415662479+433655513+455255728
2378+480305838+507881555+536446495+564737990+592288755+618939281+644431034
2368+668193374+687838591+698555005+698275969+691465462+683492875+675393065
2358+664359375+646899192+621663388+591031980+560917339+537772895+525370538
2348+524892791+536075889+556111011+578130231+594807177+603904447+607515867
2338+608439374+608697607+609551672+611359486+613183232+613421084+611316497
2328+607412273+602628732+597279123+590833991+582753060+573340138+563121612
2318+552158808+540839709+530272883+521085728+512518272+503251301+492849968
2308+482043818+471799288+462510161+454101854+446488148+439598067+433235846
2298+427276848+421848656+417118176+413050955+409465118+406174462+403061292
2288+400111509+397402463+395073643+393285610+392086493+391317746+390763491
2278+390333843+389972768+389512938+388822321+388030065+387429875+387117951
2268+386844927+386353682+385747120+385288853+384986038+384681930+384397783
2258+384220537+383992936+383484917+382802989+382353139+382416210+382887974
2248+383408890+383703829+383815841+383983888+384282615+384471134+384264998
2238+383694841+383097266+382772145+382741211+382841198+382921523+382861159
2228+382500534+381742819+380733604+379794645+379155916+378846787+378786693
2218+378828660+378777464+378532608+378170781+377820016+377599812+377680649
2208+378133354+378701136+378995174+378943106+378843150+378997879+379452779
2198+380050714+380620661+381094049+381494296+381898330+382398383+382998422
2188+383597921+384187228+384911303+385774506+386481416+386776416+386773530
2178+386797639+387044750+387460298+387811093+387870856+387664871+387520513
2168+387787644+388516229+389401257+389975533+389941563+389479659+389143535
2158+389267721+389613946+389803067+389870286+390093076+390515689+390974767
2148+391400206+391815965+392193695+392508565+392824848+393225185+393786024
2138+394654157+395995557+397821980+399979687+402349271+404947057+407779357
2128+410738970+413760300+416966242+420540354+424537710+428919651+433635251
2118+438532426+443324113+447782322+451845754+455426510+458318333+460528258
2108+462501894+464648508+466760611+468332016+469360891+470323810+471417048
2098+472405159+473239713+474267356+475702400+477305250+478718529+479785072
2088+480341552+480005367+478451277+475692630+471852979+466905931+460901479
2078+454259410+447666583+441749040+436778153+432591886+428900111+425698678
2068+423232204+421557565+420356314+419247173+418168756+417363603+417042359
2058+417153559+417447867+417684936+417800375+417923960+418211263+418670973
2048+419198893+419704628+420163105+420656544+421374848+422469589+423972303
2038+425942181+428547994+431891740+435859876+440208839+444738174+449395664
2028+454284091+459571231+465322230+471353888+477322867+483042300+488566240
2018+493844993+498491931+502034899+504272330+505319543+505415321+504708200
2008+503225748+501075918+498536934+495875867+493235183+490657780+488042889
1998+485235570+482353908+479829203+477973050+476682755+475691637+474987553
1988+474783371+475109816+475683130+476260803+476900254+477721670+478678216
1978+479756874+481160984+483038753+485169824+487151728+488833401+490394736
1968+492087893+494056600+496289582+498596667+500722358+502597661+504445157
1958+506595559+509164845+511847947+514126834+515828589+517357968+519263063
1948+521743667+524627704+527625074+530532560+533287931+535851145+538114340
1938+540082806+542010447+544122249+546354239+548620861+551117397+554043641
1928+557220242+560252606+562944846+565385407+567752316+570132993+572430218
1918+574363692+575657143+576340695+576821749+577659880+579225634+581425638
1908+583761342+585701911+587039854+588015008+589108487+590569144+592186123
1898+593656881+594929590+595999079+596767226+597335159+597983297+598679896
1888+599036312+598893878+598539626+598399236+598854256+600007258+601342496
1878+602047572+601892091+601388370+601105967+601259164+601753986+602165776
1868+601908264+600908339+599753714+598949433+598454611+597877900+596909359
1858+595623844+594407291+593530741+592900158+592299999+591632740+590816434
1848+589792640+588744675+587973823+587386590+586460618+584985110+583293937
1838+581767143+580491909+579401257+578489534+577715194+576956126+576225858
1828+575663577+575164546+574307295+572822889+571038403+569604502+568791683
1818+568234392+567432696+566353828+565307426+564508797+563996178+563687621
1808+563453136+563294348+563269277+563252322+563162616+563324410+564027803
1798+564903753+565453769+565914019+566998780+568842007+570530474+571332892
1788+571737227+572555397+573857266+575145366+576229405+577299375+578413537
1778+579563472+580867926+582329425+583799942+585290180+586918403+588613003
1768+590268342+591877085+593423118+594915100+596334572+597490760+598331958
1758+599245124+600595994+602259991+603916833+605510064+607165583+608906359
1748+610583342+612040873+613288029+614513119+615978105+617893361+620214395
1738+622617679+625015792+627714526+630552689+632559694+633462158+633899501
1728+634376046+635189646+636543943+638223092+639591097+640306515+640841800
1718+642173852+644590844+646936589+648359849+649470763+650998759+652689872
1708+653911475+654683891+655503985+656591872+658003648+659845131+661752811
1698+663202947+664612498+666663935+669243804+671984144+674784969+677308441
1688+679184075+680939281+683557689+686655768+688510779+688958404+689196315
1678+690155236+692283271+695287256+697995610+699670429+700974342+703012733
1668+705793115+708341359+710440354+712721526+715327128+717521119+718816796
1658+719418639+719698998+720299338+722343319+725786030+728421634+729625861
1648+730416915+731560477+733203190+734809829+735501197+734618153+732283531
1638+729678650+728759592+730780486+734026290+735898978+736271868+736520121
1628+737645947+739448770+741095331+742215866+743086885+744070156+745512415
1618+747970351+751404885+754233247+755310913+755507279+755867723+756326411
1608+756359479+756168404+756721006+758771180+762023778+765292430+767727700
1598+769539903+771157905+772404700+773005942+773257682+773581510+773937987
1588+774169345+774586366+775836528+778134835+780671174+782147704+782293324
1578+782337456+783521120+785229970+785952061+785689619+785139844+784477877
1568+783602288+782644630+781851111+781271273+780664861+779830337+779384336
1558+780483647+782442072+783858117+784746091+785574842+786494141+787459435
1548+788314521+788792268+788832551+788660656+788467718+788803631+791035321
1538+795307385+799968753+803931357+806681077+807827585+807995692+808629641
1528+810491748+812963272+814751666+815464559+816135665+818337112+822654449
1518+828229825+833892681+838839218+842692938+845452518+847617229+850279408
1508+854467719+859827850+864495290+868147714+871978406+876011176+878930867
1498+880045449+881431071+885752015+892006494+896798632+898464974+898803112
1488+900601727+903735159+906197184+907541802+908958748+911339005+914732113
1478+918914953+923408574+927614621+931257305+934403664+937067406+939100205
1468+940745924+943019580+946494217+949077933+947949823+944074699+940997724
1458+941285959+944495088+947492398+948371534+947646797+946149164+944447349
1448+942824297+941151822+939817246+939741910+940776166+941453104+941188859
1438+941559043+943929139+946851655+948225673+948141199+947546811+947071830
1428+947063472+947495284+948178536+948970852+949174192+947528894+943868293
1418+940333291+939100325+939763495+940720611+941506735+943097561+945944381
1408+948308223+947762717+944440916+941559043+941821004+944673656+947707162
1398+949233174+948654118+945739959+942030537+940928100+943698743+947510857
1388+948513187+946371623+944820600+947540979+955254250+965351626+973460996
1378+977191882+977864070+977869000+977922992+977600666+977127970+977056242
1368+977143722+977063156+977436046+979079240+981683820+984017179+985363600
1358+986054427+987147605+989921915+994751751+1000279749+1004392364+1006057924
1348+1005990344+1005922945+1007103604+1009175062+1011293478+1014344540
1340+1019944867+1026541692+1029832890+1028926819+1027650142+1028524708
1331+1030085893+1030621239+1030667294+1031075778+1031843443+1033383103
1322+1036825814+1042126242+1047279606+1050945618+1053946296+1057163782
1314+1060068020+1061125003+1060022446+1058969311+1060201015+1063064249
1305+1065142020+1065995062+1067360964+1069772785+1071849474+1072404060
1297+1071655875+1071156603+1072308342+1073741823+1071517348+1063510971
1288+1052814638+1045256066+1043990693+1046640366+1047102480+1042262844
1280+1035821860+1032108591+1029450501+1023353547+1014269384+1007358169
1271+1005733494+1007722763+1009803600+1010037123+1008098539+1003902772
1263+997968395+992588904+990575345+991799053+992493788+989622256+984241503
1253+978833392+974159278+969757346+964876645+958498491+950082729+940448970
1243+930934378+922062454+914005753+907135663+901333078+895788666+889871664
1233+883729678+878006577+873249552+869543978+866400866+862960741+858591757
1223+853587200+849055039+845793302+843865420+843456636+844887230+847506360
1213+849962193+851860433+853949689+856589681+859191736+861167838+862563440
1203+863816729+865476577+867898800+871017682+874673894+878934534+883744770
1193+888501975+892480272+895612682+898461426+901538883+904781079+907482279
1183+909003841+909798984+911168673+913689319+916691260+919687669+923411159
1173+928756320+935131107+941131260+947092753+954670565+963524392+970927723
1163+975222695+977322111+978215436+978334662+979008173+981331913+984716003
1153+988109051+990697277+991987061+992430537+992246737+990881016+988809498
1143+988414542+991261242+994921181+995240982+992078029+989842371+992087047
1133+998380186+1006201621+1012853099+1016591741+1018046386+1019428280
1124+1022064124+1024782579+1025949710+1025545435+1024845950+1024891885
1115+1025995284+1028672013+1033010814+1036783607+1037025787+1034613605
1107+1033472688+1035608059+1040636605+1047369792+1053400970+1054379671
1098+1047647927+1037180186+1030479466+1030812434+1035349525+1040032598
1090+1043397868+1045282521+1044140883+1038301141+1029605982+1022414047
1081+1019936931+1022923660+1029554395+1035716763+1036610569+1030657433
1073+1021272168+1012681865+1006754463+1003766711+1002854447+1001548670
1064+997809547+993038753+990532476+992047305+996461503+999942513+998733896
1054+993323020+987924229+985902914+987535526+991153379+994710566+996112241
1044+993765053+988736086+985280569+987378302+994624047+1002063093+1004743188
1034+1002163741+997037673+991723597+987794902+986157901+986245442+986835380
1024+987666657+989452165+992366925+995501740+997622681+997207824+993428117
1014+988686544+986332742+985217739+981328967+974499340+968525642+965213701
1004+962686622+959055842+954362488+948632233+941480341+934052419+928080283
994+923482346+919562971+916736834+915014336+912762805+908661194+903660304
984+899707260+897315399+895072346+891388598+886408692+881892283+879265217
974+877957997+876181027+873272399+870004469+866721148+862820531+858276766
964+854385589+852505446+852493301+852929321+852757065+851988558+851214158
954+850872112+851084410+851873661+853217797+855335912+858929234+864397649
944+870758246+875981956+878721695+879922555+882453062+888513399+897661534
934+907198132+914302586+918723938+922974177+929068124+936020283+941442282
924+944664457+946331581+945923578+942629133+937887680+934620352+935107357
914+939845865+946484537+950001922+946512735+937657946+929399228+926626360
904+929910223+936117865+941066746+942940577+943488849+944488474+945127053
894+944716585+944492803+945670155+947648481+948683158+947819474+945246339
884+942904382+944161579+950392428+958507690+962914552+961198428+957407658
874+957709602+963223471+969068323+970307362+967179281+963514953+962146225
864+963220104+965339000+967266221+968932743+970805792+973159413+975866805
854+978071739+979036071+979816964+982369837+986530009+989473088+988622692
844+983959881+977592670+972666695+971848285+975380941+980806608+985241368
834+988018384+990768644+995112376+1000496437+1004561974+1006084018+1006419150
824+1007198540+1008312761+1008850271+1009305652+1011508722+1015617729
815+1019224579+1019761849+1016740849+1012774336+1013284310+1021704702
807+1033322378+1037851533+1032145267+1024119049+1021834209+1026223636
798+1032186872+1034863481+1032435907+1025065043+1015019975+1006221402
790+1001667415+1000568947+1000442626+1000058252+998115339+993227122+986490568
780+980627197+976732593+975579471+979498185+987572743+991257755+983251257
770+969712133+962478893+965225666+972722671+979921039+987090788+994084072
760+997656170+998293847+1000918749+1005203018+1003840243+994418543+984415983
750+981294636+985167656+990533619+992851707+993201028+994833159+998321985
740+1002394016+1006153942+1008773312+1008896567+1005977899+1001439124+997507724
730+996234955+998559115+1002253686+1004400480+1005563583+1008361762+1013780214
720+1020591683+1026600374+1029767836+1029927887+1027987078+1022399617
711+1011839165+999859662+992827837+995224027+1006893710+1022027929+1030889032
701+1028501741+1020178750+1013521440+1011098796+1010816452+1007525495+996611452
691+982691742+977496050+984708006+996568103+1004448700+1007349812+1006964657
681+1001107779+987584287+970852448+958822440+956837140+964994068+977269262
671+985149678+983184519+971565581+959752321+957797082+963958308+972976094
661+983012805+991859778+991805546+980948561+967964924+961516725+962472640
651+964732046+965999103+969701851+973825589+971837523+964700421+958634071
641+955473523+953490808+954462295+962062533+978349693+997565683+1003618686
631+988747029+961661985+932804902+908682718+894130802+892429227+902268911
621+917241817+928195541+928990864+923367810+921673450+930498779+945972339
611+957471630+957007351+948300828+944376643+953321498+968902921+974080696
601+961431409+944746286
##END=
