##TITLE=<SNM>
##JCAMP-DX=4.24
##DATA TYPE=INFRARED SPECTRUM
##DATE=29/4/2025
##SAMPLING PROCEDURE=Instrument type and / or accessory
##ORIGIN=Admin
##XUNITS=1/CM
##YUNITS=ABSORBANCE
##RESOLUTION=4
##FIRSTX=4497.3318
##LASTX=599.83466
##DELTAX=-1.4281778
##MAXY=2.0865874
##MINY=0.52992433
##XFACTOR=1
##YFACTOR=1.943286e-09
##NPOINTS=2730
##FIRSTY=0.54337978
##XYDATA=(X++(Y..Y))
4497+279619052+279260710+279855687+280550349+280511948+279595772+277974783
4487+275894080+274198404+274303149+276755107+280084777+281988931+281704908
4477+280423428+279455447+278835012+277916199+276771701+276396520+277324903
4467+278469401+278254267+277000913+276810072+278731371+281335769+282319116
4457+280855506+278339965+276952605+277573040+279265035+280477625+280486796
4447+279772014+279191545+279024842+278973681+278828203+278700331+278826209
4437+279633039+281393003+283293507+283880081+282859068+281365214+280310892
4427+279552341+278685087+277898992+277884791+278955094+280266632+280440696
4417+279266323+277991008+277541908+277412349+276811544+276036429+275971865
4407+276835345+277989199+278611842+278336376+277624232+277491728+278401432
4397+279572707+279790816+278717231+277036493+275592236+274823011+274845953
4387+275553804+276492370+277068177+277134398+277074864+277248713+277675945
4377+278156423+278268499+277473355+275780287+274126754+273769026+275326493
4367+278294539+281285344+282827476+282239645+279975217+277286961+275523285
4357+275233403+275896473+276691186+277241996+277594878+277890435+278002909
4347+277462835+276254232+275370446+275645115+276438264+276510221+275696951
4337+274722866+274130987+274215550+275107985+276387379+277391706+278023735
4327+278466150+278343001+277113142+275098906+273345935+272694981+273384122
4317+275033329+276583313+276864668+275909416+275065566+275181629+275618522
4307+275666309+275783783+276616193+277822772+278591046+278676223+278505257
4297+278564546+278768362+278466211+277457743+276691677+277173843+278581109
4287+279728828+280023402+279721865+279035853+277792867+276102896+274768414
4277+274572021+275347810+276223130+276775719+277347324+278075633+278449679
4267+278190224+277824306+277935860+278420878+278803849+278823572+278580373
4257+278409437+278484890+278468450+277946963+277158016+276771118+277061491
4247+277705819+278244360+278514734+278625890+278506269+277764127+276401887
4237+275300882+275380476+276526109+277753852+278277516+278245311+278449679
4227+279325152+280427967+281021748+280847439+280174677+279457042+278921324
4217+278333064+277517462+276894297+276901014+277274876+277569727+277771887
4207+278026097+278444219+279210040+280297795+281246084+281656262+281579060
4197+281064628+279928472+278339781+277133049+277112100+278112439+278993004
4187+278779158+277819827+277382137+277959631+278672634+278629877+278145872
4177+278071615+278543811+279089223+279560745+280279054+281306508+282023591
4167+281715827+280441524+278959326+277918684+277456026+277416459+277665823
4157+278195898+279027510+280043953+281015737+281796157+282163885+281655863
4147+280163206+278427902+277332540+276884666+276409433+275661463+275214325
4137+275496539+276002261+276070997+275966252+276409647+277453756+278470382
4127+278938071+278782440+278149092+277165868+276022167+275250120+275528929
4117+276904818+278577735+279723859+280210288+280334233+280214306+279698248
4107+278802653+277911905+277412011+277424341+277981899+279050944+280198387
4097+280688833+280172223+279010518+277878503+277282606+277329473+277748177
4087+278252611+278853845+279647516+280421005+280690643+280147103+279025885
4077+278044715+277850868+278421092+279150597+279554457+279568259+279250374
4067+278784986+278684934+279267581+280008097+280084501+279450785+278814554
4057+278756093+279268777+279996503+280630004+280957368+280746252+279985706
4047+279263317+279359076+280254823+281099165+281420179+281676904+282250288
4037+282639916+282174038+281016013+279949360+279490506+279574884+279826488
4027+279878446+279660030+279565039+280123363+281343407+282565843+283081502
4017+282799349+282196397+281673132+281255500+280942093+280928812+281295527
4007+281743708+281898571+281738555+281618842+281938967+282705278+283458585
3997+283881952+284285351+285042399+285811073+285885422+285109265+284004885
3987+283193026+282900046+282832506+282616206+282491555+283044972+284146682
3977+285013782+285397889+285648051+285657835+285008844+283994303+283392578
3967+283477847+283974428+284590231+285113681+285368321+285436352+285676545
3957+286249101+286819448+286975232+286860856+287034000+287589257+287931496
3947+287726115+287449760+287554137+287742188+287540120+287128623+286983360
3937+287078842+287140555+287305601+287834664+288389123+288342839+287773350
3927+287376116+287433565+287474482+287140555+286975109+287770467+289361306
3917+290618034+290668857+289612112+288036946+286541130+285617256+285563825
3907+286482577+288225058+290224173+291840378+292929544+293396526+292806671
3897+291311591+290026246+289965270+291233254+292756952+292862341+291397227
3887+290090443+290204666+291096426+291747165+292542339+293703554+294090605
3878+293265648+292467254+292734469+293895439+295400150+296773922+297243420
3868+296604244+295890903+296019021+296548452+296331508+295164680+293879060
3858+293508234+295274241+300184689+305865375+306530837+301871286+296385153
3848+293228075+293143113+295095576+297442114+299450032+301577693+303906073
3838+305080078+304073696+301977412+300441722+299824660+299314277+298330378
3828+297328596+297155176+298428406+301575976+305897305+308347208+306881849
3818+303715047+301767921+301342960+301030748+300274804+299671668+299962470
3808+301253735+302723326+303830865+305349992+307726282+309574920+309746990
3798+309097631+308541055+307910959+307006408+306317451+306462224+307603471
3788+309619425+312380220+315428412+318022566+320128603+322479036+325234433
3778+327689642+329659833+331894602+335147039+339592744+344629163+349237553
3768+353250751+357340230+361392657+364652334+367462817+371014553+375506972
3758+380018100+384343448+389459860+396380649+405291536+414690476+422080150
3748+427020903+430969934+434808792+437819503+439558856+441362160+444881476
3738+450754415+457539296+461907370+462204613+460883106+461161731+463584029
3728+466641362+468759147+469577938+469922846+470276587+470195766+469811752
3718+470168990+471529143+473089555+474749897+477308287+480163490+481257441
3708+480034729+478172718+477977030+480758314+485607511+489690763+491173176
3698+490769593+489901787+489631597+491262647+495944588+502895037+508851189
3688+511009768+509699395+506780762+504333926+504401558+507461897+511856686
3678+515899605+519036072+520803030+521321327+521795149+522184623+520644332
3668+517012941+513587451+511726391+510876866+510313451+510339277+511530887
3658+513629380+515782008+517872127+520846032+525407831+530793298+534547991
3648+534903788+533284731+531858662+531002175+529755293+527668487+525997962
3638+526502886+529433727+533274916+536356479+538311641+540042283+542155651
3628+543423513+542981467+541991985+541946468+543519639+546423428+549473276
3618+551415617+552274926+552953025+553760314+554531963+555717133+558092502
3608+561049844+562343838+560819312+558262487+557457896+559384656+562747728
3598+565685808+567008572+566637992+566016023+566909133+569665573+573154891
3588+575713128+576385337+575891517+575515109+575616388+576336937+578391905
3578+581466721+583362993+582524663+580192050+578882168+579865209+583333793
3568+588924027+594300047+595902357+593092425+588941080+586791703+587490720
3558+589579060+591311236+591943878+591448524+590138151+589182408+590429045
3548+594528861+599432224+601910038+601083916+598857613+597171568+596661921
3538+597653733+600368459+603393831+604001691+601514368+598416057+597035629
3528+597376212+598356431+598893254+597978612+595822119+594081600+593614648
3518+593758439+594020317+594134724+593308909+591679607+591051320+592986668
3508+597383635+603124039+608532756+611260977+609708049+604898420+599703365
3498+596530583+596183375+597872241+599812496+600551203+600211663+600300121
3488+602169769+605486649+608265970+608748319+607166989+605566458+605719328
3478+607282562+608320996+607563395+605564740+603475542+601651840+599771825
3468+598099890+597802922+599101395+600228594+599425967+596656952+592842632
3458+589019049+586215006+584843534+584417192+584303828+584395170+585299322
3448+587721006+591023163+593219714+592991023+590667674+587161302+583380476
3438+580741572+580569072+582494911+584470746+584706185+583184542+581091786
3428+579494199+578897811+579071783+579020929+578031202+576734263+576327306
3418+577004239+577707918+577242254+575593138+574115480+574093641+575175078
3408+575583139+574248290+572273437+571884146+574249701+578188120+580877326
3398+580477914+577936179+575527807+574573414+575258199+577221213+579292929
3388+579648541+577584861+574812656+573693370+574486612+575313838+574872099
3378+574096831+574284667+574894060+574599056+573483941+572700085+572787562
3368+573643559+575141523+577036506+579064238+580962411+581919748+581065346
3358+579008108+577397884+576715430+576112908+575485173+576030829+578312526
3348+580908121+581625725+579729025+576742238+575377207+577450640+582058324
3338+585827004+585968403+583034617+579746998+578133646+578551646+580135307
3328+581650692+582236161+581599470+580259038+579255447+579056263+579217046
3318+579544072+580709182+583095287+586075019+588347821+588894520+587853019
3308+586125935+584535709+583679222+583737744+584283585+584896474+585772285
3298+587207985+588890778+590537072+592378931+594120124+594851899+594637440
3288+594563704+595076296+595808930+596797369+598167061+598930306+597889540
3278+595490615+593368658+592530390+593088622+594912507+597241868+598667630
3268+598783509+598863993+599991192+601559947+602513910+603138210+604362026
3258+605737547+605350281+601994938+596775837+592259617+590525969+591774875
3248+594308758+596202330+596969991+597189910+597219723+597003792+596847609
3238+597275792+597791328+597041641+594653389+592118586+591393437+592761473
3228+594402982+594425802+592993968+591895478+592467942+594469848+596567389
3218+597388972+596366916+594071294+591847322+591180695+592795458+595432829
3208+596305511+594149570+591110456+589943751+590374694+589880567+587386005
3198+584295670+582162916+581431939+582195919+584193838+585960244+585484642
3188+582259901+578037459+575359724+575450022+577191645+578062426+576611820
3178+574081372+572865960+573628652+574909089+575344265+575005093+574250376
3168+572884915+571201938+570108969+569759184+569393327+568546594+567620787
3158+567083412+566719150+566066632+565273943+564660930+563909955+562444320
3148+560399411+558672082+557805043+557428206+556805624+555530646+553722711
3138+551969371+551162020+551743072+552941308+553462304+553136812+553010627
3128+553719643+554665877+554720535+553404886+551591368+550687707+550952653
3118+551402735+551322681+550785612+549972434+549152017+548835910+549008226
3108+548892654+548041994+546753889+545345549+543938988+542775166+542064801
3098+541709986+541583740+541711274+541920212+541688945+540667626+539349462
3088+538840489+539766725+541575765+542993981+543157831+542280548+541147644
3078+540096634+538849936+537332158+536146743+535839470+536067057+535989457
3068+535240874+534182748+533515201+533796525+534895261+535944185+536285933
3058+536172140+536029269+535630348+534593018+533063953+531421708+529827741
3048+528474795+527952449+528879237+531028185+533131984+533845600+532673988
3038+529940307+526596190+524131933+523607502+524519015+525354768+525390164
3028+525181716+525211345+524996273+524002252+522708687+521867229+521261700
3018+520338164+519444686+519151460+518937001+517898076+516316439+515277575
3008+515177216+515570616+515967575+516022784+515458725+514394066+513339621
2998+512561531+511865244+511009094+509855271+508358749+506937466+506421561
2988+507068405+508077915+508499871+508144964+507269951+506017824+504667915
2978+503785049+503553352+503477623+503128789+502683553+502361834+501932762
2968+501265092+500803507+500959383+501395141+501282575+500171693+498510615
2958+497249686+496895822+497073352+497096294+496677436+495915511+495074452
2948+494503675+494403868+494757057+495527846+496489539+496990414+496586586
2938+495665963+494754971+493654978+491940623+489923841+488562583+488538260
2928+489543384+490380487+489978897+488484277+487056859+486530649+486528348
2918+485972969+484462031+482940726+482658542+483589992+484438965+484250577
2908+483244993+481961826+480710312+479994610+480245170+480905080+480785858
2898+479538669+478085303+477558970+478296634+479688594+480653661+480485946
2888+479450272+478335219+477443275+476411036+475063120+473861695+473251903
2878+473151237+473328706+473654627+473803724+473463019+472931349+472736642
2868+472706338+472152186+470886072+469475125+468595757+468493895+468924776
2858+469388017+469512699+469300755+468946369+468491656+467823679+466957254
2848+466092178+465456315+465239218+465437819+465668750+465449321+464693285
2838+463648962+462527099+461499002+460768638+460343891+459937485+459217366
2828+458089860+456820281+455853343+455355106+455050256+454613915+454024090
2818+453509811+453339213+453577413+453904040+453852909+453345838+452748990
2808+452332678+451909526+451144441+450123060+449309820+448864431+448440267
2798+447863263+447469066+447480200+447568474+447328863+446823357+446453114
2788+446497680+446807008+446811732+445919512+444077990+441947874+440434207
2778+440003816+440381543+440873247+440998359+440748350+440310199+439811103
2768+439372431+439084665+438759327+438029791+436909554+435942800+435562252
2758+435568448+435516428+435355614+435305496+435260837+434779469+433707234
2748+432407075+431233530+430222578+429496416+429414092+429936622+430350419
2738+430105840+429513225+429145988+428974071+428587786+428024647+427772154
2728+427899137+427807335+427104239+426159814+425476992+425044056+424642895
2718+424355375+424426565+424767639+424773558+423858242+422227621+420773611
2708+420128240+420182713+420482778+420680889+420651229+420455879+420192528
2698+419825077+419193078+418173415+416918282+415959412+415792402+416267942
2688+416705940+416695910+416500805+416591655+416986620+417190129+416778755
2678+415864481+414844726+413951126+413218891+412629557+412125247+411650351
2668+411221555+410899406+410787606+411029732+411616980+412247046+412512543
2658+412181193+411324276+410272192+409367151+408731595+408324208+408107724
2648+408046564+408003255+407774288+407331935+406972949+407031471+407437202
2638+407742358+407604947+407115605+406632151+406379751+406281140+406175904
2628+406031408+405795509+405257213+404341774+403391093+402881292+402918620
2618+403136514+403084924+402686524+402262452+402085842+402056029+401950762
2608+401824148+401890982+402128783+402280732+402183410+401874665+401480988
2598+401161354+400991155+400803104+400387222+399870243+399598519+399677408
2588+399903063+399996398+399667348+398760036+397639033+397085770+397495702
2578+398435372+399159418+399275512+398816780+398079668+397510333+397332803
2568+397262288+396965964+396639153+396659152+396913208+396954186+396605874
2558+396069481+395717058+395921764+396685591+397443192+397640505+397338078
2548+396896707+396434172+395964306+395711169+395897840+396392550+396775552
2538+396721784+396243759+395603510+395127694+395104598+395613417+396316483
2528+396650533+396400923+395896827+395542197+395387364+395242530+395016722
2518+394822415+394780302+394806251+394713099+394566333+394735705+395399970
2508+396174134+396524041+396454783+396453526+396782177+397152942+397132943
2498+396629430+395914464+395331694+395068681+395109904+395280472+395371752
2488+395339301+395339178+395453248+395524468+395468921+395551552+396039146
2478+396711417+397049914+396899989+396640810+396596918+396599893+396391568
2468+396158798+396234987+396506742+396595384+396443680+396268573+396101625
2458+395787757+395352060+395076073+395203945+395674945+396135150+396216523
2448+395866278+395396474+395165451+395254492+395510850+395800302+396062549
2438+396204867+396149289+395963601+395789751+395693502+395702366+395893730
2428+396309520+396849963+397345900+397671116+397759298+397625875+397383810
2418+397162419+397044853+397109326+397412335+397868736+398258640+398434422
2408+398476872+398603639+398915421+399272720+399504325+399699400+400131324
2398+400877423+401688148+402286161+402635915+402816083+402778878+402419125
2388+401798230+401075902+400222451+398996334+397221064+394869650+391832929
2378+387885093+383098897+378119498+373751394+370316242+367515083+364797014
2368+361879423+359135345+357306613+356557202+356228152+355919069+356308114
2358+358494819+362913103+369133925+376338584+383472115+389104707+391896267
2348+391330827+388034344+383768316+380659822+379671935+380178884+381043039
2338+381590659+381781439+381922132+382410708+383493616+385041085+386664283
2328+388012352+388831849+389046062+389024316+389505837+391036313+393489927
2318+396084663+397963145+398946339+399597139+400506689+401788261+403263926
2308+404787746+406251480+407451955+408129931+408238663+408128551+408274611
2298+408824930+409600811+410458771+411388626+412328143+413155829+413825830
2288+414326184+414600331+414660510+414643518+414629194+414550213+414356028
2278+414137888+414050074+414150893+414311247+414320050+414116908+413838743
2268+413638516+413574871+413618211+413644865+413532114+413315263+413138837
2258+413097613+413214904+413459667+413739611+413994680+414256068+414541349
2248+414813011+415062805+415329039+415684375+416226351+416907762+417385480
2238+417291286+416667170+415911348+415313151+414829421+414292721+413669372
2228+413085038+412689123+412518432+412457395+412318818+411989891+411542600
2218+411229284+411313479+411808926+412388137+412646642+412521929+412410589
2208+412757552+413496596+414072710+414162794+414109056+414365015+414804853
2198+414950269+414713419+414551440+414917082+415807125+416881016+417848168
2188+418616136+419152100+419411463+419463851+419554917+419905928+420465080
2178+420950221+421160049+421171275+421215044+421462383+421914429+422406869
2168+422773769+423030095+423272436+423435090+423341294+422982523+422590564
2158+422429536+422583878+422926393+423269614+423571949+423995438+424690284
2148+425486316+425971518+426013570+425947594+426055775+426210270+426252996
2138+426340381+426670658+427150369+427480953+427474573+427295111+427347622
2128+427817763+428477305+429079644+429688669+430448754+431288249+432000026
2118+432423239+432489522+432289294+432132775+432361098+433049165+434013955
2108+435044507+435943537+436495450+436669238+436712302+436847351+437082177
2098+437402117+437862904+438435583+438961701+439258116+439227628+438971363
2088+438728317+438604371+438519287+438449477+438487234+438680346+439028382
2078+439544839+440169691+440748350+441174907+441435252+441514416+441388416
2068+441113103+440891773+441034000+441711485+442700537+443558037+444110840
2058+444532090+444922699+445166941+445283035+445553655+446179611+447077751
2048+448049719+448879062+449350246+449495141+449673131+450131342+450740796
2038+451372948+452127021+452979031+453662160+454105770+454635017+455588121
2028+456954624+458441822+459807098+461088180+462464774+463979423+465565538
2018+467226125+468964435+470666123+472192673+473453142+474438882+475405114
2008+476806675+478756010+480781257+482364305+483493130+484518651+485666186
1998+486829855+487800289+488618743+489579485+490840721+492219217+493501433
1988+494732366+496022863+497326642+498597479+499947020+501451302+502991961
1978+504498758+506196182+508346818+510796965+513057345+514918160+516691313
1968+518669786+520672980+522410554+523972745+525662839+527663150+530029133
1958+532705948+535461099+538025225+540306370+542358394+544263070+546122718
1948+548056778+550217013+552822730+555965208+559292824+562181951+564351449
1938+566093808+567923214+570131114+572612854+575079626+577391689+579581430
1928+581755591+584180097+587066954+590056992+592542291+594696698+597227330
1918+599990026+602004692+603092263+604151309+605680067+607234774+608296151
1908+608900085+609399243+610146844+611304593+612575338+613443419+614001529
1898+614966534+616493452+617745425+618214524+618613384+619721751+621159290
1888+621989461+622003509+621685010+621449142+621462392+621752366+622169629
1878+622458069+622526898+622538553+622694735+623098196+623747585+624285819
1868+623935605+622474571+620839810+619953632+619674209+619270196+618373283
1858+617097508+615664508+614316592+613267239+612457434+611535186+610337870
1848+609368080+609336426+609955389+609683389+607559837+604476495+601740115
1838+599831881+598479426+597319714+596685661+597370446+599237640+600629417
1828+600135105+598130500+595545027+592749143+590026075+587836578+586332358
1818+585171051+584057961+583341461+583650267+584890463+586050359+586271136
1808+585709960+584994625+584501173+584440196+584999594+586064713+587093578
1798+587644448+587898843+588423765+589543910+590893911+591628446+591445027
1788+590975560+591099598+592289246+594362679+596747802+598929140+600656899
1778+602075913+603767908+606466500+610394368+614416338+616535718+616152685
1768+614345853+612469028+611748050+612934446+615494339+617826952+619289765
1758+620720802+622430771+623814021+624958090+626724067+629185318+631290896
1748+632434351+633061595+633577071+634082117+634959032+636683601+638990143
1738+641267668+643847068+647326081+650485368+651172790+650009091+648926919
1728+648599034+649095124+650601553+652971034+655722627+658949086+663203243
1718+667841416+670278129+669218409+666708389+664936278+664515457+665417523
1708+667754430+671160995+674289364+676621363+679723293+684770508+689669639
1698+691713136+691592840+690629798+689261884+688439136+689030432+690720403
1688+692726297+695389064+699609359+703950442+705265845+703943326+702701229
1678+703325774+706419852+711350881+716295345+720083103+723123137+725590952
1668+726605707+726155686+725610582+726075264+727531146+729050702+729946143
1658+730787233+733211003+738713147+746032060+749259010+747097547+745144349
1648+745568912+746269830+744578694+741355486+739031401+738578619+740015055
1638+743060916+746396874+747134477+744197378+740532002+738934784+739875865
1628+741973652+743578906+744528453+745264583+745310959+744494714+744167197
1618+745558729+747734852+748134203+746341848+744529557+744506676+746260015
1608+748360747+749752155+750726424+751976925+753633218+755403611+757215841
1598+759483797+762568550+766209818+769828205+773105886+775994706+778758998
1588+782125444+786490021+791173465+795237640+798517529+801335804+804069975
1578+807123137+810041218+810985244+809534944+807673394+806585209+805447950
1568+803212568+800364603+797812746+795856848+794807556+795201201+796311102
1558+794976804+790416171+785886271+783435326+783093516+783815108+784476582
1548+784782260+785195290+786110730+787615073+790011116+793203958+794835713
1538+793131510+790746632+790530210+792615851+795098573+796616350+797771400
1528+799452169+801708347+804285600+807392499+811200684+814855203+817423990
1518+819713907+823098879+827243538+830542873+832568458+834771573+838946351
1508+845402643+851475962+853390146+852145472+851261503+852394407+855799071
1498+860675565+864799428+866291502+866544792+869115236+876280727+886050647
1488+892371000+892392041+890101142+890415409+894372354+899467540+903325230
1478+906696155+911930899+919578862+927503611+933352840+937480812+941709512
1468+946758445+952873663+960567389+968923203+975011797+977242210+976788876
1458+975282754+973378446+971690439+970700650+969769077+968113705+966174983
1448+965225743+965712203+966480416+965776491+963063729+959878432+958365685
1438+958614926+958348754+956507140+955314241+956561062+959397126+961575396
1428+961670173+960567021+960321460+961717040+963619385+965226970+967608903
1418+971333170+974657657+976528961+977495439+977341894+975124609+971366971
1408+968119594+966762660+966833881+966861915+965938133+964218349+962356921
1398+961485159+963096977+967520568+972693600+975925764+977101732+977981530
1388+979014811+978696680+976744524+976030969+979052477+984160177+987341241
1378+987558584+988040442+991673674+997360341+1001961584+1004450195+1005584694
1368+1005835285+1005990179+1007489431+1010917221+1015244808+1019151451
1360+1022087138+1024215536+1026567227+1030117521+1033557826+1034009073
1351+1030982106+1027342310+1026005559+1027475059+1030338483+1032456820
1342+1032116605+1030257386+1030585086+1035364902+1042623882+1049133236
1334+1053529528+1055150487+1053666817+1051468609+1052111251+1054785735
1325+1054743652+1050121368+1044240301+1040720250+1040299674+1042715899
1317+1048210988+1055255754+1059708237+1059524818+1057487946+1056438838
1308+1055634615+1054039176+1053889619+1058005200+1065642919+1072334710
1300+1073741823+1069958727+1064901145+1061983615+1061640456+1061873073
1291+1059995696+1055066323+1049378736+1045759797+1043739365+1040846005
1283+1036796062+1033298094+1030561653+1026687645+1020756338+1014800124
1274+1011609245+1011829103+1013424665+1013674888+1011497169+1007748304
1265+1003817000+1000273392+997029328+994006471+990887364+986989739+982234767
1255+977167493+971575725+964651378+956788894+949674625+944252106+939665156
1245+934427467+927983874+920878132+913703501+906604690+899590045+892812433
1235+886644950+881627486+877873406+874656211+871242346+867807133+864768019
1225+861991275+859377277+857246118+855664359+854282029+853074530+852479798
1215+852733395+853623438+854962090+856904677+859632653+862924259+866301931
1205+869525997+872548609+875189046+877461051+879858443+882802780+886348596
1195+890624102+895748058+900936243+904300848+904475004+902582598+901647528
1185+903669923+908041003+912967370+917583336+922286595+927378162+932180123
1175+936055971+939851274+945578919+954197163+964168599+973028110+979916877
1165+985779664+991732074+997643138+1001458991+1000988236+997170604+993527618
1155+992614510+994396620+997790180+1002210580+1007156455+1011545263+1014661180
1145+1017560919+1021987638+1027211463+1029514262+1025268693+1014982194
1137+1004522888+1000291796+1004031153+1012106072+1019641714+1025409232
1128+1030488163+1033713149+1033264232+1030986891+1030445222+1032288737
1120+1033990547+1033613403+1031859205+1030134329+1028654830+1027356788
1111+1027685715+1031061117+1035881543+1038694787+1038854037+1039524651
1103+1042833066+1046709282+1048145840+1048386187+1051277951+1056414791
1094+1058740226+1055188643+1048749344+1044035535+1042666701+1043467487
1085+1043420866+1040403468+1037410240+1038739446+1042514690+1043201744
1077+1039738375+1035716037+1032714588+1029723446+1026703472+1023193849
1068+1017526076+1010355063+1004613555+1001810616+1001793563+1004384863
1060+1008551851+1012198211+1014270417+1015188556+1014809817+1012195205
1051+1007721312+1002992412+998255537+992326499+985637100+981278657+981450911
1041+984272867+986079821+986022464+986273546+988254165+990846141+992088177
1031+991405784+990279996+991305670+995340523+999000132+996944182+988374461
1021+978540253+972201988+969571795+969528792+972976151+980145507+987568153
1011+991509210+991963219+990483290+986572292+979319201+970198425+961263093
1001+952719321+944168433+936552675+930936186+926281389+920718147+914283387
991+908335517+903314495+899110394+896463148+896038155+896779131+896431187
981+893664197+889489970+886218362+884577712+882887251+880057505+877390260
971+875804083+873793405+869867071+864861447+860281306+856465084+853350579
961+851245369+850127371+849239844+847924870+846463590+846082827+848123625
951+852574452+857525664+860988359+863394769+867231172+873973634+882116584
941+888466320+891551687+893143078+895978222+901278114+908797316+917929624
931+927702059+936639906+944109849+950766919+956424693+958829937+956760001
921+953024631+951076462+950221508+947662658+944024090+942472143+943342004
911+943864840+942629368+940221118+936564453+932233922+930199871+932474698
901+936819829+939627552+940816770+942697583+945661427+948127463+949744128
891+951974786+955510236+958437028+958364826+956531187+956825271+960390165
881+963671956+962588680+957897690+954517564+955841004+960563769+964761184
871+966118731+965807777+966476060+968951605+971413960+972509261+973713263
861+976322722+978702508+979216879+979666471+983242284+990338641+998007768
851+1002959225+1004312968+1002618703+998281424+993287640+991822924+996425824
841+1003520279+1005532490+999805827+991955551+988375075+990992631+998980748
831+1009324910+1015692191+1013506191+1006906907+1004268187+1009260990
823+1019970703+1032990392+1045070534+1052127323+1051871886+1046674316
814+1040443219+1036439775+1037115911+1043429331+1052865294+1058098811
805+1052810943+1039793584+1027696266+1022907310+1025600810+1030922848
797+1034202308+1034451120+1032025816+1026554344+1019805993+1015967504
788+1015624406+1015044335+1012126438+1007817316+1002522699+996435148+991267085
778+987689615+983771010+978029501+971108405+965042201+962307110+964439863
768+970681327+977641438+981576667+981669481+980198202+979655490+982339482
758+991187153+1004884389+1015534843+1017117462+1013057581+1009734383+1007703952
748+1003936867+998524040+995296171+996550721+1000338110+1003755472+1005609355
738+1006006129+1006385604+1009666904+1016728908+1022422200+1019411796
730+1007300184+993803483+986584867+987025257+991456148+996499744+1001509846
720+1005553347+1006299109+1004099552+1002652074+1005081243+1010162749
711+1012936427+1009883817+1002800711+994649419+986066448+978426950+974974929
701+977649781+985084266+993644847+999314399+999618666+995328254+989389217
691+984304581+980930529+978333707+975255272+972726296+974512884+982765395
681+992980919+995187592+983183148+962942881+947106512+943184288+948619382
671+952676257+945274836+931096907+928541738+942440612+961315481+972796413
661+968883574+954338071+942375894+939164833+941121958+941796928+939768276
651+939745885+943382491+947240856+950006926+951879826+954035460+956092024
641+954580994+948229908+939013067+929800766+925185107+928326052+934141051
631+933459640+926244521+920933955+922233716+927977126+935678336+941605534
621+935630795+916021636+896681901+890390687+897352822+910619667+926066807
611+941307156+950099372+944097089+923920067+898794104+879971562+873305657
601+877314990+883844404
##END=
