##TITLE=<SNM>
##JCAMP-DX=4.24
##DATA TYPE=INFRARED SPECTRUM
##DATE=29/4/2025
##SAMPLING PROCEDURE=Instrument type and / or accessory
##ORIGIN=Admin
##XUNITS=1/CM
##YUNITS=ABSORBANCE
##RESOLUTION=4
##FIRSTX=4497.3318
##LASTX=599.83466
##DELTAX=-1.4281778
##MAXY=2.1555629
##MINY=0.58243084
##XFACTOR=1
##YFACTOR=2.0075244e-09
##NPOINTS=2730
##FIRSTY=0.59347922
##XYDATA=(X++(Y..Y))
4497+295627403+297534491+299395410+299263643+298237743+298161230+298988797
4487+299490776+299048267+298002178+297128917+297059649+297573059+297530245
4477+296148058+294390759+294127136+295636043+297052018+296809208+295631263
4467+295236021+296028345+296986669+297334881+297411008+297789711+298248818
4457+297999001+296710190+295001465+293879783+293797956+294321253+294741702
4447+294992974+295732092+297346668+299169583+299958196+299177184+297777954
4437+297152699+297327547+297143762+296282289+295795808+296071307+295865967
4427+294437076+293160944+293775836+296052840+298138250+298643703+297706281
4417+296384692+295619743+295583283+295742721+295458790+294606907+293754964
4407+293657282+294483483+295595634+296187309+296109371+295888027+295962521
4397+296266642+296639586+297207063+297981839+298490737+298268532+297390877
4387+296273204+295345223+295041874+295594595+296678718+297635083+298004434
4377+297722136+297052404+296392293+295911037+295376012+294626562+294169207
4367+294662012+295646553+295658756+294127314+292262565+291435444+291654293
4357+292256775+293205717+294727243+296176828+296368481+295161409+293885395
4347+293840562+294919727+295875617+295764455+295084480+295182044+296335198
4337+297135122+296299688+294300410+292446172+291405456+291351122+292379249
4327+294070427+295278152+294941401+293153551+291291622+290758260+291549515
4317+292547090+293094674+293373439+293500367+293292533+292679332+291747670
4307+290720790+290123920+290487036+291677303+292895836+293407287+293084193
4297+292376577+291927595+292116843+292795719+293397637+293436859+293027277
4287+292735863+292817483+292891739+292659350+292502851+292864720+293400013
4277+293416669+292945152+292697800+293067804+293725719+294253143+294722047
4267+295345342+295934671+296144376+295944499+295445696+294601889+293514025
4257+292737169+292731885+293086747+292987194+292550950+292862226+294410859
4247+296256636+297160330+296948517+296205182+295228747+293964698+292594001
4237+291647405+291536956+292143209+292933395+293452179+293732102+294114220
4227+294702332+295252024+295592932+295809199+295984611+296248739+296802676
4217+297356674+297173542+296206162+295416065+295433315+295697592+295357100
4207+294398152+293528395+293309041+293618150+293890145+293807487+293574534
4197+293529790+293771561+294151779+294509907+294825014+295056720+295076909
4187+294996329+295162774+295576929+295808278+295586638+295006988+294280904
4177+293710190+293682281+294419588+295740910+297031086+297651027+297553196
4167+297221314+296954485+296638309+296052751+294999624+293633915+292856407
4157+293583026+295499911+297162735+297443549+296619634+295976713+296442737
4147+297676857+298424319+297677095+295585331+293371361+292252054+292333733
4137+292807477+293220978+293874083+294883386+295723868+296022466+296100761
4127+296343719+296603066+296525188+295997200+295150275+294345303+294030196
4117+294207835+294313266+294006236+293763931+294183548+295045110+295663299
4107+295896044+296128521+296425784+296412215+295937046+295273194+294761743
4097+294666674+295128690+295898627+296378783+296101740+295061262+293800420
4087+293167624+293626819+294877418+296254795+297162022+297182241+296387364
4077+295525623+295376784+295922201+296403813+296207825+295545427+295022753
4067+294720384+294357535+294236100+294958622+296197522+296930079+296907069
4057+296710190+296486115+295877843+295084807+294732646+294766108+294653194
4047+294574574+295200957+296324776+296731864+295643525+293746265+292474111
4037+292342047+292394183+291743721+291124672+291929585+294085391+295907000
4027+296134667+295451486+295435126+296316285+296752202+295977337+294941253
4017+294709369+294977238+294948883+294654144+294650938+294991578+295123316
4007+294753192+294292928+294277074+294726649+295308169+295849162+296457315
3997+297260565+298135934+298712763+298765820+298517488+298336642+298282665
3987+298153006+297818719+297239574+296254617+294778518+293358297+293040103
3977+294281676+296318838+297929940+298617991+298806586+299111508+299639853
3967+299911017+299514915+298815226+298575266+298867125+298999515+298639546
3957+298258645+298222749+298305645+298494537+299241494+300454326+301264672
3947+301259922+300982017+300930029+301009956+300982255+300698888+299962976
3937+298883841+298232933+298807714+300445745+301990934+302407494+301778676
3927+300987391+300599246+300339304+299849231+299654045+300593991+302507492
3917+304163308+304529453+303642891+302168989+300686566+299510788+298933988
3907+299455682+301485333+304639991+307537647+308784891+308147908+306435472
3897+304649462+303408543+302964252+303323360+304018269+304284535+304317194
3887+305231784+307093089+308412036+308480977+308129203+307451099+305714613
3878+303786356+303522911+305137190+307237564+308965855+310064972+309590991
3868+307721046+306761831+307975524+309504087+308829664+306293877+304143148
3858+304154995+307510955+314619959+321647936+321426444+314669958+307572444
3848+303819728+303948467+306451416+309260564+311472367+313643345+316113011
3838+317708258+317329940+315853515+314460906+312895557+310582836+308353189
3828+307595692+308434304+310209417+312987628+316623066+319067495+318984955
3818+317731239+315814561+312139545+307541922+304738712+305177777+308243749
3808+311803714+313556173+313669324+314461173+316783603+318527482+318011993
3798+316272123+314378960+312556431+311372250+311469220+312642979+314166375
3788+315721956+317460668+319425059+321608537+324392181+328001729+331543286
3778+333914319+335616512+338159395+342521215+348747338+355812845+361816526
3768+365647120+367972549+369930171+372258955+375481960+379343612+382308606
3758+383156570+383011858+384384871+389166308+397394292+406371489+412804437
3748+416883126+420887886+425690611+429519217+431333254+433442209+438431777
3738+447033625+457060682+463938989+464841555+462071479+460294109+461883983
3728+466047023+470239250+472127663+471298641+468732718+465222040+461319653
3718+458024232+456638303+458167727+462864278+469215963+473689953+473862248
3708+470635976+466723554+464746396+465604782+467680898+468958634+469806242
3698+471328302+473020727+474250186+475983257+479212795+482747849+483867928
3688+481667645+478278579+476153978+476363831+478571181+481402300+483909821
3678+486529603+489292761+490570378+490177660+490299510+491319442+490543953
3668+486895896+482785111+479701799+476850787+473574368+471211559+471864752
3658+475606067+479514986+481196663+482503317+486489075+492766177+496669395
3648+494674779+488890928+482716288+477896847+475026892+473988908+474344127
3638+475860575+478306904+480796879+482689656+485484345+491663586+499734299
3628+502955078+499201649+493598079+490487986+491300084+495182400+498778201
3618+498994824+497294858+497062529+499044764+501362532+502437808+502510669
3608+502111330+501105293+499788751+499323143+500518072+502940173+506061786
3598+510403029+515986054+520547127+521500374+519601303+518219085+519438657
3588+521878514+522413301+520446951+518198361+517487033+518395745+519880335
3578+520835185+520850684+520227300+519501305+519130647+519695244+522070196
3568+526480204+530844131+531845299+528694708+523530144+519022929+516755991
3558+516871250+518735108+521765630+525400415+528678735+530773111+531679388
3548+531575886+530168313+527440161+524419734+522593167+522581885+523156457
3538+522288957+519905513+518351268+519461460+522520603+525290382+526090722
3528+524889440+522737226+520518980+518754289+518087734+518744550+519941201
3518+520680260+520566426+519551244+517984826+517046781+517540239+518222826
3508+517422367+516096681+516627668+518967942+520532757+519958184+518460173
3498+517431274+517216077+517774498+518821092+519568049+519718937+520347250
3488+522127499+523481095+522513240+520092979+518597938+518448475+518085478
3478+516658309+514735604+512909630+511333058+510290680+510252082+511519397
3468+513736811+515663911+516228448+515922397+516169126+517220174+517701697
3458+516602015+514561379+512447169+510118831+507590437+505949199+505878357
3448+506212020+505188763+502821351+500932256+501162299+503421874+506106915
3438+507678796+507740434+506589626+504656469+502730736+501640555+501188070
3428+500240939+498398755+496719186+496250668+496558679+496244166+494859604
3418+493654313+494130728+496388760+498982117+500313088+500136963+499364888
3408+498652610+497959542+497349993+497172919+497352280+497423893+497188239
3398+496768651+496289652+495940312+496065251+496719394+497372440+497575998
3388+497633836+498177976+499308298+500468904+500881544+500091299+498617041
3378+497786683+498312771+499423260+500102344+500615160+501831585+503615932
3368+504961036+505424981+505704251+506848171+509095751+511567971+513332722
3358+514393093+515095810+515311780+514933759+514449267+514345944+514464588
3348+514495466+514706269+515506313+516445308+516347923+514928890+513452256
3338+512780417+512019743+510300716+508536202+507814779+507478147+506459224
3328+505440895+505982512+508017269+509709397+509814146+508927524+508094168
3318+507386581+506364155+505197314+504818580+506077878+508801814+511621711
3308+513046029+512831188+511903000+511084132+510489667+509996684+509595445
3298+509400199+509587488+509996149+509902505+508907988+507917449+508331693
3288+510256239+512294856+513212000+513195848+513291155+514085082+515190523
3278+515856840+515797518+515221639+514293807+513251429+512670027+512791462
3268+512989201+512536835+511729428+511710367+513134388+515207744+516273043
3258+515481194+513450950+511236089+509477988+508484956+508217978+508247847
3248+508380683+508980492+510085102+510884077+510843401+510656884+511161744
3238+511830792+511439588+509864145+508117683+506955533+506446695+506595564
3228+507299588+507768403+507024415+505141376+503210773+501971784+501371736
3218+501364729+501922497+502419281+502320827+502169939+502555977+502899081
3208+502520942+501787821+501173166+500232270+498443588+496398587+495334060
3198+495741712+496854843+497540429+497541528+497574603+498181064+498826716
3188+498478207+496860722+494594140+492395430+490817344+490192535+490041914
3178+489248076+487582165+486194069+486042113+486810833+487545883+487533354
3168+486603978+485159440+483773957+482611688+481502951+480346383+479078504
3158+477705550+476620863+476264902+476401271+476425588+476255906+476081295
3148+475627415+474712291+474035077+474327381+475182293+475588609+475116231
3138+473952894+472408061+470911238+469923164+469559780+469551645+469413732
3128+468613184+467106771+465713360+465251463+465452439+465413396+464917028
3118+464497411+464397383+464308370+464112769+464088719+464245129+464180582
3108+463734688+463195388+462773514+462327917+461751295+461161491+460533594
3098+459570935+458215350+456999965+456545253+456937110+457788102+458654207
3088+459288340+459585869+459416306+458627961+457219824+455377194+453425362
3078+452014048+452020818+453631237+455718933+456809084+456532159+455562731
3068+454491731+453494512+452774425+452545540+452590403+452351987+451574182
3058+450517908+449488535+448553814+447865200+447743706+448144203+448469998
3048+448256582+447737619+447450125+447566304+447837024+447870901+447306897
3038+446105852+444826246+444185998+444286738+444710364+445253643+445912299
3028+446264638+445728752+444509388+443516712+443213511+443121856+442517800
3018+441230059+439756068+438827078+438751426+439030162+438829602+437959667
3008+437099262+436947246+437424256+437823951+437604270+436870733+436057388
2998+435331631+434521908+433556310+432668323+432108447+431904650+431907501
2988+431872080+431598214+431153092+430810521+430639414+430364806+429833284
2978+429375544+429383531+429664285+429599560+428966229+428209682+427829167
2968+427817232+427798675+427550491+427222469+427014368+426880107+426730436
2958+426705051+426888183+426945990+426509568+425719500+424996742+424554767
2948+424381314+424378612+424408689+424419318+424418279+424240967+423714018
2938+423004263+422338214+421600877+420683526+419907739+419667156+419899456
2928+420201469+420298052+420232911+420109576+419686426+418556193+416930631
2918+415756011+415657913+416180260+416431769+416144839+415726380+415536092
2908+415502512+415402010+415258188+415226330+415116148+414445229+413174263
2898+411961342+411397546+411380118+411450604+411371656+411227865+411261949
2888+411584390+411854574+411553779+410786365+410316778+410549226+410987430
2878+410998772+410672323+410536875+410734050+410869766+410551869+409751528
2868+408707843+407746580+407112418+406799746+406644613+406582797+406644553
2858+406800993+406980948+407115209+407115031+406900011+406390639+405542556
2848+404575236+403942261+403807703+403866313+403876734+403944310+404092615
2838+403986441+403378763+402570050+402049336+401843134+401647770+401445547
2828+401345579+401012361+400136844+399251500+399183003+399987768+401021417
2818+401604986+401331951+400283041+399065547+398236941+397835019+397634667
2808+397470181+397238119+396945696+396736110+396671592+396645138+396581244
2798+396492499+396281458+395721107+394763228+393723403+392996962+392664309
2788+392516331+392373252+392209330+392063400+391968806+391867056+391535917
2778+390764940+389694148+388859723+388733449+389158203+389372717+388795354
2768+387712121+386934494+386837970+387024961+386985027+386805844+386958039
2758+387497161+387853894+387499002+386503238+385357388+384575277+384467560
2748+384905199+385301866+385161815+384569903+383890107+383217020+382449904
2738+381729639+381447905+381764288+382304717+382521993+382296967+381951666
2728+381689972+381365840+380883189+380435455+380156274+379874569+379473241
2718+379221821+379432268+379928220+380182758+379949894+379461394+378995222
2708+378589797+378252778+378093637+378093072+378004297+377646466+377101703
2698+376522587+375953062+375395353+374883843+374469837+374205086+374075308
2688+373957496+373792831+373732292+373893126+374068123+373961533+373658095
2678+373556702+373790694+373970738+373632829+372767080+371783548+371114203
2668+370939444+371138520+371408823+371521707+371496410+371467848+371424648
2658+371223375+370885674+370700434+370867118+371150277+371121744+370666082
2648+369994896+369300076+368692725+368329134+368288042+368403687+368417137
2638+368232995+367943067+367700761+367645745+367861714+368277591+368598368
2628+368476043+367872700+367172090+366803036+366827857+367027586+367262765
2618+367551418+367867534+368015868+367735885+366972480+366045628+365401609
2608+365197426+365290447+365515650+365720783+365703236+365419453+365108295
2598+365010999+365126555+365267170+365141964+364500142+363492591+362734827
2588+362705730+363216824+363719902+363978686+364120904+364176099+363991542
2578+363599537+363306223+363348413+363656305+363973045+364125268+364173723
2568+364261311+364325116+364154929+363769129+363464771+363418750+363473440
2558+363396423+363201831+363107444+363194349+363251147+363081851+362822295
2548+362737024+362838269+362952311+363021905+363086839+363095924+362984020
2538+362854064+362875353+363049755+363231640+363328283+363352718+363314061
2528+363159136+362842752+362446145+362195586+362272663+362615144+362998153
2518+363269407+363402717+363389060+363238024+363077635+363109552+363399065
2508+363770762+363978805+363960604+363889287+363988959+364278769+364474341
2498+364234263+363572310+362896136+362552912+362487949+362452885+362401490
2488+362512325+362866831+363285736+363530328+363540749+363439385+363394315
2478+363473233+363587690+363622042+363566521+363426292+363147408+362817307
2468+362753057+363141084+363724682+364075833+364097419+364052615+364108256
2458+364060008+363672130+363139362+362903173+363077991+363389416+363630801
2448+363840417+364030496+364076932+363945551+363791605+363769545+363872423
2438+363996144+364090055+364187203+364305817+364410387+364515136+364727305
2428+365086918+365425094+365482486+365160402+364637432+364257599+364274879
2418+364666350+365198703+365666924+366034613+366363525+366654434+366805649
2408+366783588+366780768+367038334+367509880+367886417+367992620+368000577
2398+368185550+368600120+369102218+369655978+370473331+371918670+374515917
2388+379029722+386218891+396440095+409708180+426096779+445761263+468520698
2378+493691812+520433946+547955014+575177275+600705984+623611882+643718905
2368+660788221+674499349+685436305+693966836+698039736+695198581+686083680
2358+672417502+653866862+629817934+601496170+572794544+549900997+537721132
2348+537920356+549354392+567757470+586101880+598988381+606067338+609998020
2338+613177648+615816431+617133567+617554580+617970426+617975652+616378534
2328+612533421+606469646+598924665+591263832+584211656+576975814+568462563
2318+558923858+549519769+540718222+531933183+522436935+512173066+501762703
2308+491920499+482883446+474425568+466373531+458850789+451963070+445550044
2298+439412785+433558834+428090415+423071928+418572315+414602738+411018338
2288+407694770+404698214+402092892+399816957+397958711+396834000+396519042
2278+396559213+396367056+395734883+394848291+394018439+393495201+393316077
2268+393211685+392819561+392096297+391364899+390879754+390537837+390088974
2258+389458998+388812099+388391621+388274402+388233577+387943619+387368363
2248+386833368+386680075+386939838+387348173+387605858+387609035+387459780
2238+387321808+387288644+387332764+387342770+387239714+387053702+386863533
2228+386704748+386549436+386325213+385962898+385485087+385020547+384655679
2218+384321096+383917096+383469509+383044310+382624128+382221642+381986136
2208+382020459+382212290+382398064+382583898+382865543+383229015+383571823
2198+383866325+384173741+384519310+384860753+385185479+385551861+386026733
2188+386625593+387276560+387830883+388172444+388326717+388442807+388704085
2178+389233795+389977575+390668683+391008463+390923934+390638191+390493152
2168+390701343+391241623+391937037+392558313+392902368+392919054+392763446
2158+392623217+392541865+392494775+392527851+392698542+392963412+393221364
2148+393392887+393432969+393376260+393395262+393679490+394226778+394881782
2138+395552137+396260377+397026277+397805418+398543734+399281546+400167129
2128+401292373+402593268+404013459+405613992+407398754+409221551+410954117
2118+412570653+414082826+415572553+417210079+419036884+420773459+421995376
2108+422532301+422647887+422794558+423189711+423628716+423738691+423428928
2098+423004946+422777368+422739690+422785681+422988112+423391874+423769955
2088+423869596+423738928+423596532+423493268+423240868+422621611+421581014
2078+420212781+418654617+417091970+415787958+414953117+414561765+414381632
2068+414219848+414116910+414263315+414709802+415209199+415425970+415300883
2058+415106380+415100858+415267867+415507886+415920230+416676895+417685218
2048+418575165+419087477+419434649+420143631+421426593+422879236+424011250
2038+424826347+425589960+426358591+427076124+427851317+428863885+430188117
2028+431840133+433833116+436118135+438598015+441254494+444155446+447210254
2018+449993810+452043858+453351670+454347167+455414426+456588601+457653752
2008+458432508+458998262+459572657+460242388+460950302+461709639+462558108
1998+463418691+464331678+465581504+467194863+468629929+469429320+469830202
1988+470301303+470996598+471931437+473113926+474366306+475522073+476776382
1978+478427122+480429992+482506999+484464947+486275926+488070813+490024634
1968+492124355+494224848+496347757+498611518+500920023+503076928+505097256
1958+507141930+509328170+511727053+514261979+516608072+518560171+520425217
1948+522703022+525565079+528851475+532162929+534876830+536743004+538376285
1938+540454391+542888013+545241054+547405975+549542334+551823167+554407380
1928+557339507+560510524+563747812+566699178+568968670+570736509+572658858
1918+574897233+576914830+578422638+579839712+581716813+584122644+586500031
1908+588154096+588960196+589343621+589715585+590343898+591511036+593303637
1898+595363335+597122148+598237387+598854655+599496210+600523802+601719800
1888+602541339+602758199+602629639+602512777+602407969+601965460+601182518
1878+600801944+601446052+602743057+604022485+605460580+607656439+610217315
1868+611543298+610575384+608061538+605520437+603891075+603201005+602879456
1858+602313731+601259536+599853922+598424556+597331110+596754340+596627621
1848+596966272+597876586+598675858+597690307+594422558+590715268+588408604
1838+587666338+587511947+587240159+587169020+587795670+588573921+588308487
1828+586960889+585557295+584192773+581993945+578894600+575872214+573589065
1818+571928765+570613649+569756718+569773107+570772672+572030366+572413435
1808+571668913+570799037+570925282+572210589+573864831+574912316+574989690
1798+574594864+574736963+576295721+579102672+581236418+580659589+578227690
1788+576482000+576589302+578034938+579909604+581787714+583516064+584896797
1778+586006929+587525129+590369847+594639062+598599969+600129689+599710338
1768+599176442+599132915+599655351+601358168+604293798+606999208+608277329
1758+608605114+608675303+608780704+609809781+612921774+617748578+621885313
1748+623561230+623510696+623222579+623552560+624880978+626955877+628722944
1738+629910569+632119907+636521780+640778227+641305829+639394941+638088969
1728+637856492+637969554+638278098+639047204+640693074+644058150+649804888
1718+656758847+661319683+661236846+658302166+655167786+653382667+653746259
1708+656465385+660690479+664655484+667769376+671505050+676640518+680916561
1698+682292247+681860604+680410633+678023448+675994391+675600337+677004169
1688+680252382+686145139+694352933+700101156+699061212+694820798+692144545
1678+692314434+694447527+696926872+699088528+702008006+706346697+710192939
1668+710970239+709762247+709576799+711262276+713294362+714260257+714847359
1658+716746846+721311126+729449622+739695083+745017127+742753158+739513020
1648+738858639+739174488+737359619+733588732+730290817+728982232+730391290
1638+734737819+740433430+743352433+741730079+739178704+738744924+740438477
1628+742827028+744965109+747232998+750065483+752865962+755362408+758773148
1618+764044837+769498944+772031495+771858517+771602940+772549893+774213043
1608+775416047+775707015+775911762+777014472+778887415+780576158+781427092
1598+781493717+781362663+781903864+783674850+786376340+789166308+791457890
1588+793155243+794263416+794758121+794829082+794987154+795833515+797860256
1578+801167198+804636072+806017576+805032204+803561687+802168900+800065201
1568+797837395+797505157+799499773+802510461+806042101+811175431+817339026
1558+819518139+816508223+813318381+812142633+812248331+812510262+812139307
1548+811365154+812063715+816284296+824101065+833344171+840445395+841393120
1538+836847486+832066464+829650835+828659287+827491199+826674469+827812214
1528+830749151+833678784+835812768+838641512+843309709+848177011+850913298
1518+851768982+852120757+853126319+855875254+860496837+865933546+871512117
1508+877772859+883906288+886901775+886798452+885817770+884931030+884844096
1498+887078375+892100959+897324905+900197413+901639783+904265384+909090407
1488+914180864+917111210+917938984+918424069+919886451+922560507+926454848
1478+931678141+937405937+941896584+944287391+945047233+944213758+941727109
1468+939333452+939510348+942643362+946033734+947914457+950139947+954062731
1458+956628891+953600389+947968434+944916238+944047966+943111049+942352513
1448+943357125+944787619+943008379+937821011+933218371+932585605+936098540
1438+941643798+945719429+945527450+942935755+941955668+943570184+945700487
1428+946594827+946536396+946025836+945299247+946104041+950372603+956245823
1418+958316447+955190381+951239925+949076607+947347960+944492138+941603953
1408+940593284+941537802+943357897+945758146+949041928+952279572+953057585
1398+950346178+946734076+945290993+945660642+945514801+944735482+944947829
1388+945805948+945211244+943889952+945252574+949994819+955338181+959381509
1378+962986722+966941454+970250889+971847947+972142300+972490868+974051348
1368+976877657+979863465+982037947+983681085+985508424+987527030+989628710
1358+991775579+993304290+992849489+989969440+987091646+988018647+993669782
1348+1000511095+1004533580+1006225233+1009756516+1017979987+1029215868
1340+1038188849+1041225843+1039990713+1038076499+1037456203+1038350484
1331+1039089187+1037482687+1033976106+1032236117+1035534863+1042540900
1322+1047743172+1048209908+1047557071+1049544205+1051653308+1049134593
1314+1043149201+1039072204+1039491435+1043027588+1047527499+1052620390
1305+1059012662+1065736163+1069963870+1070599486+1069428963+1068081841
1297+1067179364+1067410120+1069140964+1071846611+1073741823+1071865851
1288+1064709699+1054925333+1046753643+1041513485+1037833749+1034683099
1280+1032353098+1031331978+1031390053+1031728288+1031265233+1029110882
1271+1025558815+1022221827+1020307019+1018545771+1014851902+1009594405
1263+1004506027+999826191+994835554+989838088+986295938+984988660+985117517
1253+985517984+985806933+985564183+982992619+976276303+966158096+955109444
1243+944395762+934061882+924658981+916989003+910779685+904826597+898211823
1233+890884890+883710330+878121308+874778204+872681690+870272296+866790833
1223+862257610+857446779+853916089+852579002+852360597+851465010+849566888
1213+847688838+846637968+846520631+847403273+849644559+853372810+858026577
1203+862591392+866099042+868124239+869497905+872280688+877858309+885163627
1193+891555839+895422627+897347945+898857238+900660112+902260792+902970458
1183+902901635+903183755+905196185+908924080+912741463+915927326+920179023
1173+927099550+935500333+942593066+947121598+950592076+955845297+964340139
1163+974138994+980856082+981867938+979865009+980019578+983717307+987456129
1153+987650246+985055167+983305261+984320918+987361475+990435107+991477604
1143+990615745+990673642+994099939+999981295+1004654242+1005241167+1002139684
1133+998188694+995995567+996466519+999541043+1004905425+1011811226+1018879019
1123+1024634486+1028470277+1030787333+1032215096+1033467209+1035942694
1114+1040031924+1042874741+1041652319+1038940021+1039814351+1043698596
1105+1044338607+1039324455+1033260087+1031192432+1034163275+1039789767
1097+1044533615+1046099142+1043765460+1039518751+1036855858+1037105141
1088+1038000372+1035822150+1030470475+1026763066+1028606141+1034395456
1080+1038546086+1035824763+1025381977+1011887709+1001583163+997011402+995378299
1070+992986244+990912711+991864533+994896776+997070308+996588488+993214803
1060+988637281+986577049+989745632+995981375+999649116+997691673+992324797
1050+987606007+985518875+985918036+989033235+995099741+1001347301+1002828388
1040+998114111+991568576+989220998+993625958+1001484234+1006774747+1006756813
1030+1001956315+993842819+985197207+979396313+977992540+979361100+981235350
1020+983235666+986011561+989019993+990480415+990045863+989561253+989969796
1010+990693950+991241742+990714318+987836881+981578276+971665588+959836547
1000+949435626+942284165+937434558+933073422+928644947+924828158+922020197
990+919327496+915329119+910141277+905242859+900685408+895197394+889406713
980+885663973+884571774+884674800+885011136+885230609+884119883+880745722
970+876101574+871828619+868249474+864478231+860249870+856825295+855602576
960+856263014+857002964+856623814+855689629+855364813+855829175+856520194
950+857364714+858908270+861875194+867045222+874462058+882468193+888618190
940+891950903+893956266+897158519+902927109+910140624+916001434+918857315
930+919874278+922084507+927970020+936861351+944619985+947929836+948287965
920+949074232+950987614+951912061+949937516+946291211+943754088+943195845
910+942753395+940398870+936472285+932624856+929800565+928228744+927919724
900+929106458+932141255+936334699+940039910+942642649+944940288+947277830
890+949203148+951209166+954180603+957403698+959605673+960763489+961139194
880+959865050+956683522+954073954+954739618+957682671+959456210+958627961
870+956802403+956889278+960612245+965341070+966494432+964386219+963522757
860+966901965+973367276+979416027+982492213+982422143+980911841+980767426
850+983604958+988092933+991966609+994851647+996854516+996581363+993371035
840+989146712+985501120+981844364+977949548+975587956+977033414+983045943
830+991283250+997781576+1000264544+998965282+997828131+1002246689+1012297083
820+1021541674+1023565386+1018960134+1013368558+1010743670+1010878109
811+1010803764+1008262722+1005785574+1008256784+1016278002+1026581835
803+1035075965+1036671064+1029146273+1017892934+1010317788+1008638724
794+1010360661+1012647789+1015416974+1019923535+1024232475+1022524196
785+1012617386+1001486491+997391679+1000801350+1004706142+1002661527+995918193
776+989480138+985229391+981565212+975986523+968398788+962355321+961744764
766+967348512+977532870+990815622+1005144969+1015491794+1016020406+1007246827
756+996130243+987995607+983782389+983519924+987489501+993765742+998823361
746+1001014172+1000481048+996991687+991497022+987039450+985418046+986563866
736+990128225+995618852+1002540627+1009264127+1013114525+1012717621+1007287444
726+999258150+995680134+999673700+1004759941+1003785732+1001552404+1006956097
716+1016592841+1021259850+1023496029+1027450226+1028691175+1023466220
707+1016120166+1013724252+1016878702+1020519604+1020236118+1015480749
698+1007508224+997175888+985306231+974316544+968331271+969536889+975892701
688+982183846+983247305+978290099+969651792+958986030+949834549+948494552
678+957848760+972952617+983853231+983526931+971574378+954131673+943598212
668+952529092+973802897+980507276+970085690+957549182+950001470+948301979
658+951110533+955209323+957986762+958265735+956940168+952882826+945180010
648+938734414+938761076+946141452+958184977+967534197+963977023+946315736
638+927565990+921587546+930088386+941282047+942683444+934953491+925798388
628+919837818+917424268+921488260+933974888+947237689+955901768+962938980
618+966865505+961678138+951323831+946056715+944709235+942786768+942749179
608+944630199+941253307+930334759+918366767+912420626+917116613+925723152
##END=
