##TITLE=<SNM>
##JCAMP-DX=4.24
##DATA TYPE=INFRARED SPECTRUM
##DATE=29/4/2025
##SAMPLING PROCEDURE=Instrument type and / or accessory
##ORIGIN=Admin
##XUNITS=1/CM
##YUNITS=ABSORBANCE
##RESOLUTION=4
##FIRSTX=4497.3318
##LASTX=599.83466
##DELTAX=-1.4281778
##MAXY=2.027292
##MINY=0.42038208
##XFACTOR=1
##YFACTOR=1.8880628e-09
##NPOINTS=2730
##FIRSTY=0.43354195
##XYDATA=(X++(Y..Y))
4497+229622632+230894287+231487409+230750489+229225823+227601840+226068665
4487+224974729+225062902+226664566+229239555+231707478+233042556+232917305
4477+231890974+230822577+230248775+230408058+231314489+232488390+233107462
4467+232670070+231428911+230257931+229927859+230286516+230396914+229652133
4457+228436214+227618319+227725354+228602631+229719186+230757592+231693082
4447+232259387+231844757+230172615+227787814+225773288+225077376+225937622
4437+227759638+229485621+230122136+229296459+227734651+226894484+227604760
4427+229165305+230063085+229525635+228079482+226637827+225574149+224893770
4417+224819140+225625307+226991954+228017180+228031717+227207430+226271924
4407+225762839+225744292+226058863+226453194+226578808+226261443+225693544
4397+225193977+224980964+225173726+225740598+226535384+227419638+228008340
4387+227568471+225902343+224003487+223073016+223263773+223824568+223992832
4377+223532190+222834590+222652593+223464016+225036305+226656326+227671923
4367+227894218+227668009+227331655+226675283+225406785+224002224+223413095
4357+223881503+224630262+224848089+224588969+224557684+225282750+226519647
4347+227396829+227346208+226790685+226541525+226793431+227138688+227226419
4337+227045559+226791537+226630266+226504178+226249178+225859140+225388270
4327+224798021+224192302+223803133+223590861+223408818+223468041+223975343
4317+224554622+224651271+224222719+223635548+223223380+223208827+223734233
4307+224654428+225560291+226263274+226935982+227579047+227884652+227872435
4297+227907193+227914659+227544573+227119573+227360114+228250681+229022738
4287+229130294+228680433+228095503+227743143+227742165+227848158+227577295
4277+226700365+225648132+225112576+225252396+225628969+225803879+225655535
4267+225314587+225094108+225306316+226003696+226970298+227872782+228373533
4257+228340338+228080239+228159494+228838658+229800714+230591412+231151181
4247+231559008+231505498+230667888+229382580+228286528+227600782+227300985
4237+227533034+228316835+229217283+229754449+229857822+229663293+229192864
4227+228490686+227792470+227263544+226826800+226527618+226689505+227402764
4217+228271170+228907274+229280564+229509188+229652449+229641621+229262017
4207+228492581+227806203+227664268+227909339+228106789+228227557+228625503
4197+229477461+230337848+230365850+229371420+228364236+228359706+229001050
4187+229147168+228428637+227428761+226735296+226567033+227005845+227985216
4177+229158991+230142640+230842482+231395322+231920838+232407067+232631177
4167+232236246+231204849+230223583+230117069+230919542+231938154+232628699
4157+232974287+233091835+232981027+232680109+232270357+231701006+230938436
4147+230307826+230294961+230906567+231543271+231698134+231634679+232040754
4137+233044039+233998597+234339845+234173349+233830554+233363109+232705870
4127+231973275+231388313+231057989+230925635+230932391+231160542+231728030
4117+232616308+233688793+234735786+235403711+235308293+234424277+233220843
4107+232330954+232125596+232534070+233229524+233916154+234419052+234660840
4097+234651764+234473588+234234451+234058200+234096793+234460518+235072740
4087+235624364+235801988+235592842+235219047+234818276+234474898+234450526
4077+234931531+235618745+235980118+235866800+235531046+235204888+235050231
4067+235265896+235810528+236214393+236062497+235552544+235209387+235183232
4057+235203704+235096322+234984993+235049568+235320069+235690202+236011071
4047+236140047+236031307+235899790+236096466+236626608+237053092+237133751
4037+237204924+237577314+238013174+238276746+238621987+239095825+239044461
4027+238131306+237134588+236892689+237159717+237304904+237435205+237967999
4017+238661117+238857651+238413377+237754702+237152045+236480395+235749473
4007+235385796+235759401+236795850+238212471+239699964+240765867+240946853
3997+240395355+239838427+239764713+239919339+239726988+239091215+238622523
3987+238934253+239823921+240476977+240471658+240142170+239897793+239783402
3977+239798192+239983835+240104603+239894431+239587073+239559040+239682775
3967+239708457+239836801+240278186+240792938+241170537+241613074+242213315
3957+242499869+241912871+240621596+239627797+239902434+241380157+242932793
3947+243495672+243103725+242619043+242633075+242850082+242659988+242113162
3937+241806751+242030814+242608041+243363524+244042940+244027866+243042954
3927+241808503+241307200+241732800+242529765+243246907+243957893+244904495
3917+245944843+246423700+245842385+244622093+243689444+243347707+243171867
3907+243157992+244130087+246362519+248467933+248949663+248222340+247522577
3897+246927292+245842859+244592055+244332840+245321288+245914158+244825320
3887+243357147+243532150+245256934+246796280+247563254+248012689+247992753
3878+247284656+246552077+246440274+246979745+248258850+250161194+251308214
3868+250506120+248753855+247802975+248029405+248490173+248396902+247574919
3858+246234932+245369873+246867548+251139177+254422737+254027412+251725212
3848+249811865+249173220+249557007+250166135+250351951+250299578+250815971
3838+252133181+253399769+253955103+254121362+254262981+254099548+253399248
3828+252649700+252452235+252973948+254326057+256280743+257373243+256687023
3818+255899277+256874307+258681408+258951829+257484966+255879072+255506051
3808+256535933+257730275+258035691+258183798+259114490+259974198+259733609
3798+259269700+259594089+260231629+260387660+260244967+260265077+260535846
3788+261277975+262888951+265057929+266857469+268069821+269332368+270911081
3778+272417374+273704609+275031968+276587414+278509916+280950247+283814931
3768+286875345+289926477+292548963+294624291+297180102+301511113+307245060
3758+312311791+315650298+318409478+322502394+329298392+337923636+344823212
3748+348424501+351346610+356761391+364061044+369893771+373950793+378149971
3738+383427111+389324965+394916124+399610023+403079257+405082829+406079532
3728+407428610+410212509+414030236+417614257+420252622+421909594+422970446
3718+424216672+426331998+429577692+434012313+439310194+444671245+449925718
3708+455386749+460459352+464106543+466202391+467626888+469164813+470709558
3698+471903442+473231937+475659546+479355385+483558130+487322663+489663520
3688+489804855+487956289+485139495+482543622+480800465+479561311+478442877
3678+478281590+480157022+482695659+483304345+482361342+482365951+484653803
3668+488077672+490866938+492214691+491999483+490752847+489541663+489264548
3658+490227504+492331307+495569834+500288357+506684342+513679888+518399169
3648+519019599+517290900+515608262+515090527+515787891+516823582+517300592
3638+517314514+517376043+517598321+518172060+519914017+523742352+529329817
3628+534336472+536778287+537203588+536888275+536505782+536635090+537931321
3618+540452438+543565035+546703393+549435329+551323862+552601468+554012107
3608+555825063+557827182+560082928+562983444+566583407+570143213+572423962
3598+572896680+572510714+572685166+573769568+575237094+577065014+579549827
3588+581695964+581684915+579712787+578182628+578924820+581701394+585203998
3578+588422794+590674815+591564751+591560079+591809223+593112400+595365178
3568+597661649+598767834+598376123+597416166+596647141+596034130+595535084
3558+595554467+596129784+596415991+595809610+594928892+594856977+596006349
3548+598026336+600114260+601292676+601159138+600522703+600959747+603580622
3538+607818346+611801244+613755377+613126329+611423865+611522172+614323497
3528+616727745+615434038+611632980+608691614+607625837+607659427+608734295
3518+610879423+613001442+614275259+615170499+616043640+616182418+615128322
3508+613543611+611934971+610086026+608182402+607237157+608195725+611118275
3498+614660214+616413189+615345834+613631942+614323055+617662951+621104310
3488+623022076+624098712+624535630+623361571+620672317+617991397+616271443
3478+615423999+615538785+616768279+618117484+617817387+615433849+612556505
3468+610925261+610921789+612153367+614324760+616712654+617981168+617731582
3458+617220477+617655816+618696211+619230993+618933801+618201269+617360391
3448+616453471+615027743+612403773+609046830+607271631+608869096+612729568
3438+616240190+618110160+618844018+618919342+617866067+615520033+613465446
3428+613933933+616688851+618298249+616383514+613128161+611709693+611757868
3418+610631226+607496530+604568486+604792880+608752037+613718252+616547484
3408+617114025+617027273+616707225+616173516+616165181+616460543+615432776
3398+612386600+608975168+607519954+608784869+611790826+614825952+616384777
3388+615887814+614126884+613125635+614707884+618712437+623006481+625444634
3378+625462818+624087537+622744204+622316315+623138440+624809588+626054993
3368+625647687+623906203+622938039+624591192+628223292+631391325+632813265
3358+633468958+634738734+636803297+638830609+640006435+640210499+640006877
3348+640058335+640384003+640614332+640750080+641038622+641610340+642129843
3338+641468026+639324225+637517077+637369712+637474711+636334053+635529669
3328+637463662+641331774+643779966+642866732+639673191+636546387+635073684
3318+635520451+637221337+639099831+640238658+640381162+639696426+638014229
3308+635034854+631318779+628128774+626410146+626649441+628643668+631148242
3298+633084445+634534545+635999609+637644175+639203694+640219149+640369481
3288+639612262+638741268+639273398+641828926+644899284+645868648+644578098
3278+644178685+646771969+650144065+650504144+647514224+644375235+643757236
3268+645499288+647883584+649766876+650750447+650223746+647893055+645005609
3258+643524823+644055691+645310630+645549293+644413181+643144604+642995913
3248+644081199+645769331+647362439+648363373+648853390+649337661+649686122
3238+649089591+647686466+646517774+645240484+642657365+640071657+640437608
3228+643436303+644782541+641794136+636942391+634165438+634441479+636071397
3218+637362641+637738504+637092787+635856347+635203370+635801543+636940560
3208+637359042+636477061+634900179+634039982+634714994+636042290+636464560
3198+635590535+634243477+633244880+632767427+632515189+632300455+632196529
3188+631956161+630851492+628559441+625706721+623031863+620946969+619908595
3178+619918318+620059053+619435120+618301975+617754754+618411078+619850949
3168+620988703+620848978+619238128+616665679+613853810+611328842+609267815
3158+607549945+605796339+603926621+602587266+602267533+602471217+602382697
3148+601817608+601061715+600547705+601124664+603380410+606071811+606601101
3138+604124623+600921737+599466523+599357610+598339692+595623478+592613796
3128+590741931+590126079+590081693+589952133+589549878+589224147+589463378
3118+590388672+591736045+592873168+593002097+592188685+591509568+591532487
3108+591541579+590689842+589007961+587022574+585295549+584205401+583393251
3098+581925915+579762793+578244503+578428047+579821511+581239411+582098914
3088+582403115+582213699+581695144+581171853+580722307+579957448+578560700
3078+576996446+576239480+576611491+577349264+577644941+577435700+576908431
3068+576079550+575187215+574646940+574336046+573696833+572538559+571106264
3058+569750240+569056791+569548639+570655645+570893045+569585891+567546394
3048+565755978+564286494+562832606+561605385+561155397+561558789+562278630
3038+562702351+562423469+561170929+559052194+556947664+555995347+556380365
3028+557071605+557034921+556329981+555649728+555333530+555401341+555780550
3018+555794441+554456727+551962760+549694513+548374415+547549701+546942941
3008+546918822+547519331+547952082+547376196+546000852+544980220+545141096
2998+546096254+546665068+545977112+544151086+542122449+540709980+539762398
2988+538582404+537101935+535993288+535688140+535852868+535807092+535212707
2978+534410976+534142006+534737528+535669388+536231761+536317945+536142673
2968+535722866+534962806+533862177+532443772+530785947+529137592+527741792
2958+526581970+525515721+524527162+523619674+522827287+522491612+522950628
2948+523727956+523656705+522227346+520287071+519005803+518726226+519137099
2938+519899622+520669121+520937270+520314946+518865194+517119795+515849009
2928+515476523+515558635+515177374+513940713+512328127+511043197+510283799
2918+509753563+509268628+508951926+508771824+508535623+508420301+508741675
2908+509187622+509097460+508432802+507684928+507033150+506243415+505214669
2898+504210263+503476816+502811779+501811729+500571912+499696845+499524256
2888+499796541+500086693+500061059+499460960+498330877+497087776+496083086
2878+495302285+494587369+493873053+493185728+492724754+492865648+493701853
2868+494596682+494559778+493233397+491353798+489959955+489197527+488354187
2858+487103794+486079184+485973616+486666687+487554855+488218503+488427396
2848+487975483+486952167+485892484+485244462+484798042+483944348+482544632
2838+481239972+480643566+480537652+480190327+479284323+478178706+477299409
2828+476641128+475977764+475274465+474672409+474219170+473820577+473404747
2818+473011616+472754674+472675309+472556009+472011346+470965111+469925379
2808+469504940+469676613+469757967+469211915+468176855+467053244+465981848
2798+464956828+464041794+463228382+462377434+461439008+460552355+459987361
2788+460026444+460558827+460921147+460641412+460066758+459673311+459227837
2778+458298282+457048205+455889867+454875801+453896272+452961161+451990565
2768+450816949+449567376+448655973+448340218+448493108+448728046+448667685
2758+448207375+447467519+446518612+445468146+444648925+444202095+443709931
2748+442824036+441933184+441618629+441798573+441885262+441492257+440678372
2738+439744302+439004604+438624574+438520806+438409587+438024001+437333362
2728+436531378+435828079+435299074+434872416+434411916+433822014+433058070
2718+432118602+431133359+430321115+429716943+429140111+428517598+427996769
2708+427729536+427721201+427799935+427651938+427140044+426585341+426344247
2698+426218191+425774802+425069072+424487125+424062425+423501977+422757638
2688+422058727+421482211+420950869+420548772+420395188+420264239+419737065
2678+418773541+417845028+417377235+417202089+416786291+415991031+415250891
2668+414909723+414802798+414606943+414184420+413518973+412732237+412155688
2658+412002578+412022814+411779194+411199994+410637273+410447984+410671967
2648+411050135+411234846+411017808+410449783+409748915+409095180+408559072
2638+408157512+407828213+407417971+406878517+406402674+406192518+406165400
2628+406027221+405600532+404994530+404438343+404005719+403603148+403230032
2618+403053434+403128726+403244396+403151740+402743172+401986616+400996353
2608+400171513+399903932+400099566+400250372+399989548+399360247+398628852
2598+398074149+397893226+398100667+398475615+398711879+398712889+398671439
2588+398746794+398781962+398522116+397989891+397415489+396931312+396542159
2578+396243419+396002388+395743458+395455010+395241350+395227996+395438405
2568+395753781+395969399+395918541+395584096+395105697+394663854+394341817
2558+394082381+393767194+393360614+392997695+392881204+393044701+393298581
2548+393469844+393550092+393540053+393328571+392851277+392269267+391858362
2538+391735242+391769652+391803431+391875946+392079094+392269488+392184566
2528+391813249+391420655+391275089+391482341+391878061+392015955+391603441
2518+390967132+390667540+390750220+390846916+390849157+390982064+391331377
2508+391710334+391912850+391849617+391560285+391250497+391159072+391272848
2498+391341763+391241531+391123873+391182655+391463589+391854700+392099614
2488+391960804+391510059+391096123+390980927+391151527+391421444+391594001
2478+391618025+391606155+391614900+391545322+391349340+391114718+390917252
2468+390806665+390855566+391014233+391093977+391051074+391050506+391145245
2458+391151212+390931900+390585870+390253636+389913857+389500994+389126615
2448+389037937+389340402+389827452+390165589+390260707+390340672+390613841
2438+390977802+391168669+391053978+390684303+390239461+389998178+390146048
2428+390563140+390960249+391159009+391116896+390896574+390751924+390938814
2418+391329578+391555803+391564074+391640566+391917459+392238613+392449085
2408+392518695+392479107+392442076+392583727+393017236+393726975+394563938
2398+395269446+395650297+395757980+395766440+395732566+395624852+395481970
2388+395353988+395108349+394422002+392947531+390399738+386548832+381351783
2378+375196798+368850345+362932414+357448558+351990148+346375849+340914502
2368+336115825+332414620+330018833+328687243+327886838+327542228+328423167
2358+331490210+336966236+344307750+352949504+362223243+370348083+374765973
2348+373956002+368787554+362380552+357861610+355876412+355335505+355532907
2338+356339059+357443002+358260518+358484849+358525542+359146855+360666376
2328+362807179+365195894+367565794+369661832+371423993+373177063+375311141
2318+377807539+380266875+382386969+384261011+386139316+388099574+390108575
2308+392158964+394180119+396054730+397806411+399515031+401063469+402297383
2298+403381312+404634735+406050614+407276920+408062394+408489588+408816582
2288+409287342+410003174+410786658+411263227+411233520+410847366+410321454
2278+409711758+409077849+408601943+408400279+408393491+408412433+408310180
2268+408026057+407653193+407374879+407298892+407437355+407798727+408381274
2258+409133474+409990167+410855605+411566197+412032979+412367897+412679611
2248+412859966+412784610+412576790+412446030+412394257+412260277+411941523
2238+411464133+410929225+410412247+409858113+409172398+408472825+408047809
2228+407970559+407991489+407913387+407810692+407782122+407761823+407689498
2218+407663359+407846744+408332942+409073681+409879107+410577228+411188566
2208+411813636+412416639+412887242+413251771+413696423+414356536+415114102
2198+415688251+415991600+416279953+416852050+417735040+418712834+419515291
2188+419986651+420215843+420454980+420813070+421131129+421242821+421239980
2178+421374496+421748623+422190781+422470611+422592910+422777685+423128008
2168+423453644+423548478+423543301+423781964+424371330+425044417+425495414
2158+425690765+425812274+426041278+426431757+426861161+427089280+426998172
2148+426782302+426790920+427189039+427826421+428365560+428532656+428403096
2138+428437443+429052569+430174918+431343831+432161252+432531022+432586931
2128+432519752+432490866+432688458+433282780+434168864+434989727+435593172
2118+436168900+436849153+437569847+438337799+439199133+439965697+440330763
2108+440216009+439828592+439473249+439356253+439468734+439683626+439973400
2098+440390713+440851939+441133410+441111943+440890233+440701859+440764492
2088+441130159+441613199+441941613+442002605+441872729+441666646+441479440
2078+441418985+441551576+441814610+442044119+442129040+442161493+442387307
2068+442946272+443713625+444440790+444956567+445205743+445240785+445217739
2058+445265882+445346605+445339881+445246152+445230556+445515816+446259271
2048+447417671+448678798+449663820+450297162+450879329+451705780+452701535
2038+453534805+454051245+454471431+455095712+455923899+456743751+457556564
2028+458642102+460135894+461793467+463268380+464489382+465743027+467399432
2018+469459859+471446762+472958106+474193251+475645214+477462779+479371896
2008+481045979+482317334+483161400+483686049+484074381+484432187+484772408
1998+485158468+485713518+486517017+487645080+489210723+491132340+492982170
1988+494364238+495378304+496480132+497934463+499581902+501154553+502671012
1978+504391470+506432041+508593426+510625189+512523256+514441748+516413434
1968+518365232+520356365+522510963+524734099+526823349+528827899+530992662
1958+533409664+535973778+538576406+541140078+543595531+545974587+548390894
1948+550824311+553102977+555232256+557525191+560215961+563165219+566123064
1938+568931903+571398216+573468966+575500887+577843574+580316769+582548649
1928+584559860+586648794+588932195+591211492+593195237+594834626+596311244
1918+597598700+598394244+598686890+598891017+599320105+600039189+601144805
1908+602707418+604516839+606224291+607573937+608390759+608647038+608597853
1898+608609092+608840241+609256134+609854560+610653577+611534547+612305404
1888+612918730+613414051+613668120+613558891+613328499+613346683+613530478
1878+613408306+612739228+611780787+610983601+610568466+610366171+610021372
1868+609367195+608472839+607302695+605712365+603822064+602019904+600480589
1858+598946326+597110198+594990704+592860477+591048721+589803126+589122115
1848+588799604+588731099+588832499+588562772+587305749+585374724+583660958
1838+582571315+581747738+580628988+579119349+577593230+576368282+575309388
1828+574045167+572489626+570854152+569319510+567881848+566433390+565006588
1818+563921365+563502505+563670074+564057933+564419085+564635334+564589559
1808+564361629+564241350+564358598+564607174+564974766+565658934+566727994
1798+567881848+568814655+569748030+571232604+573186295+574669606+575384901
1788+576202481+577750382+579669095+581324647+582712809+584266140+586203605
1778+588441862+590857538+593382948+595869465+597945014+599287526+600060782
1768+600614380+601122454+601840717+603145662+604945233+606535121+607667382
1758+608929961+610536518+611972159+613164781+614858911+617483511+620356877
1748+622567227+624058430+625221818+626316260+627625813+629525080+631874776
1738+633903350+635388808+637179097+639955672+642886620+644941081+646322045
1728+647658053+649370683+651447053+653335333+654608456+655795900+657931936
1718+661306558+664741287+666816647+667690672+668467085+669836242+671688533
1708+673665713+675830287+678437272+681412480+684698456+688505007+692590757
1698+696290163+699624566+702711529+705164709+707141952+709342388+711870640
1688+714309109+717101215+721658167+727647540+731904774+733583624+735016298
1678+738051614+742784785+747915855+751859859+754142123+755569619+757497993
1668+760594806+763992220+766680401+768653540+770359666+772069896+773851789
1658+775517506+776812980+778431028+782337276+788448253+793009625+795351934
1648+797521811+800120020+801847108+801908416+800690034+798701489+796723616
1638+795489891+794513392+792342125+789002924+785901818+783401916+781083284
1628+778961454+777579859+777057705+776550703+775120997+773017099+771243604
1618+770271462+769669058+768588507+766856368+765093796+763857420+763163718
1608+762733619+762488642+762434848+762267279+761453362+759751529+757701298
1598+756519979+757106219+759159480+761565622+763457122+764597339+765114569
1588+765324757+765641396+766445463+767876685+769517400+770644042+771176930
1578+771751931+772459650+772252177+770675800+768496641+766104579+763385460
1568+760621008+758107910+755456160+752464914+749986858+749406805+751317247
1558+753710067+753995452+752811733+751405010+750035727+748669033+747537971
1548+747284723+748580134+751247290+753946520+755563811+756817676+758926878
1538+761136596+762409909+763041672+763624502+764543103+765981586+768022093
1528+770985747+775305929+780764687+786443356+791446696+795142503+797608185
1518+800019756+803702052+808907877+814604982+819431283+822883754+825808010
1508+829629588+834620491+839427976+843434739+847183772+850967215+854668957
1498+858571542+863420130+869140597+874661483+879295590+882838160+884732628
1488+884878225+885101798+887722358+893026995+899129070+904241324+908645733
1478+913443685+918292967+921971790+924134407+925215273+926121625+928118820
1468+931644784+935601732+937605556+936090928+932672425+930334852+930055338
1458+929654472+926154647+921204848+918400050+917683303+917386742+916834975
1448+916259974+915814216+915561221+915835178+916695629+917411555+917386615
1438+917422036+918882680+921083811+921608555+920078711+918777870+919806458
1428+922184882+922846257+920716977+917829405+916682054+918375931+922873785
1418+928343087+931339321+930583491+928264796+927325864+928652276+930426276
1408+930307450+928137130+925992318+925973124+928893654+934205236+939524395
1398+941403836+938950656+935261542+933578272+933924712+934664505+935336361
1388+936162275+936325992+935399563+935653442+939592963+946246805+952191413
1378+955552334+957260733+958765826+960141549+960876291+961599731+963451012
1368+965947631+967461059+967980562+969382361+972722067+976656032+979367385
1358+980925136+982485476+984590005+987276419+990841276+995302763+999398678
1348+1001197050+1000050835+997582249+996548673+998648657+1003174860+1008055460
1338+1012488344+1017241657+1022138609+1025535266+1027032720+1028646285
1330+1032101914+1036575207+1040170687+1042543555+1044910298+1048093484
1321+1051772749+1054755092+1055277562+1052788457+1049383150+1047845540
1312+1048930573+1052096018+1057585966+1065033521+1071353802+1073741823
1304+1073351375+1072855865+1072853213+1071755994+1067731677+1061252540
1295+1055554361+1053508929+1054631215+1055397715+1053155102+1048762815
1287+1044318186+1040729020+1037419557+1033100069+1027423105+1021731934
1278+1016952167+1012000411+1006181701+1001018115+997482680+994100734+989754286
1268+985681353+983064392+980982150+977832996+973278190+968010426+962512081
1258+956474912+949520027+942278619+936001019+931339573+927881040+924305701
1248+919084849+911655542+902682563+893063994+883344340+874311128+867043265
1238+861524968+856219763+850031883+843995345+839923107+837979643+836570394
1228+834420152+831933193+830240642+829633061+829476478+829256567+828945736
1218+828576377+828398579+829191723+831446712+834501790+837304315+839862936
1208+843274368+848304416+854200154+859253627+862879855+866390730+870996929
1198+875983096+879830688+882425487+885030326+888479009+892287897+895405103
1188+897216165+898047193+899022303+901228612+904955483+909764799+915260871
1178+921430252+928051451+934370028+940069027+946312280+954534669+963920194
1168+971342240+974880454+976456704+979081179+982783047+985400071+986179010
1158+986780782+988914671+992741301+997468663+1001567546+1003456584+1003794248
1148+1005198762+1008429555+1011225892+1011450854+1008999568+1004471471
1140+999163298+996235380+998234027+1003089245+1005837281+1005065477+1004050274
1130+1005461607+1008789254+1012639498+1016521311+1020652141+1025321101
1121+1029659404+1031135643+1028642118+1025143050+1023843977+1024040275
1113+1023571030+1022939456+1024439120+1028572350+1033248318+1036356180
1104+1037840438+1038680115+1039160788+1038832784+1037140485+1034016586
1095+1030533871+1028222058+1027124523+1025562921+1022567571+1019786703
1087+1019712957+1022580388+1025777907+1026492192+1024433185+1021100740
1078+1017302333+1012642592+1006854883+1000667571+995584297+992225460+989830936
1068+987460783+984947306+982389316+979356084+974965375+968606895+961622776
1058+957766345+960450927+968567749+975833655+976570796+972265577+969711565
1048+972862677+978749828+982247002+983192184+984906203+987990514+990780032
1038+992877869+993686988+991265314+986100844+982234564+982305721+984254740
1028+984556984+982849342+981136460+980432720+980366361+980452293+980360489
1018+979515887+977635941+975393580+973793463+972958394+971325004+967169233
1008+961120700+955785820+952806065+951116166+947849889+940606966+929585146
998+917940781+909546529+905607134+903515043+899643964+893371541+886791508
988+881099959+875945908+871578624+868816129+867199659+865369150+863029240
978+860982041+859812275+859114028+857482973+853948548+849068643+844022053
968+839309402+834890723+830928788+827813980+825927404+825628255+827138273
958+830018142+832842450+834365032+835400187+838133322+843146070+848742470
948+853498308+857720500+862123962+866946537+872315196+877902062+882665981
938+886130702+889440354+894477726+901947506+910619630+918586813+924934939
928+930068913+934173099+936587449+937124757+936326561+934402039+931368806
918+928240677+926692839+927204133+928205130+927645408+925429818+923468676
908+923153615+923712705+923451249+921711912+919348957+918279329+920359803
898+925598902+931904725+937309058+941276170+943534568+943860615+943338902
888+943858405+946368094+950313234+953923299+955480924+955525689+956204680
878+957567838+957464417+955959450+955684167+957373498+959288676+960468859
868+961602825+962871717+963922025+965300147+967550021+970242938+972398294
858+973686696+974610790+975382531+975589561+974744833+972860719+970650559
848+968989451+968385784+969700263+974521828+983198687+992918783+999208000
838+1000524120+999778582+1000009732+1000929721+1000695289+999253333+998445541
828+998895970+999659503+1001505923+1007378995+1018408265+1030355442+1035831626
818+1031259016+1019848957+1007953933+1000700908+1000370252+1005762967
810+1012518335+1016725753+1018424239+1019201473+1018936292+1017561958
801+1016600170+1017476216+1020447068+1024593178+1027180085+1024633208
793+1016821155+1007635273+999777003+992564703+985608302+981272145+981525583
783+984601055+985765958+980796902+969576827+956815481+947787319+943164388
773+939737803+936416849+936714357+943145509+951875279+956556424+956623666
763+957324187+962449258+970827978+978925606+984493214+987687513+989455262
753+989681045+988212698+986135381+984604401+984068798+984124423+983180188
743+980802774+980024467+983978131+991453909+998165585+1002104349+1004654762
733+1006426173+1005789927+1002177210+998344582+997717113+1000492425+1002625367
723+1000538326+995975692+994369198+999828461+1011574795+1023410153+1026947672
713+1018801239+1005690232+997609399+997117929+998455706+995488642+989677130
703+987006376+989324881+992853435+994205859+994497117+995295123+994958027
693+992566660+990877960+991396326+990147006+982771493+971008428+960864800
683+955650388+953809019+953248981+953358905+954222323+956553393+960801093
673+964329899+960514445+945863934+929893514+927913809+938313211+949960985
663+960291819+971280112+980556408+983674120+981886166+980905942+982535418
653+981613219+973590157+961042219+951977247+951256712+954700912+954608541
643+950377699+946601264+944037150+941106770+939042460+939984422+943079530
633+946368094+951099497+956453887+955696037+944615182+927541482+915281833
623+915232270+923082205+926065495+919374402+912400259+911188254+909836840
613+901700697+887785307+873040152+863240123+863903897+878179997+903301004
603+927929909+939268242+937292831
##END=
