##TITLE=<SNM>
##JCAMP-DX=4.24
##DATA TYPE=INFRARED SPECTRUM
##DATE=29/4/2025
##SAMPLING PROCEDURE=Instrument type and / or accessory
##ORIGIN=Admin
##XUNITS=1/CM
##YUNITS=ABSORBANCE
##RESOLUTION=4
##FIRSTX=4497.3318
##LASTX=599.83466
##DELTAX=-1.4281778
##MAXY=2.0780985
##MINY=0.4061873
##XFACTOR=1
##YFACTOR=1.9353801e-09
##NPOINTS=2730
##FIRSTY=0.42473245
##XYDATA=(X++(Y..Y))
4497+219456866+218711369+218005170+217669555+217664412+217624991+217307701
4487+216832821+216551287+216925983+218219150+219934764+220951802+220480802
4477+218818359+217245460+217125781+218756118+220976440+222193491+221811126
4467+220377123+218692952+217300679+216505075+216402458+216804826+217278936
4457+217459809+217342687+217209612+217276257+217496859+217732058+217951367
4447+218196591+218451747+218497466+217804386+215995055+213787006+212905153
4437+214313318+216892414+218631881+218828091+218289306+217860222+217740974
4427+217822156+217872556+217798642+217976990+218706334+219462009+219405234
4417+218445280+217245506+216429237+216154108+216186630+216153292+215886017
4407+215589053+215591748+216004356+216652210+217168759+217191795+216621628
4397+215604436+214390219+213411108+213159432+213677675+214457111+215052116
4387+215443920+215722206+215767355+215296694+214118108+212445179+210872603
4377+209934684+209874691+210714320+212121067+213449697+214325898+214859848
4367+215144554+215077616+214766517+214613792+214874307+215329739+215444398
4357+214940537+214215243+213905884+214133091+214515225+214739353+214749809
4347+214599872+214444684+214477175+214651411+214647084+214248150+213571670
4337+212822339+212030292+211217765+210705327+210917475+211742321+212412395
4327+212373236+211987268+211902298+212122838+212352402+212721216+213406750
4317+214045134+214206728+213948292+213576660+213401099+213663970+214237079
4307+214657725+214798269+215011802+215426566+215668865+215416172+214765454
4297+213901972+212863823+211892674+211610662+212476177+214226854+216071910
4287+217269559+217499738+216967267+216109390+215084761+213867033+212804800
4277+212446919+212787831+213355550+214010626+215001347+216236661+217072425
4267+217017590+216382009+215910224+215865537+215872943+215689530+215556131
4257+215621775+215664568+215541702+215429369+215629921+216397377+217587788
4247+218413974+218234641+217517216+217233587+217597458+218114254+218366839
4237+218105923+217182802+215880381+214768303+214110548+213886312+214160239
4227+214917578+215800077+216461512+217015526+217782042+218607459+218805424
4217+218099718+217216048+216959860+217197370+217357470+217392117+217544980
4207+217724436+217765828+217861854+218292602+218993180+219578747+219697825
4197+219272975+218412619+217309426+216344929+215932444+216032828+216201382
4187+216306263+216687272+217396860+217854139+217600430+216996786+216790382
4177+217243843+217994437+218582220+218873717+219117186+219669322+220495492
4167+221129272+221364918+221549995+221907876+222235591+222444936+222657053
4157+222681752+222080125+220942763+220068718+220075693+220633834+220868664
4147+220402607+219705293+219468107+219890370+220533435+220826472+220780507
4137+220915492+221438416+221992584+222267497+222305547+222134221+221638198
4127+220864661+220082823+219543776+219309162+219227795+219109425+219012798
4117+219194241+219747609+220514895+221289110+221882622+222082666+221787304
4107+221175883+220629630+220520900+221014166+221871904+222496368+222438823
4097+221876709+221409405+221450704+221934377+222474563+222739975+222821496
4087+223195499+224128059+225178897+225531712+224869506+223783113+223228930
4077+223616237+224446258+224868875+224617630+224266339+224450708+225086920
4067+225627014+225816233+225779815+225563987+225081762+224460240+224050511
4057+224013601+224142442+224178752+224110967+224039932+223908058+223551763
4047+222984029+222485989+222350480+222549139+222766538+222770803+222603435
4037+222460350+222576441+223087092+223802500+224339606+224593900+224752245
4027+224884597+224982024+225277864+225971313+226649811+226541589+225486686
4017+224203112+223390801+223071940+222967537+222962994+222999782+222979209
4007+223003015+223410526+224413628+225839593+227247865+228160977+228199119
3997+227299358+226008332+225218995+225322074+225900911+226364565+226513625
3987+226450690+226318277+226104004+225566374+224679225+224028045+224218249
3977+225151302+226297658+227219670+227588561+227303501+226729807+226347504
3967+226289774+226483797+226857200+227244770+227488439+227617049+227611428
3957+227249636+226580901+226224406+226717996+227795720+228662173+228811556
3947+228335151+227662259+227234899+227209553+227325983+227270301+227129280
3937+227201900+227564247+228037679+228369490+228399133+228274681+228395299
3927+228993060+229884907+230516807+230331915+229443395+228764528+229129000
3917+230331561+231318263+231464735+231186928+231086713+231041518+230503457
3907+229482539+228777864+229146200+230410233+231701644+232461708+232598187
3897+231987721+230653255+229264370+228836117+229704434+230982125+231728546
3887+232181390+232953219+233693927+233656816+233256219+233420646+233947174
3878+233958215+233462577+233062488+232890901+232890238+233342252+234070271
3868+234257042+233844511+233617165+233891400+234156627+233991584+233354232
3858+232289043+231453464+232690117+236866412+240428668+240197857+237466237
3848+234566047+232842056+232570315+233244532+234160723+235190819+236750999
3838+238702075+239965984+239965306+239330742+238949147+239104920+239483712
3828+239678598+239422826+238741095+238186203+238359839+238886720+239089891
3818+239586067+241176321+242918375+243199309+242123325+240945310+240823953
3808+242233734+244116378+244933232+245145134+246408304+248519033+249555288
3798+249300486+249031856+249142988+249089432+248850121+249066934+250042965
3788+251503777+253268652+255393425+257698564+260061554+262998362+266924567
3778+271128595+274677993+277790223+281334417+285690399+290484689+295116986
3768+299463790+303828334+308213789+312276334+316156804+320619037+326066047
3758+331921215+337519779+343123271+349762756+358540072+369130615+378785195
3748+385613191+391064759+397512592+404675756+409992863+413066257+415615325
3738+418897526+422759641+426585138+430684486+435245702+438716228+439431035
3728+438143920+437256956+437865358+438833351+438820631+437653472+435777757
3718+433760529+432452471+432837100+435070095+437602441+438688264+439188629
3708+441012943+444084736+446840732+448442966+449718409+451855070+454597546
3698+456727339+458006170+459521771+462055934+464958495+467019025+468077993
3688+469035021+470317825+471534876+472341891+472678383+472363972+471251448
3678+469952322+469518417+470018136+470520164+470582559+470164361+468979432
3668+467296447+466199753+466352261+467181358+467584095+467418682+467739252
3658+469406931+471795391+473110039+472207275+469453897+466409883+465366745
3648+467064820+469537080+471102388+471920736+472744289+473933961+475533146
3638+477559799+479987280+482401610+483890325+484033225+484060449+485973029
3628+489421042+491613847+491792934+491412955+491715694+492986979+494745263
3618+496406474+498227154+501097193+505136547+508924225+510826610+510876749
3608+510606809+511323341+513288800+516524712+520947986+525335320+527715342
3598+527567453+526109012+524622976+523932684+524564092+526355576+528588817
3588+530780359+532733714+534399298+536159985+538307240+540087514+540295211
3578+539175480+538443303+539093559+540492314+541490704+541404287+540268109
3568+539280191+540277965+543161401+545248539+545005363+544238385+545246383
3558+547794621+550110461+551192619+550966813+549488538+547197706+545403696
3548+545475146+547371218+549674678+551047872+550815475+549104803+547372943
3538+547386617+548970588+550094446+549579452+548301669+547493545+547344794
3528+547457143+547457081+546918681+545505451+543510581+541821160+541263419
3518+542143547+544038510+545880317+546917881+547440143+547780023+547410392
3508+546165316+544967913+544587935+545078599+546246559+547489665+547817534
3498+546882895+545513520+544968160+546090909+548697538+551065611+550965643
3488+548111341+544613497+542602798+542604399+544092097+546482159+549234522
3478+551267211+551081749+548239828+544464315+542266552+542287371+542900547
3468+542884655+543075045+544282795+545211644+544070478+541340413+539018721
3458+537942291+537478729+537330963+538088825+539582744+540118126+538683338
3448+536740084+536258598+537127638+537762434+537394159+536588315+536333436
3438+537218984+538901075+540069343+539487334+537231118+534537763+532751761
3428+532516408+533531613+534799418+535207114+534152981+531961316+529811597
3418+528953212+529577906+530773953+532088694+534208478+537193730+539130516
3408+538059752+534666127+531655867+530921904+532094299+533301495+532928292
3398+531017499+529086072+528370279+528355619+527514420+525534025+524056797
3388+524875638+528028182+532102860+535850348+538706744+539797279+538185405
3378+535108808+533513750+534335732+535583088+535650904+535254973+535478192
3368+536220963+537133367+538076999+538435419+537835547+537348148+538384480
3358+540924340+543764660+545860976+546733897+546205907+544788180+543892038
3348+544501703+545933719+546578925+545670463+543971803+543013080+543817939
3338+545986260+548149160+549382041+549653612+549201076+548202994+546901065
3328+545803139+545503418+546057463+546928783+547840509+549032306+550185360
3318+550350804+549634456+549198858+549411915+549326421+548065453+546057956
3308+544657599+544725415+545653155+546119058+546046499+546911228+549378592
3298+551888209+552638249+551871086+551035429+550733738+550710086+550990280
3288+551855441+553274030+554898530+556201260+556666177+556355616+555923036
3278+555647399+555099637+554169802+553597217+553957177+554841124+555353654
3268+555093601+554705431+555219747+556725185+558208202+558828276+558600191
3258+557641222+555724701+552835475+549677819+547305805+546162544+545691221
3248+545382262+545833751+547878328+551045346+553834604+555358889+555759687
3238+555183468+553690226+552010536+551054709+550699368+550141936+549353276
3228+549118723+549800947+551050828+552389775+553269225+553334085+552911545
3218+552550722+552138222+551091789+549450226+548131729+547985441+548797507
3208+549518289+549321493+547980329+545734645+543605499+543070055+544372477
3198+545984843+546476739+545844161+544701947+543419975+542064644+540346212
3188+537990458+535390420+533334448+532351272+532519919+533316832+533679871
3178+532916712+531619218+530817994+530583133+530260191+529368977+527959688
3168+526557052+525751393+525688012+526011446+526316340+526416986+526189763
3158+525597837+525009668+524923682+524981396+523943956+521306899+518255679
3148+516290374+515735590+516136849+517037149+517764892+517420392+515802297
3138+513647558+511621429+510028496+509423266+510286116+512007321+513144945
3128+512926438+511852810+510720606+509685814+508540367+507386450+506527049
3118+505992899+505569682+505099282+504625927+504231658+503713246+502604787
3108+500882350+499416395+499074328+499639368+500355376+501086999+501884405
3098+502000511+500628056+498381110+496923778+497024578+497707017+497565965
3088+496434192+495257732+494716221+494644371+494570026+494227066+493590792
3078+492878264+492471831+492526158+492694219+492470230+491819358+491233591
3068+491066362+490984872+490267385+488653479+486759101+485496624+485172019
3058+485391174+485689970+485869734+485875093+485790369+485788152+485838690
3048+485851040+486045402+486551588+486858115+486392612+485368907+484507350
3038+484262850+484503993+484606056+484052288+483120482+482402257+481737156
3028+480526727+478906538+477617883+476894699+476327904+475667361+475089294
3018+474810855+474877039+475213839+475551194+475424586+474717508+473994848
3008+473757154+473578036+472648602+471043565+469721249+469345274+469712317
2998+470267964+470616929+470431744+469436742+467898875+466756107+466656201
2988+467083114+467008800+466169109+465143926+464564504+464742205+465502500
2978+465977365+465261603+463574984+462047464+461314641+461059792+460769435
2968+460141260+458912075+457196784+455894640+455868000+456778432+457493917
2958+457587757+457566599+457672142+457447967+456579974+455443889+454702658
2948+454689908+455073089+455000653+453907839+452212812+450847318+450240455
2938+450146831+450247077+450462381+450731119+450833644+450533123+449763281
2928+448680383+447606756+446840424+446429803+446174215+445921215+445733782
2918+445642437+445409393+444815342+444045931+443454159+443053855+442620105
2908+442163225+441860733+441623132+441149252+440387849+439632851+439137875
2898+438858974+438645086+438512134+438570033+438772095+438857373+438544841
2888+437821041+436981350+436253546+435559157+434891747+434586484+434786143
2878+435000524+434729876+434211987+434019843+434208723+434329325+434075647
2868+433548396+432984527+432548036+432345789+432366454+432372614+432020230
2858+431205177+430231672+429533249+429273380+429314895+429468112+429552805
2848+429334544+428724756+427948477+427214298+426355113+425090418+423557940
2838+422293246+421690695+421702737+422073198+422577752+422891362+422636975
2828+421869812+421138190+420807395+420695600+420523813+420286704+420023140
2818+419579996+418818592+417919986+417291196+417051869+416798161+416198813
2808+415523826+415124446+414786106+414127535+413270043+412594348+412192165
2798+411973689+411949728+412089179+412192227+412054932+411548592+410665477
2788+409725911+409203125+409130135+409054220+408661461+408074370+407554664
2778+407257531+407210473+407269881+407137421+406587811+405686002+404670243
2768+403634866+402548611+401597927+401158417+401321243+401742890+401973932
2758+401742274+401096484+400417648+400038347+399831019+399455599+398910701
2748+398499895+398335960+398164973+397703721+396998984+396363665+396011897
2738+395842573+395578362+395108517+394638642+394344588+394001567+393314878
2728+392475125+391912827+391675779+391489085+391190258+390731039+390021375
2718+389107308+388334694+388073840+388303065+388604756+388580211+388145444
2708+387467717+386809700+386366156+386071086+385721197+385360529+385211685
2698+385214950+385064012+384673717+384221611+383801750+383382506+383041609
2688+382922639+382943273+382765788+382167918+381343287+380688627+380337137
2678+380055957+379641640+379253716+379159815+379275643+379296586+379223965
2668+379311153+379491071+379354516+378780237+378157113+377863152+377831493
2658+377730600+377371380+376806248+376156269+375540290+375113808+374938109
2648+374844824+374624130+374251943+373807783+373346716+372954049+372718264
2638+372621222+372618912+372721128+372844164+372762274+372341920+371691695
2628+371019419+370468238+370111420+370005754+370164206+370428325+370499867
2618+370257861+369906833+369655988+369462303+369252296+369134249+369181031
2608+369211613+368996308+368553318+368072510+367668171+367394844+367362630
2598+367572637+367785293+367810116+367717508+367568695+367275473+366887580
2588+366639261+366614900+366682932+366729713+366707446+366554045+366238587
2578+365828581+365481002+365357782+365452761+365531664+365376014+365036688
2568+364736660+364581349+364456927+364206976+363877937+363726106+363937437
2558+364404172+364833580+365031145+365031022+364971275+364906846+364807279
2548+364684520+364577468+364397211+363963276+363301779+362788941+362812378
2538+363294326+363746309+363848772+363747571+363713386+363786838+363843844
2528+363791088+363649574+363582682+363769437+364126071+364322066+364199985
2518+363999802+364062783+364425699+364744298+364615072+364031646+363464543
2508+363377110+363773195+364295672+364598380+364555541+364268725+363898479
2498+363455612+362898888+362407916+362266833+362524854+363036152+363657674
2488+364156930+364221974+363830940+363323276+362966580+362749890+362638865
2478+362726053+363074187+363588164+364055884+364296412+364311718+364262196
2468+364282337+364395795+364550921+364609898+364406173+363971099+363592291
2458+363512834+363666020+363770115+363605657+363213791+362893129+362930548
2448+363281114+363618161+363721024+363657273+363571195+363487272+363345696
2438+363084719+362710870+362402557+362453558+362961499+363628663+364007840
2428+363918312+363539443+363206554+363198854+363577108+364131399+364577006
2418+364838599+365031514+365231513+365458428+365760180+366069848+366157066
2408+365961903+365754206+365757316+365873638+365966061+366166306+366707385
2398+367552157+368320798+368647312+368593139+368595880+369013185+369841696
2388+370832848+371771768+372699817+373888041+375539520+377623672+380109821
2378+383208993+387241880+392387045+398635187+405813257+413479958+420852606
2368+427055353+431602340+434586083+436301005+436758870+435634087+432677846
2358+428174037+422782431+416994956+411255771+406404690+403183561+401631958
2348+401566914+403266929+407250294+413180823+419418187+424226521+427119073
2338+428868364+430223541+430895663+430318952+428951209+427886451+427388149
2328+426675251+425058204+422557857+419563273+416540633+413951836+411913603
2318+409958955+407485401+404472401+401552932+399321815+397730237+396296311
2308+394763802+393264154+391933061+390762760+389808657+389145066+388601492
2298+387896293+387075574+386530645+386505391+386786848+386972218+386898397
2288+386710471+386625655+386750877+387009760+387128422+386822543+386118668
2278+385374727+384942116+384942208+385286400+385710418+385922150+385912572
2268+385957844+386214387+386538344+386756421+386888079+387075605+387438706
2258+387944461+388376548+388573466+388690065+389032224+389651498+390293839
2248+390729992+390976802+391196664+391483727+391748307+391759025+391351760
2238+390643389+389961350+389511647+389193418+388804447+388343502+387960660
2228+387658661+387252659+386697474+386258273+386187069+386429691+386858914
2218+387550778+388553048+389635945+390558850+391342367+392069247+392701702
2208+393259997+393926698+394859952+396057693+397426575+398929364+400686139
2198+402835088+405206271+407322544+408877412+410051840+411257126+412712087
2188+414321404+415853266+417148358+418167505+418965003+419720586+420659321
2178+421787399+422853943+423668842+424258488+424656698+424774529+424539853
2168+423998651+423225821+422264912+421208962+420193110+419198262+418024420
2158+416562160+414931962+413338044+411921672+410630338+409151078+407234649
2148+405045725+402937644+401211512+400344350+400863163+402695607+405164110
2138+407746532+410392397+413149102+415920035+418593463+421237018+424091874
2128+427250916+430466533+433555480+436785047+440509344+444617223+448609118
2118+452134618+455370006+458865910+463013794+467779628+473025439+478855537
2108+485505740+493142290+501988839+512501341+525101629+539617669+555017470
2098+569623992+581724900+590630025+597314721+603274200+608672365+612296540
2088+613187447+611598918+608415823+604089961+598246958+590372374+580740985
2078+570421028+560487024+551416886+543171317+535731285+529334360+524073921
2068+519625546+515572641+511703258+507974033+504501259+501429435+498593581
2058+495577593+492160685+488477965+484884741+481790497+479374997+477451054
2048+475761509+474290564+473253339+472941023+473531748+475036600+477577230
2038+481578026+487515762+495657759+505998320+518149551+531504159+545730518
2028+560581264+575105187+587951084+598653052+607805665+616006578+623275007
2018+629281113+633721788+636581694+638158828+638835262+638749584+637568319
2008+634767051+630348673+624909301+618846959+612052440+604459653+596311589
1998+587843909+579219718+570739966+562748599+555422763+548832493+542991707
1988+537704905+532644217+527782788+523563608+520435271+518324111+516708911
1978+515134549+513528188+512128046+511259160+511064551+511356911+511844741
1968+512506639+513534963+514888724+516246396+517490487+518909014+520798557
1958+523071651+525352813+527384270+529290813+531386821+533688803+535778528
1948+537316057+538583616+540311287+542976801+546357923+549775693+552763655
1938+555366466+557865981+560473288+563219676+565966309+568560620+571028044
1928+573514317+576094584+578689695+581047173+582895755+584382406+586103426
1918+588359704+590717798+592660743+594175728+595404174+596394310+597351616
1908+598544707+599950176+601452534+603168996+605135963+606877863+607697628
1898+607464861+606898805+606876631+607543887+608362236+608909505+609247044
1888+609605834+610034102+610377370+610501915+610488487+610494154+610440381
1878+610067302+609314183+608468055+607930395+607944561+608475755+609121022
1868+609186497+608308279+606932867+605776857+605019980+604226640+603026219
1858+601579543+600197048+598872884+597485030+596118920+594807999+593234314
1848+591202426+589216980+588027585+587573200+586944810+585676204+584146930
1838+582757044+581437807+579919065+578210734+576613704+575305678+574144247
1828+572979490+571837338+570562881+568877709+567068425+565855439+565358862
1818+564915010+564082064+563193683+562674315+562465078+562315403+562208166
1808+562324088+562722729+563191835+563468642+563557523+563710093+564102698
1798+564646087+565137244+565544385+566123130+567171596+568612544+570084105
1788+571394657+572511924+573370555+574031652+574866076+576245984+578071468
1778+579888021+581557485+583439144+585773093+588120470+589781126+590734059
1768+591414496+591999462+592451568+592830560+593260923+593806037+594620258
1758+595973248+597790233+599547901+601046378+602734629+604898762+607098065
1748+608821178+610056954+611036434+612183452+614024951+616519231+618753889
1738+620121724+621421990+623886828+627272323+629659736+630491388+630984578
1728+631864089+632966020+634028714+635045398+636145727+637584519+639615914
1718+642073854+644297240+645997194+647565828+649242499+650871434+652292487
1708+653576369+654816025+655916169+656999375+658827631+662116976+666086390
1698+669224458+671821663+674590410+676737111+677640829+678123547+679108078
1688+680672339+682854518+686344540+690945053+694560050+696343403+697420265
1678+698894597+701276836+704298183+706985932+709025520+711348628+714669633
1668+718219710+720915897+722820100+724380788+725706431+726833553+727827816
1658+728480228+728615182+728952044+731232898+735359255+737833024+737702689
1648+736615603+735802984+735529503+735513242+735572865+735648196+735541575
1638+734804348+733170793+731447802+730810173+731006291+731283714+731604068
1628+732163533+732807999+733354037+733768632+733817476+733422099+733174550
1618+733814150+735277519+736421087+736555795+736393677+736919635+738184053
1608+739162978+739047611+738316112+737923999+737955043+737830683+737632225
1598+738244662+740080802+742498581+744713529+746745910+749097229+751817993
1588+754317940+756161471+757719881+759672928+761916456+763391404+763289095
1578+762089845+761214891+761484738+762138997+762383960+762209216+761407313
1568+759489252+756635874+753504335+750528876+748010820+746490908+746743323
1558+748401824+749500490+749661437+750070919+751450088+753267626+754343255
1548+754211196+753552194+753232024+753536734+754653447+757461183+762291137
1538+767037322+769931105+771266665+771747350+771954309+772483901+773801105
1528+776273211+779933234+783950075+787247797+789714976+792151911+795410952
1518+800082792+806281813+813052741+818959248+823356376+826297156+828178322
1508+830357114+835008936+841874227+847868137+851758340+854047879+855512541
1498+857506179+861413258+866624976+871097126+874310895+877518812+881659212
1488+886279251+890753742+895100053+899193211+902906513+906485292+909686680
1478+911814780+913475806+916756713+922529990+928826454+933615078+937241655
1468+939935256+940632385+939186818+937581719+937483476+938449959+939206343
1458+938698001+936946862+935573976+935463167+936049118+936784930+937410055
1448+937573219+937096599+936439629+936254537+936585178+936664512+935942375
1438+935605205+937992064+942768369+946188726+946375851+944918334+943857734
1428+943237721+942058858+940798260+941266257+944043196+947033622+947254439
1418+944579070+942353281+942765720+944531642+944950548+942887739+939992231
1408+938554239+939064675+940570544+942518479+945087288+947758777+949156177
1398+949058118+949033973+950010805+950870914+950521364+949941695+950782094
1388+952942654+954321699+953967222+953994139+956475977+961175719+966543210
1378+971130173+973618417+973365262+972048181+972144084+974017428+976624796
1368+979247378+981676429+983832739+985934537+988521394+991195100+992195091
1358+991203785+991334120+996062873+1004776254+1012484100+1014771422+1012207909
1348+1008720044+1007677306+1010439462+1016140058+1021587006+1023255424
1340+1021000563+1018148602+1017229053+1018247276+1020834257+1025094336
1331+1030435526+1035565385+1039580132+1042420513+1044727361+1047257304
1322+1049869785+1052062435+1054472885+1057899525+1061429768+1063523497
1314+1063844283+1062459263+1059238349+1055419473+1053586043+1055301458
1305+1060390787+1067399410+1073106165+1073741823+1068978823+1063598396
1297+1061684770+1062096100+1062221137+1061341687+1058702844+1053064952
1288+1045251655+1037818275+1032409823+1028882907+1026444124+1024566838
1280+1022767101+1020378825+1016749661+1012365715+1009524964+1009998751
1271+1011893098+1011132403+1006428472+1000118150+994635907+990841115+988263189
1261+984947420+978949506+971066669+963766333+957687915+951484460+944419663
1251+937385355+931664495+927520029+923729610+918474160+911242195+903330839
1241+896043377+889408266+882704599+875477192+867961521+860863648+855155476
1231+851621661+849709882+847502634+843903836+839992260+837331798+835992296
1221+835064063+834119754+833367373+833141321+833792562+835419650+837556803
1211+839792940+842568215+846474679+850815139+853976799+855424830+856486785
1201+859132034+864244770+870562052+875501275+877911232+879139494+880887553
1191+883538777+886616113+889338602+890888265+891715790+893963199+899137036
1181+906122930+912520348+917650206+922716253+928251775+933654191+939041577
1171+945846567+955060652+965802903+976114298+984535166+989885719+990827749
1161+987319249+981685114+977023068+975003314+976085718+980174810+985680459
1151+989796837+991382718+992185729+993864802+995473350+994988660+992099003
1141+988357306+985779688+986355538+991276898+999801984+1009260230+1015975723
1131+1016987971+1012767683+1007418731+1005138678+1006759975+1009738945
1123+1011852261+1014262218+1019636485+1027487847+1033145388+1033114283
1114+1029811263+1028303054+1030572205+1034419230+1036019092+1033864753
1105+1030078153+1027636229+1027881807+1029959214+1031069891+1029308280
1097+1026767373+1026180128+1026487609+1024984081+1021549742+1018452202
1088+1017449501+1018382354+1019834758+1020560961+1020526468+1019702207
1080+1016714429+1011390054+1007549928+1009644397+1016380585+1020354310
1071+1016100144+1006083110+996179842+988565496+981829369+975862745+972905457
1061+973911854+976677521+977672585+975413781+971677566+969129883+968824250
1051+970685151+974930262+980515553+983839638+982787969+980747149+982112520
1041+986194159+988798632+987648350+984708432+982682518+981398021+980125350
1031+979560464+979452181+978475472+976960734+976540349+977423926+977862789
1021+975949717+972223295+969858056+971013512+974295097+977147366+979256371
1011+980826976+979872380+974662510+966330708+957388996+949848995+944807895
1001+941855288+938467575+931783557+921555438+910311005+901039637+895288965
991+892663180+891554412+890077986+887030276+882677620+878420128+875772292
981+874877012+873817890+870879142+867250656+865638105+866078138+865435089
971+861680579+856240098+851321263+847392133+843695584+839830513+836470518
961+834616084+834600932+835975358+837866009+839375512+840317173+841646450
951+844515288+848820392+853192081+856761067+860284596+865194807+871882152
941+879034721+884745603+888234208+890877301+895154873+902162756+910489753
931+917545187+922070370+925226302+929159990+934719411+940694350+945016639
921+946203447+944225886+940810209+937976419+935782906+932555278+928089534
911+924893382+924809982+926709935+928490208+929278806+929112870+928728026
901+929736024+932861466+936438767+937732072+935801199+932566920+930598782
891+930818244+932934764+936663773+941428867+946151277+950065871+952466896
881+952337486+949978036+947900322+948520519+951488217+954027153+954023827
871+951996928+949954199+950063591+954377012+963246905+972775308+976351007
861+972316365+967283703+967420813+971248127+973096463+971731954+970922907
851+972750916+976211741+979976783+982836012+983440688+982277717+981758843
841+982717504+983130189+981297006+978624840+978150622+981123739+985866598
831+990798923+996413532+1001681794+1002800663+999803524+997581862+997528274
821+996545345+994734274+996358405+1002985756+1011429598+1017973303+1021862458
811+1024781434+1027788121+1029044840+1027048122+1024881895+1026678184
803+1031891750+1034839552+1031597943+1025460394+1022035909+1021106074
794+1017173064+1008408929+999017020+992726716+990171580+991654720+996589940
784+1000233332+996578360+985925668+974160820+965890306+962604225+964173352
774+968426655+970688230+967981510+963432305+961960005+963247459+963933933
764+964161279+967104708+974463189+984224913+992312491+995951325+995261587
754+992388992+989574603+989201955+991437784+994550290+999747349+1009800231
744+1022738521+1030358964+1026695800+1015683148+1005593555+1000347960+997985184
734+995333961+991962017+990003857+991484164+996228132+1002933277+1009934077
724+1012754193+1006698627+994782010+986183011+986383625+993037708+1000725967
714+1007005615+1012515206+1017666376+1020615842+1018293534+1011981672
706+1008200122+1010683439+1013771801+1008018110+993205369+978037780+970563439
696+972757384+980823650+990044448+998212531+1002003689+996037003+981303719
686+967079023+961140179+963782902+969734805+973255500+972190465+968846485
676+967349917+968629548+967834914+958792433+941724276+927599794+930942173
666+949329382+967087215+973245399+967019338+957540457+954027646+957325800
656+961918429+963859896+964146312+964932692+966298125+966471822+964236610
646+959186516+953322509+951102018+952885987+953208066+948930063+943927274
636+941300996+937776975+931089569+924830863+921441919+919939684+921291258
626+926789146+931827043+928712134+915892292+900858240+890510319+886460402
616+888461308+894356913+899042427+899487942+899071992+904868491+920695698
606+940006767+950817573+952329663+950143418+943212282
##END=
