##TITLE=<SNM>
##JCAMP-DX=4.24
##DATA TYPE=INFRARED SPECTRUM
##DATE=29/4/2025
##SAMPLING PROCEDURE=Instrument type and / or accessory
##ORIGIN=Admin
##XUNITS=1/CM
##YUNITS=ABSORBANCE
##RESOLUTION=4
##FIRSTX=4497.3318
##LASTX=599.83466
##DELTAX=-1.4281778
##MAXY=2.1725729
##MINY=0.59723675
##XFACTOR=1
##YFACTOR=2.0233661e-09
##NPOINTS=2730
##FIRSTY=0.61459404
##XYDATA=(X++(Y..Y))
4497+303748308+303369859+303352037+303469752+303078518+301898188+300721423
4487+300642888+301666323+302776424+303282457+303186217+302573723+301723825
4477+301256560+301330412+301472665+301698491+302677003+304412501+305950600
4467+306654797+306771039+306599976+306057592+305157910+304170915+303205571
4457+302306066+302012987+302937030+304431266+304744200+303405680+302197542
4447+302681510+304114090+304576082+303178882+300538429+298087569+297365579
4437+298837132+301126502+302315286+302042474+301448244+301350031+301466597
4427+301180352+300342473+299326992+298613574+298281934+297952945+297540501
4417+297675596+298902058+300854456+302728790+304105341+304710971+304172623
4407+302789474+301738643+301812288+302706225+303761211+304553547+304741254
4397+304251394+303640697+303505602+303749103+303997053+304214719+304403840
4387+304310163+303807990+303030737+302022531+300768468+299453338+298299756
4377+297410473+296869916+296684329+296716557+296874335+297135039+297370616
4367+297449652+297333528+296863082+295992004+295424109+296257687+298602144
4357+301117282+302446729+302603210+302329691+301804865+300862351+299919218
4347+299658956+299994484+300009625+299081988+297916535+298010123+299732513
4337+301509223+301730159+300784375+300036226+299830667+299783092+300054667
4327+301011380+302121334+302234100+300937911+299093712+297938894+297870668
4317+298220572+298219129+297979340+298249029+299280006+300499191+301282100
4307+301266252+300147460+298121298+296295187+295760433+296500039+297758816
4297+298859638+299315356+298974171+298400856+298449993+299279240+300283763
4287+300967192+301369503+301541479+301121553+299871555+298233004+296825346
4277+295782939+295169885+295473923+296878400+298582878+299516938+299438756
4267+299030760+299071442+299651120+300082063+299656128+298521988+297588489
4257+297579651+298433143+299550343+300357968+300675704+300769381+300993233
4247+301241831+300947868+299924904+298985041+299096747+300026034+300624653
4237+300369604+299831345+299651650+299828517+300107898+300390519+300613960
4227+300698269+300599289+300240342+299721024+299615711+300505200+302155004
4217+303661318+304355676+304088137+302889720+300886359+298581140+296885440
4207+296634133+297892998+299784919+301282189+302004414+302061180+301708566
4197+301410567+301415251+301132541+299915949+298450582+298135762+299101696
4187+299989447+299728771+298658880+297874999+298091870+299148593+300274719
4177+300759719+300506526+300051839+300026682+300502402+300967752+301020718
4167+300833600+300848388+301381875+302372406+303094072+302653878+301181707
4157+299900424+299789337+300794568+302173121+303002103+302753535+301790813
4147+300869951+300253568+299925729+300159803+301000716+301725622+301637542
4137+300952169+300372638+300181691+300084979+299819002+299608729+299857798
4127+300556722+301219030+301285871+300541227+299403642+298768376+299126411
4117+299878065+300074993+299779763+299875679+300525998+300828150+300240401
4107+299349321+298811827+298558752+298384271+298393227+298629128+298994321
4097+299474665+299878831+299792195+299259768+298900702+299030466+299350293
4087+299612942+299899982+300255837+300641002+301067556+301371565+301226719
4077+300673730+300221312+300076702+299676778+298505669+297063397+296342084
4067+296637314+297533903+298733262+300182545+301495966+301842630+300691906
4057+298612867+296962503+296548292+296928361+297337034+297771336+298562906
4047+299484504+299985116+299871850+299347907+298822255+298774150+299249310
4037+299508601+298751733+297232457+296141857+296342114+297549162+298714910
4027+298985483+298415527+297959956+298649748+300544733+302544706+303464420
4017+303122764+302039293+300626656+299272730+298540694+298583939+298837809
4007+298861700+299082106+300103126+301536501+302186466+301507367+300244201
3997+299411065+299340748+299863925+300663921+301252937+301231462+300798662
3987+300592720+300886742+301282424+301274765+300874370+300584207+300752472
3977+301144265+301454813+301923021+302696799+302899707+301509282+299151391
3967+297779466+298486963+300577402+302738688+304358622+305461506+305898547
3957+305232852+303496794+301539388+300278048+300044533+300716916+301845605
3947+302755715+303267020+304005772+305282901+306285156+306204176+305382647
3937+304629136+304206176+303877777+303414017+302788414+302155564+301860423
3927+302290659+303420498+304583064+305120233+305196648+305421207+305882964
3917+306074619+305614630+304628223+303481034+302499341+301907939+301990598
3907+303356190+306567984+310917275+314178677+314995610+314327205+313179868
3897+311344095+309120828+307835363+308138399+308992361+308986322+308519882
3887+309033750+310540977+311362211+310714721+309999742+310226835+310356333
3878+309507084+308618272+308780763+310080045+312207955+314636191+316165865
3868+316172582+315562503+315112854+314323464+312514526+310086820+308184353
3858+308096038+311274868+318525110+326251397+327200892+321635686+315114916
3848+310750100+309006472+309306444+311005709+313615996+316803811+320164045
3838+322579025+322910075+321625641+319996811+318513386+317022185+315616117
3828+314461829+313377857+312762741+313970466+317158222+319570787+319231046
3818+318121298+317868871+317103253+314629416+311675823+310160348+311218514
3808+314363438+317317709+318746106+319847605+321224656+321354184+319879007
3798+318565174+318008503+317158399+315761552+314888059+315172831+316218124
3788+317676774+319809133+322620855+325397670+327672547+329752617+331977562
3778+334266815+336570797+339185915+342798812+348203648+355001972+361034856
3768+364871487+367424891+369766432+371972789+374335098+377264712+379893352
3758+380836249+380801518+382558815+388581713+398826907+409116643+414435225
3748+415636117+417136745+421216553+426267920+430147531+433551627+438156969
3738+444789739+452644551+458978527+461174103+459853258+457972855+457546772
3728+458848882+461089852+462810445+462923093+461490896+459186030+456731871
3718+455061416+455259699+457906073+462650251+467626382+469660527+467641023
3708+463738730+460107187+457834402+457770448+460129310+463630766+466477396
3698+468056413+469270501+471738300+476285079+482057670+486998452+488652439
3688+485886465+480888918+477182286+476314861+477371378+478861018+480697469
3678+483581335+486569129+487217326+485736199+484916732+485329352+484409345
3668+480761099+476340931+473255483+471966984+471749671+471511118+470870345
3658+470728916+472252816+475034756+477483849+479368346+482074726+485586758
3648+486596377+483183591+478119232+474910531+474471251+475392054+476013150
3638+476043728+476264900+477290662+479259027+482494977+487338870+492394627
3628+494297565+492239000+489178621+487970100+490010401+494699787+498705979
3618+498834947+496364350+494923316+496113897+498756470+501001300+502099677
3608+502334812+502829532+504761222+507639402+509300724+508531749+506997980
3598+507163122+509175586+510962165+511209731+511296397+513345566+517173477
3588+519853757+519059918+516010351+513477008+513114319+514868670+517237696
3578+518546050+518417848+517418569+516099550+515255397+516096251+519136627
3568+522785787+524250859+523206331+522225080+522950988+524287917+524345714
3558+523029818+521971858+522699533+525536825+529526992+532994218+534768836
3548+534989831+534178789+531775298+526971143+521097775+517234926+516977344
3538+518745953+519947905+519956625+519980427+521041392+522914519+524208027
3528+523522005+520970044+517818669+515008773+513153498+512851140+513665187
3518+514058158+513485492+513114614+513646805+514165504+513966897+513886064
3508+514804864+516262513+517224322+517217959+516619958+516415165+517257609
3498+518508167+518829143+517991353+517279408+517717687+518806402+519191361
3488+518227431+516612593+515376647+515001114+515368163+515828358+515214509
3478+512601983+508776487+506038174+505903197+507713754+509803281+511247320
3468+512028020+512098837+511260812+509905972+508997718+509077962+509518420
3458+509074839+507412928+505650151+505115898+506025743+507583314+508694240
3448+508274991+505944026+502937055+501087966+500794857+501035354+500915223
3438+500126805+498541897+496569202+495417329+495983338+497633997+498717409
3428+498165422+496218473+493878405+492087437+491152111+490708619+490374858
3418+490302980+491019550+492878949+495528327+497767796+498268938+496791434
3408+494612886+493485198+493983306+494793523+494179438+492503829+491921824
3398+493120948+494248194+493794067+492650059+492367526+492939868+493270153
3388+493016283+492875856+493361032+494293500+495358884+496147538+495959065
3378+494733487+493639411+493772768+495115854+497290573+499931144+501935301
3368+502149756+501254110+501274554+503054946+505464624+506960450+506993620
3358+505962820+504759160+504414676+505316980+506722193+507661260+508070728
3348+508533752+509315218+510079363+510457487+510561946+510637064+510343661
3338+509149192+507567053+507007701+508053702+509695464+510550575+510163083
3328+508985345+507861517+507485513+507774968+507896513+507263045+506216455
3318+505300836+504403541+503303043+502351132+501910615+501800382+501669765
3308+501503267+501695629+502653549+504154030+505402644+505825133+505340428
3298+504118091+502847914+502701272+504073786+505946442+507253088+508169236
3288+509321758+510358803+510161492+508502703+506521642+505210400+504560965
3278+504618468+506032165+508727645+511297752+512554614+512702435+512394951
3268+511727252+510692623+509664886+508840647+507969864+507126241+506955384
3258+507576067+507985123+507329208+506022031+504860025+503964379+503363432
3248+503673686+505193137+506968699+507745039+507331741+506296522+505051385
3238+503879598+503161114+503047759+503247721+503405027+503576886+504071194
3228+504746964+504802463+503717460+502103448+501048728+500935373+501356094
3218+501799145+502152113+502686012+503449214+503742618+502782576+500860019
3208+499207946+498678819+498901287+498870768+498156054+497173683+496425741
3198+495944218+495411850+494590733+493572276+492633268+491826114+490831931
3188+489468018+488016231+486721368+485547166+484705635+484706931+485501977
3178+486134856+485631711+483914212+481700549+479943399+479288279+479583892
3168+479889078+479297588+477916796+476787311+476724712+477503026+478207636
3158+478138056+477251748+475889632+474380667+473036344+472179288+471772972
3148+471308093+470536967+469852359+469452995+468869104+467840072+466914408
3138+466652525+466942335+467393103+467780596+467884554+467363999+466119745
3128+464602001+463484388+463023604+462877256+462525673+461711213+460537512
3118+459403726+458717852+458517360+458563255+458730195+458990428+459242413
3108+459507802+459932500+460302112+460079320+459165999+458078286+457303860
3098+456975608+456950951+456815591+456237092+455525441+455304947+455639297
3088+455986874+455853753+455146256+454129095+453115941+452091504+451017017
3078+450411740+450764060+451517187+451635256+450963757+450122638+449455499
3068+448907813+448593053+448867485+449839074+450976571+451380148+450643016
3058+449305174+448224884+447615513+446995919+446026775+445013562+444526943
3048+444756451+445371096+445848995+445771815+444998862+443792374+442668250
3038+442036609+441989623+442326477+442750144+443078750+443245100+443238295
3028+443180999+443252966+443384644+443211253+442345006+440601466+438247229
3018+436177351+435367252+435843826+436542485+436421029+435457570+434428155
3008+434010821+434177171+434299629+433890691+433179217+432740791+432691302
2998+432596005+432154662+431616727+431345005+431226789+430818941+430033233
2988+429337225+429106391+429077787+428715776+427915898+427012210+426212451
2978+425433312+424707021+424334788+424441073+424707227+424796456+424754066
2968+424751326+424718274+424439717+423825957+423036537+422486995+422576636
2958+423181559+423622077+423370681+422578875+421733043+421170333+421172218
2948+421999845+423351592+424230565+423893121+422639529+421365965+420667924
2938+420431640+419981578+418828380+417452743+416882403+417400248+418209022
2928+418416260+417858882+416905292+415888809+414939402+414200562+413870748
2918+413937824+414183653+414488721+414796618+414870381+414465891+413720659
2908+413068308+412802418+412817854+412724266+412323105+411926951+411923446
2898+412089325+411755387+410705233+409510940+408887075+408999812+409432935
2888+409624443+409352750+408854230+408374857+407779979+406914145+406148704
2878+406077444+406741814+407556008+407920170+407671131+407063645+406505766
2868+406267302+406332906+406508005+406658978+406812691+406986523+406967434
2858+406451003+405428422+404257991+403392038+403113629+403313061+403461678
2848+403113718+402435385+401955511+401898451+402017167+401960136+401641252
2838+401280330+401055093+400808204+400341292+399832904+399571227+399430917
2828+398994348+398114373+397165673+396783807+397276407+398186104+398656197
2818+398307383+397468297+396657785+396242042+396341729+396663795+396709661
2808+396384207+396053304+395903185+395670583+395109523+394335304+393596552
2798+392995105+392530608+392238207+392146621+392173841+392191928+392157580
2788+392072976+391904446+391688193+391584501+391621176+391538811+391124276
2778+390506479+389896342+389295631+388688764+388236168+388041921+387970603
2768+387859693+387692606+387460476+387037221+386328193+385495440+384878321
2758+384614317+384493038+384272720+383929916+383548992+383258093+383252584
2748+383541539+383750280+383529697+383047261+382743341+382750735+382830773
2738+382757363+382538754+382308862+382151526+382033929+381856415+381561126
2728+381177787+380750231+380282082+379806657+379415482+379117483+378782956
2718+378373164+378074959+378000548+377913410+377504855+376819423+376190432
2708+375898060+376014066+376355928+376517506+376221569+375680688+375352141
2698+375357974+375383131+375152061+374804956+374639018+374600045+374391540
2688+374071359+373998686+374113101+373924186+373345451+372853618+372686236
2678+372523745+372086586+371539872+371181190+371049718+370970534+370841773
2668+370736695+370704645+370612352+370356008+370114775+370119076+370248014
2658+370166503+369792709+369313925+368853258+368474250+368391914+368806538
2648+369542815+370094596+370048612+369396290+368507891+367834301+367531265
2638+367372780+367130958+366960719+367203749+367843550+368387849+368371883
2628+367839515+367227993+366848778+366615351+366303655+365898104+365507931
2618+365119819+364723372+364512922+364632228+364866862+364897676+364730324
2608+364606982+364616733+364614818+364455479+364170442+363927942+363870352
2598+363997905+364186231+364280056+364194038+364002884+363918486+364045480
2588+364152472+363880102+363248313+362749498+362824557+363416696+364101009
2578+364476542+364372142+363858627+363192991+362669048+362426784+362395175
2568+362433854+362518281+362732589+363049824+363229254+363049824+362572808
2558+362073581+361787041+361765154+361892678+361988712+361944407+361798736
2548+361675365+361647851+361675395+361668943+361617156+361632798+361835176
2538+362158891+362327863+362121244+361667942+361367380+361472899+361829461
2528+362067453+362015725+361860392+361857387+361982584+362044564+362062475
2518+362228884+362528473+362720482+362696090+362601235+362610485+362700008
2508+362642977+362311072+361964909+361974424+362266001+362408343+362231300
2498+362025534+362168789+362744903+363425740+363703560+363412366+362940240
2488+362770119+362954910+363152957+363080785+362838226+362752297+362960212
2478+363292412+363520389+363535088+363364025+363161559+363043844+362889336
2468+362537046+362151674+362090725+362418830+362805675+362910192+362680537
2458+362274485+361875828+361655805+361731424+362033900+362349338+362556930
2448+362691318+362782373+362818960+362859171+363010026+363273853+363513230
2438+363624729+363662495+363692100+363659019+363575799+363643818+363940079
2428+364172740+363998671+363465155+362992498+362960360+363327556+363698935
2418+363820008+363855888+364088637+364571073+365198267+365883404+366531278
2408+367007233+367243282+367285849+367207166+367086977+367087212+367350421
2398+367792529+368196989+368516876+368902188+369576604+370954008+373702926
2388+378462982+385639903+395520464+408330846+424151528+442992555+464868981
2378+489515416+516035626+543081811+569611300+595494301+620889886+644596164
2368+663858443+676761648+683569664+685232754+682903792+678803687+674129679
2358+665869139+649360492+624194149+594243979+564724604+541271548+528160605
2348+527115252+537495483+555323621+572928996+584254068+589941379+593799278
2338+597804174+601701842+604756241+606561614+606909043+605720230+603105465
2328+599637709+596179439+592524093+587199236+579798168+571775886+563968590
2318+555592810+546141218+536341489+527104706+518642320+510487299+501961459
2308+492774755+483219647+473806999+464906658+456735141+449448930+443083434
2298+437406463+431998475+426658388+421623576+417236431+413526765+410259973
2288+407270294+404612637+402406486+400614988+399074857+397711003+396586909
2278+395774040+395272662+394961555+394574946+393902269+393023473+392196730
2268+391572010+391119651+390748949+390418517+390152834+389962682+389780247
2258+389499452+389038108+388380543+387647123+387064205+386757162+386633615
2248+386550366+386519700+386637975+386834991+386868279+386663751+386489152
2238+386603244+386887603+387055485+387067681+387059875+386999780+386725495
2228+386259526+385806224+385458853+385138967+384791861+384404457+383858568
2218+383056481+382230975+381862571+382143956+382667633+382814924+382414057
2208+381853321+381573381+381662315+381971743+382373052+382768645+383040191
2198+383156285+383243864+383446360+383778029+384200931+384756953+385459913
2188+386095090+386378772+386357887+386380658+386649994+387078728+387532501
2178+387931600+388218405+388448974+388756193+389114139+389379233+389571271
2168+389841491+390211721+390559386+390753633+390696043+390403670+390111180
2158+390130004+390557619+391170849+391611779+391693349+391550565+391500339
2148+391754298+392244776+392724001+393082978+393509267+394165419+394814205
2138+395070285+394993959+395097416+395738749+396773850+397829837+398734261
2128+399608580+400627685+401779882+402900441+403899367+404872989+406002238
2118+407383442+408917741+410357892+411531976+412502534+413444017+414430836
2108+415374705+416074631+416353629+416253795+415999395+415702810+415316996
2098+414916748+414713929+414727686+414743004+414670036+414709893+415089815
2088+415769238+416465246+416904585+416976316+416646443+415894259+414870234
2078+413962275+413451676+413183047+412810637+412298036+411935023+411915757
2068+412143322+412402760+412509162+412355715+412010937+411728816+411764254
2058+412203239+412946528+413788678+414569525+415304094+416095605+416943558
2048+417745115+418430606+419019298+419614824+420355344+421265925+422195094
2038+422975058+423576181+424111288+424809034+425895392+427342495+428824476
2028+430038565+431023646+432146326+433801698+436043434+438479742+440658644
2018+442518250+444288037+446050607+447660260+449046531+450331968+451620261
2008+452882750+454103437+455321208+456484246+457505472+458444451+459369938
1998+460201777+461003452+462108103+463593796+465036539+466121336+467047647
1988+468071672+469164452+470269604+471441656+472647644+473772474+474871882
1978+476178293+477793425+479530190+481148503+482691197+484497572+486824943
1968+489473615+491926773+493950283+495812304+497792599+499878473+502082827
1958+504576284+507275358+509729282+511662856+513369780+515402158+517976860
1948+520801131+523564425+526420865+529558159+532478228+534480087+535752385
1938+537120010+539000324+541282271+543861392+546691909+549494205+551933164
1928+554125027+556658017+559924338+563559298+566847005+569620845+572142640
1918+574216436+575411612+576081373+577048543+578526518+580136230+581653679
1908+583169478+584651400+585868965+586748644+587527754+588574461+590158250
1898+592270105+594445826+595922210+596428537+596609940+597162222+597966312
1888+598611092+599160722+599688671+599872549+599632701+599404459+599490241
1878+599774041+600081879+600412812+600983947+602215121+604323854+606626599
1868+607638310+606645687+604628098+603010904+602298311+602008443+601442551
1858+600291975+598733991+597245235+596250845+595844323+595847386+596067026
1848+596531110+597374910+598114899+597428347+594831198+591589268+588897794
1838+586852985+585167153+583955775+583772545+584973672+586876434+587837241
1828+587029380+585180763+582876192+580038370+577106753+574981877+573824289
1818+572890465+571562138+570180432+569597043+570023597+570668141+570657477
1808+569996436+569317308+569197590+569888678+571140591+572246451+572683728
1798+572681489+572952857+574078159+575957884+577424312+577166847+575608864
1788+574385231+574444560+575620235+577342536+579317823+581379541+583083224
1778+584083388+584890777+586771150+590593700+595376822+598697169+599626161
1768+599124489+598140351+597542703+598383557+600797418+603347611+604633165
1758+604664037+604075816+603786302+605031910+608364100+612692976+615986988
1748+617498840+618157230+618911300+620127804+621920392+624004321+625583691
1738+626599114+628493980+632363899+636517794+637854782+636664790+635213151
1728+634610025+635046241+636228338+637582059+639130615+641857793+646616287
1718+652601420+656834086+657048247+654421934+651358049+649419997+649505720
1708+652137159+656635125+660631655+662739210+664709136+668606333+673209465
1698+675815039+676281126+675151877+672946345+671430310+671845022+673656345
1688+676190866+680531880+687749365+694431772+695186372+691604672+688567536
1678+688566829+691590061+695668720+698680699+700795972+703026544+704473234
1668+703684286+702007939+701925633+704070777+706961211+708678681+709164328
1658+709892770+712346693+717646216+725560328+731896837+733607885+733976760
1648+735334664+736140874+734037149+730225970+727382433+726559431+727915213
1638+731524604+736456077+739516662+738419640+735562434+734074561+734776844
1628+736806216+739357175+742894570+747624078+751761300+754014496+756403317
1618+761620062+768695382+773018662+773088478+771733697+771174581+771758560
1608+773041639+774658244+776549340+778610528+780345849+781376001+782082054
1598+783042744+783939509+783849367+782734611+781702928+781756836+783009397
1588+784769228+786019844+786332572+786452172+787469952+789637130+792639093
1578+796215019+799109696+798934773+796177902+794366402+795509732+798476169
1568+800470427+800314947+798830491+797628834+799200781+806203751+817787053
1558+824639670+820997109+813679231+807801090+804558513+804138911+806049744
1548+809386882+813721592+819299376+826402623+834599297+841111966+840609115
1538+833287113+825816582+821888160+821415710+822553089+823656297+825076299
1528+827912177+831908471+835689661+839007770+842899252+847453130+851253174
1518+853153461+853018837+851804748+851198912+852367222+855938199+862938696
1508+874053495+885224442+887894000+882584166+876868222+875111279+878279445
1498+884752581+890819843+893621255+893969392+894700308+897955611+903393941
1488+907852846+909263597+909207627+909906080+911846371+914315790+916971620
1478+920745917+927119485+936236491+945453007+950169729+948828971+945279321
1468+943638325+945055027+947671265+948315220+946478740+945023448+946991960
1458+952689109+956823798+953613447+946082115+939241223+934422516+931817943
1448+932385131+936097625+940042603+940788248+938235050+935287584+934346691
1438+935319576+936479933+936748120+937200597+939190261+942019128+943798459
1428+944225603+944819126+946024495+946479682+945268186+943060238+941063682
1418+939697942+938208891+936338004+935145596+935453434+936679483+937967511
1408+939468758+941209087+942046111+941530594+941206436+942527811+945260822
1398+947800115+948238452+945733154+941357262+937068212+933817033+931729274
1388+931289169+933024196+936453303+940638306+945172801+949746769+953757557
1378+957022758+960238588+963740868+965995832+964833118+961017402+958685966
1368+961343622+968426660+976207091+981281023+982224450+979749493+976432445
1358+975025877+976880916+981575133+987313995+991826102+994146462+995667917
1348+998294053+1001769056+1004085999+1004544722+1004574415+1006005139
1340+1009636270+1014382687+1017828820+1018828630+1018295437+1016961808
1331+1014530213+1011878272+1011590996+1014806295+1020488303+1027874406
1322+1036280823+1043364214+1046642790+1046697935+1046237445+1046538744
1314+1047303360+1049165469+1053983528+1061867474+1069410295+1072722688
1305+1071620835+1068580282+1065544324+1063828916+1064088030+1065203316
1297+1065823705+1067022888+1070394080+1073741823+1071864042+1062842421
1288+1050796037+1041234271+1036066957+1033199735+1029477284+1024175286
1280+1020156958+1020328875+1023666249+1026383824+1026689481+1025803733
1271+1023908395+1019613396+1013687828+1009140902+1007342422+1006739001
1263+1005256077+1002060456+997368832+992135648+987807479+985412471+984494908
1253+983428464+981138151+978109263+974760165+969579122+961013985+950591452
1243+941750823+936033583+931903490+926654105+918791898+909017209+899566501
1233+892546504+888194591+884565345+879560227+873051918+866407040+860874327
1223+856992153+854608458+853153755+852169911+851284988+849919072+848204313
1213+847562007+848853099+850844766+851987507+852653850+854254489+857264818
1203+860962996+864289117+866828292+869273555+872347632+875540956+878152598
1193+880887140+884609415+888595634+891827960+894769711+898194163+901459188
1183+903494570+904320459+904606969+904970954+906377876+910446873+918224829
1173+928665861+938927199+946933397+953137462+958621806+963358737+966577100
1163+968191289+969692949+972321323+975678199+978509423+980129032+980973657
1153+982008404+984007317+987324247+991924021+997020872+1000870582+1002451543
1143+1002916981+1004100139+1006134991+1007391323+1006743479+1004133957
1134+1000693362+999303761+1002325697+1008896517+1015397579+1018270103
1125+1016451003+1011640014+1006453610+1002539564+1001121212+1004072684
1117+1012153411+1022255910+1028126922+1026186218+1019953461+1015845343
1108+1016413886+1019511824+1022539416+1025445758+1029383253+1034381596
1100+1038347961+1038122547+1032875106+1025850042+1021554453+1021621499
1091+1023779604+1025434092+1026417524+1026679819+1025007538+1021854808
1083+1019732524+1019983390+1021502135+1022932505+1024361815+1025316142
1074+1023240284+1016726496+1008076402+1000975217+998591345+1000798704
1065+1003134265+1002083787+998878386+996715096+996896440+998122371+998564126
1055+997229318+993264721+986784809+980335946+976615675+975441944+974971262
1045+974685223+975709424+979592717+987294317+998411886+1010010978+1016254576
1035+1013138374+1004147861+995912774+991180850+989241325+989110766+989089321
1025+986779389+982087057+977322553+975105355+976164612+978340627+979048625
1015+977959733+976469563+976255343+978290902+981343710+982784685+981786113
1005+979557838+976328517+970980742+963777279+956106727+947992830+938770776
995+929415748+922122674+917878519+915702562+913864373+911183209+907315294
985+902389359+896937832+892045597+888849151+887427147+886720740+886041612
975+885467649+884455231+882052034+878796141+875914367+872589837+867056652
965+860465683+856107289+854873817+854519141+853023904+850559905+848495536
955+848103919+849859213+853023197+856058389+858019183+859659001+862700497
945+867933268+874450945+880569523+885261913+888907125+892635232+896791483
935+900624344+904171224+908548530+913447481+917063293+919583851+924181269
925+932462017+940693805+943536164+941370282+939492089+940875091+944067825
915+946743745+947544654+945282915+940724088+937041818+935994521+936184644
905+935444891+934192860+934723991+936855171+937263225+934760048+932980539
895+934737129+937635871+938886311+940076480+942888615+945967994+948206225
885+949942136+951081931+951572763+952567034+954984607+957624294+958849400
875+959312659+960464591+961900087+961652226+958871493+955414284+954612079
865+957599254+962278330+966171402+967988028+967513104+965753627+963576079
855+961994765+963659269+970793564+981612722+988912336+987805299+982495229
845+980527307+982974749+984884463+984879691+987714980+995809906+1004377517
835+1007612730+1006219830+1004753521+1005330430+1007127613+1009379984
827+1012205493+1014260376+1012594105+1007041713+1001850360+1000361309
818+1000925610+1000604398+1000910056+1006030591+1016093263+1025097091
810+1026683236+1022305636+1019736059+1023913934+1032969136+1040851669
801+1041477832+1032339321+1019324352+1012099561+1013817679+1019287942
793+1022852851+1026240068+1033547341+1043356791+1048319902+1041018284
784+1023158155+1004496999+993644495+991673626+992157329+988150489+980209158
774+974924895+976283859+979741775+977856865+972386897+970888832+975101172
764+979607623+979190790+974563266+969788040+968278839+971028051+975900019
754+979004968+977835243+973433251+969410445+969396482+974523085+982519974
744+990096672+995056484+997372249+997668244+995298983+990264348+985550571
734+985907191+993004193+1001673729+1003399153+997466868+991930266+991018830
724+991439257+990919262+991105320+991628379+989601657+986709337+988922941
714+997924884+1007437159+1009264037+1002435399+991486390+979918230+970245171
704+966164568+970289535+980599597+991350529+998115183+999759420+995901108
694+987278056+975630594+964139143+956192922+952092522+951405028+955489048
684+964746982+976332700+985586274+988206931+983141542+974985814+969172246
674+965551838+959781456+947673209+928887799+911712808+909715839+921230563
664+930925656+931967414+931700995+940093389+955077223+963078354+958095565
654+949719137+947035028+949500381+953544928+957767401+961231269+961834042
644+959800604+956260911+949102107+937144156+924123295+916249129+917336842
634+925959422+936803796+948233562+963822526+978254138+978105257+963583621
624+950271890+946418468+946815388+943277639+934802585+922928178+910864884
614+905124431+908848178+917902556+924700322+926369362+927121547+929691889
604+929285602+921191089+911721704+910256220
##END=
