##TITLE=<SNM>
##JCAMP-DX=4.24
##DATA TYPE=INFRARED SPECTRUM
##DATE=29/4/2025
##SAMPLING PROCEDURE=Instrument type and / or accessory
##ORIGIN=Admin
##XUNITS=1/CM
##YUNITS=ABSORBANCE
##RESOLUTION=4
##FIRSTX=4497.3318
##LASTX=599.83466
##DELTAX=-1.4281778
##MAXY=2.0269809
##MINY=0.42386985
##XFACTOR=1
##YFACTOR=1.8877731e-09
##NPOINTS=2730
##FIRSTY=0.43507034
##XYDATA=(X++(Y..Y))
4497+230467500+229245095+229144468+230050107+231096361+231263040+230297427
4487+228863128+227855789+227778528+228584250+229841876+231090219+232177077
4477+233317579+234746589+236190471+236860851+236241116+234783673+233449859
4467+232658834+232140909+231777681+231935425+232727539+233556358+233809708
4457+233569303+233274055+233137134+233156094+233320547+233508887+233346880
4447+232505700+231189551+230053091+229570402+229729457+230231105+230581467
4437+230232352+229192840+228216586+227952406+228380234+229298708+230587608
4427+231720185+231974877+231420531+230875026+230815825+230900949+230496706
4417+229389483+228065362+227298539+227347558+227706097+227754658+227402923
4407+227025155+227115346+227949138+229161850+229875487+229685221+229106690
4397+228659933+228180970+227499713+227082714+227408874+228241072+229045042
4387+229618979+229849864+229500576+228716845+228126995+228070130+228175998
4377+227913428+227168391+226250059+225688846+225864398+226535852+227108068
4367+227459819+227910239+228471120+228766180+228452713+227421899+226066709
4357+225318641+225749753+226826128+227576406+227581142+227015541+226310066
4347+225928099+226007160+226325853+226816324+227586984+228404799+228831475
4337+228828396+228694933+228562953+228407656+228291259+228159816+227715206
4327+226883103+226052579+225460708+224922134+224534325+224804031+225689083
4317+226430663+226651002+226697258+226819624+226832380+226587586+226302014
4307+226385891+226971463+227566603+227441254+226534399+225604749+225267491
4297+225310684+225286277+225339921+225875970+226742046+227462913+228048138
4287+228884740+229994110+230858261+230837501+229681606+227973450+226943378
4277+227390261+228782077+229826468+229997994+229877381+229832514+229363450
4267+228248934+227250357+227046483+227360677+227595319+227616616+227641559
4257+227809739+227966346+227814254+227380458+227146210+227595098+228774642
4247+230152691+230829686+230408836+229552421+229088488+229068880+229247479
4237+229608686+229907740+229655889+228894639+228161726+227758020+227723873
4227+228182439+229122335+230084254+230477209+230197384+229681054+229306191
4217+229080389+229044521+229406659+230001325+230232605+229794673+228918603
4207+227971319+227360977+227531887+228459990+229420347+229686942+229272517
4197+228771642+228700016+229114410+229629399+229714917+229236096+228758397
4187+228987088+229930473+231011884+231757379+231870935+231112700+229809039
4177+228974332+229286315+230409893+231637129+232655471+233444065+233797110
4167+233429778+232609910+232127095+232265153+232410015+232134326+231889043
4157+232070657+232278177+232052881+231590147+231252684+231024577+230845331
4147+230903680+231248232+231554737+231545486+231270744+230780557+230044124
4137+229450389+229743223+231027845+232301005+232497191+231782575+231259946
4127+231520463+232079845+232213403+231692037+230672953+229582258+229172506
4117+230037272+231940398+233946298+235185563+235349922+234620798+233346391
4107+231938235+231004480+231145395+232401174+234112551+235395373+235741851
4097+235300746+234548588+233694005+232749073+232017581+231796784+231774982
4087+231471066+231064629+231139143+231799546+232542263+232921151+233097366
4077+233582896+234439058+235130372+235293720+235069260+234664592+234223392
4067+233949487+233815739+233475276+232837559+232276236+232086760+232236136
4057+232658076+233274086+233780202+233872209+233629010+233370497+233251826
4047+233302471+233598604+234017276+234145783+233826016+233467177+233501751
4037+233806061+233884239+233508413+233061056+233121504+233657790+233966300
4027+233621369+233051963+232917189+233355263+234092454+234926388+235860743
4017+236856020+237571836+237595958+236982380+236205453+235526390+234909275
4007+234569238+234926893+235944683+237075444+237832353+237969637+237379329
3997+236371043+235720917+235894496+236551788+237193421+237778882+238412432
3987+239043597+239617361+239965022+239692081+238669144+237405930+236606175
3977+236633202+237404667+238428361+239121395+239357506+239389333+239216007
3967+238662372+238037427+237952982+238513453+239321149+240116515+240850106
3957+241284139+241020859+240032465+238961599+238676359+239448045+240621763
3947+241296106+241380645+241607110+242382537+243088928+242913486+241984846
3937+241089327+240748248+241115612+242249358+243767754+244667204+244371213
3927+243553050+243196658+243254407+242962900+242370539+242532893+243959282
3917+245515488+245516625+243741232+241479630+239923392+239279976+239343456
3907+240511585+243683641+248757607+253608991+255882402+255320147+252900912
3897+249419920+245969460+244158420+244931400+247202285+248482691+248161709
3887+248189005+249773565+251547600+251915059+251300470+250353438+248704325
3878+246711971+245939796+247180483+249692783+252519150+255094629+256502422
3868+256408552+255962347+255967384+255430672+253098044+249480005+246161651
3858+244717501+247019913+254650177+264108658+266229061+260197470+252836690
3848+248292458+247087481+248039581+249832008+252056179+255172523+259016821
3838+261566284+260954079+258280467+255921759+254852504+254627996+254647241
3828+254668680+254609194+254963629+256929840+260572096+263194384+262802108
3818+261337072+260646374+259651191+257205592+254513209+253371286+254455555
3808+256703075+257918881+257770957+258617157+261735742+264749548+265147965
3798+263876636+262454178+260843791+258873649+257265977+256774101+257516628
3788+259290000+261734337+264057492+265680430+267281898+269828156+272699153
3778+274353822+274807984+275508612+277563514+281324805+286438001+291700196
3768+296109260+299974050+304037094+308637749+314163777+320968269+328258244
3758+334234644+338458810+342707793+349366698+359674710+371646643+380696146
3748+385687119+389734850+395359388+401222974+404545638+406277285+409191823
3738+414668689+421848597+428306943+432178648+433589377+433778600+433535669
3728+433173610+433394628+435066979+438011860+440766285+441860452+441116410
3718+439725131+439500797+442236341+448791746+457284345+462926976+463007616
3708+459760130+457060264+457763039+462364831+468170636+471670904+472659425
3698+473211718+474226034+475576078+477775305+481739838+487145442+491426883
3688+491702620+488540794+485072921+483610316+484531837+486413271+487659436
3678+488430948+489420984+489716770+488896349+488655976+489058072+487637239
3668+484070192+481221708+480727605+481669017+482575635+483394508+485510285
3658+489601840+493711013+495343360+495531447+497496616+502416422+507518031
3648+508967848+506640872+502874088+499657449+498211295+498901756+501156554
3638+503892477+506216548+507872386+509478495+512462117+517732173+523165500
3628+524684432+522891405+522085983+524357294+529160433+535001728+539709608
3618+541091036+539423042+537256746+536602090+537809608+540228812+542803423
3608+544646464+545788371+546989764+548857685+551143962+552689827+552640256
3598+551989452+552761816+555517031+559050357+562698612+567512140+574303466
3588+581074648+583785785+581051472+575515278+570496393+567796622+567481829
3578+568686505+570733704+573270615+575921762+578901153+582999339+587484685
3568+589168530+586174552+581043642+576890896+574373497+573271815+573686825
3558+575456677+577771812+579461150+579603991+578638457+578566910+580904906
3548+584869470+588159676+588927872+586825546+583146663+580061184+578872926
3538+579406338+580874784+582441994+583371597+583566724+583733183+584570022
3528+586193559+588110925+589366752+589227068+588157781+587637946+588223834
3518+588510148+587116279+584864165+583733688+584513946+586239215+587395015
3508+587421600+587354600+588482615+589864422+588577653+584266532+580926944
3498+581849601+585456053+587854986+588012604+587903863+589020574+591241366
3488+593397748+593648825+591226716+588134606+587478307+590167722+594056888
3478+596391852+596653916+596270544+596161551+595876563+595041367+594346990
3468+594707313+596226972+598115100+599273426+599033400+597320887+594514711
3458+591531279+589349323+588341668+588428181+589380455+590488199+590838292
3448+590444816+589910394+589386201+589025562+589091615+588720178+586440153
3438+583035838+581536639+583327835+586183645+586988783+585521032+583998089
3428+583675529+583970872+584360812+585021152+585664126+585541618+584574252
3418+583404623+582754829+583098734+584095653+584239441+582095247+578215807
3408+575034847+574579171+576718502+579473338+581240917+582465611+583830620
3398+583947697+581669882+579415810+580484844+584270194+587421285+588695866
3388+589044886+588140289+585173086+581958721+581375106+583643007+586432512
3378+588007867+589009965+590895693+593523981+595538974+596549975+597533128
3368+599016161+600040486+599571864+598123247+597223197+597871033+599831277
3358+602031104+603172001+602514882+601080725+601391477+604648909+608497533
3348+609304881+606626328+603246768+601394887+601285830+602650776+605565440
3338+609704293+613682371+615428669+613858996+610470217+608279419+608732696
3328+610457966+611535399+611622291+610953110+609386721+607539639+606722124
3318+607003386+607312938+607417827+607763941+607809597+606466185+604141640
3308+602654944+602949467+604109119+604920382+605370818+606020422+606989556
3298+607976372+608452193+608173078+608213872+610085518+613108039+614525398
3288+613087579+610652778+609365756+609317385+609655985+610403343+612082009
3278+614129018+614936303+613890255+612294439+611480207+611354606+611403103
3268+611707540+612333970+612745632+612325571+610972433+609198540+607833783
3258+607406586+607573929+607705656+608011040+609000318+610032726+610158581
3248+609975135+610614447+611963164+613231494+614149857+614803187+614891405
3238+614138111+612899145+611667252+610551551+609737635+609933205+611576256
3228+613604573+613937111+611902352+609146885+607518548+607051441+606278319
3218+604198284+601672675+600501404+601235311+602662143+603400786+603060229
3208+602142181+601679685+602447692+604081018+605344295+605062087+602765579
3198+599082277+595686740+594282895+595317703+597702238+599649347+600063598
3188+599510421+599375537+600001966+600416596+599752278+598245628+596663768
3178+595318902+594094650+592895278+591613372+590042247+588220866+586402516
3168+584362706+581650748+578846214+577400628+577887437+579292924+580139235
3158+579777901+578654623+577832245+578079912+578907468+578825438+577134269
3148+575071031+574374634+575024428+575245572+573735133+571258654+569698390
3138+569944857+571032584+571387034+570648959+569557254+568521625+567378013
3128+566145236+565125584+564425903+563776045+562807732+561610255+560746768
3118+560424902+560194790+559683859+559058061+558655492+558684603+559097213
3108+559330293+558734048+557497735+556510603+556391317+557067001+557848838
3098+557715659+556252643+554349928+553259928+553117593+552861148+551543752
3088+549384024+547535363+547061247+548071301+549509247+549923372+548959985
3078+547817825+547566874+547600848+546673329+544827446+543112596+542000558
3068+541232235+540721999+540796640+541623185+542770965+543456564+543252469
3058+542509595+541813008+541071018+539767073+538070599+536855440+536646041
3048+537085804+537393904+537051262+536092674+534985183+534264726+534216102
3038+534677399+534951399+534249949+532708441+531509890+531419715+531713480
3028+531234691+529945711+528760169+528232882+527996582+527431501+526427699
3018+525349635+524531140+524035523+523741758+523400600+522697825+521455102
3008+519829732+518364823+517805552+518609174+520394150+521884067+521751866
2998+519884198+517603193+516262401+515873914+515516401+514735512+513874456
2988+513298987+512991645+512803780+512684777+512618850+512449361+511935367
2978+511098781+510320796+509944339+509894673+509787132+509369249+508740610
2968+508061168+507199259+505977406+504673556+503768296+503255092+502711608
2958+502022788+501615293+501897060+502659289+503167632+502908093+502147474
2948+501587098+501456665+501100257+499723629+497646751+496368886+496947575
2938+498591730+499386355+498355620+496316031+494791099+494548389+494974228
2928+494643837+492800449+490247814+488490433+488155054+488589292+488912168
2918+488964770+488933765+488618435+487770513+486777257+486262379+486244350
2908+486294205+486215334+486011207+485530208+484699684+483885421+483514363
2898+483424913+483010472+482009386+480726595+479508879+478569771+478195840
2888+478381369+478440223+477759234+476626831+475738495+475399137+475520571
2878+475783267+475791571+475574625+475504531+475408230+474617742+473143581
2868+471847498+471326810+471333535+471246454+470796587+470294181+470124218
2858+470175273+469966979+469257920+468189012+466995640+465960579+465424578
2848+465508344+465990006+466497938+466627770+466120438+465247542+464676683
2838+464640531+464615745+464081228+463168422+462255838+461380889+460369572
2828+459246799+458268098+457616757+457213335+456841298+456424552+456107296
2818+455977464+455807658+455267490+454409559+453694312+453422933+453393064
2808+453230174+452823090+452308211+451763496+451047554+449994465+448742617
2798+447658522+446891304+446315267+445849360+445427026+444837349+443994606
2788+443110532+442391370+441906835+441738324+441858653+441995431+441933736
2778+441705645+441292467+440509336+439366481+438238151+437469512+437019613
2768+436699484+436550076+436668889+436862027+436815014+436385133+435515773
2758+434284195+433145414+432532562+432207538+431623450+430802904+430246506
2748+430164918+430308896+430342491+430016741+429188554+427980057+426802787
2738+426040052+425788123+425922313+426168685+426071058+425299009+424136074
2728+423235519+422797745+422445726+421965547+421663636+421808908+422082466
2718+421869215+420988646+419804967+418664954+417682148+417019314+416806031
2708+416783803+416528022+415941060+415212552+414553570+414106703+413800908
2698+413372038+412783687+412314938+412042233+411685983+411118155+410576092
2688+410256058+410033239+409702343+409323644+409147714+409179445+409048824
2678+408486900+407717598+407155359+406863899+406517721+405842637+404945018
2668+404172306+403729006+403514492+403317944+403067530+402839818+402701145
2658+402601592+402376437+401848866+401043412+400300222+400005668+400165401
2648+400394850+400325892+399860143+399081401+398173015+397445454+397203629
2638+397426320+397652043+397355373+396481656+395504755+394954072+394986435
2628+395340349+395538192+395205686+394395148+393548395+393043179+392896454
2618+392945268+393069006+393106327+392863301+392442735+392265699+392482613
2608+392668711+392380029+391705449+391033269+390621544+390597421+390997275
2598+391552157+391713659+391162218+390171582+389305569+388851471+388694200
2588+388677277+388842093+389161938+389293602+388933626+388250238+387623714
2578+387144262+386684417+386250085+385954330+385853957+385977064+386282543
2568+386582117+386702415+386630268+386374992+385872333+385147519+384417432
2558+383920393+383706732+383669474+383755703+383996424+384275633+384330887
2548+384147884+384040659+384172070+384342696+384397130+384452163+384570535
2538+384587995+384443670+384363346+384543002+384904998+385268763+385497738
2528+385446525+385089265+384687674+384517711+384506313+384423242+384262277
2518+384138380+384011863+383787561+383522181+383333716+383230248+383143829
2508+383027668+382894679+382873619+383164858+383771900+384361830+384568798
2498+384373386+384060961+383881936+383828702+383700827+383360838+382896857
2488+382530440+382439128+382626773+382854295+382846623+382693205+382764120
2478+383132778+383485240+383663223+383818409+383989698+383975964+383655140
2468+383150839+382690331+382415890+382307559+382273743+382284384+382343111
2458+382430035+382596777+382951386+383432479+383792897+383889577+383811778
2448+383692807+383554450+383385276+383264442+383291470+383406683+383425659
2438+383326422+383360333+383736411+384261235+384450048+384061277+383421302
2428+383074177+383155133+383310919+383251118+383107930+383131294+383285155
2418+383357049+383319760+383366742+383628996+384001728+384266887+384345506
2408+384415285+384735477+385343499+386000523+386447296+386646371+386806483
2398+387190676+387800307+388293526+388365009+388082516+387721530+387507206
2388+387582446+387877506+387969292+387393128+386038065+383963713+381091611
2378+377496179+373757527+370507515+367725146+364937726+362004496+359223359
2368+356862504+355090758+354003410+353330441+352774611+352770665+354052982
2358+356632961+360068407+364395315+369941266+376255792+381756971+384734435
2348+384508144+381827602+378514821+376142031+374872975+374149329+373634293
2338+373069560+372371236+371990232+372391444+373320131+374193091+375049663
2328+376396518+378196712+379735347+380506323+380759420+381116302+381937795
2318+383120117+384366661+385586461+386954312+388554896+390151406+391452794
2308+392458933+393380137+394338220+395306975+396249398+397147079+397930179
2298+398534854+399031229+399557632+400132280+400657577+401080764+401417154
2288+401688944+402002285+402527740+403191426+403584555+403409445+402807518
2278+402074558+401321958+400577758+399963832+399615444+399551065+399665363
2268+399784681+399775588+399670036+399626905+399717270+399850166+399985145
2258+400257218+400752899+401342766+401923760+402630545+403566368+404469828
2248+404903119+404740165+404293992+403927007+403678677+403388638+403032041
2238+402658709+402093470+401093583+399845335+398932750+398689346+398837586
2228+398884568+398667023+398353745+398101310+397936462+397893080+398056128
2218+398463212+399040228+399635936+400129375+400506401+400803386+401004797
2208+401087458+401182717+401579508+402439206+403532237+404427551+404981644
2198+405425859+405925140+406362124+406690621+407157317+407937575+408810629
2188+409425470+409718509+409911143+410242986+410830705+411654251+412551081
2178+413279904+413686199+413816411+413832419+413825630+413802613+413846027
2168+414124163+414644125+415144352+415369475+415340111+415269038+415364108
2158+415739586+416330589+416866875+417097902+417053762+416980573+417058561
2148+417258140+417454847+417638766+417938687+418398658+418852819+419133576
2138+419290531+419523768+420000568+420732896+421544413+422217256+422712779
2128+423144175+423562121+423911140+424154640+424342631+424597276+425024536
2118+425583113+426129786+426634150+427206493+427889881+428570586+429108798
2108+429485034+429819688+430233529+430673766+430962289+431030363+430988527
2098+430962258+430968320+430952059+430889416+430856800+430982970+431292301
2088+431637532+431847278+431904364+431919362+431958293+431974111+431914847
2078+431819146+431791077+431937107+432297872+432774324+433192270+433513757
2068+433890183+434417501+434923349+435123907+434992022+434850129+435033542
2058+435548926+436167588+436756980+437349310+437939460+438430974+438823313
2048+439284104+439928120+440648451+441285552+441874534+442572510+443382259
2038+444123901+444698265+445249832+446044772+447239755+448735955+450211316
2028+451368031+452231834+453123896+454273223+455630717+457149524+458946972
2018+460996885+462988261+464727423+466346793+467949871+469423305+470683015
2008+471764995+472696587+473561432+474541364+475665685+476716533+477517693
1998+478132471+478777276+479689703+480965169+482410660+483716247+484825475
1988+485952637+487276095+488798186+490429554+492104147+493887386+495939100
1978+498251552+500572497+502748076+504917908+507209552+509533434+511825584
1968+514142141+516345915+518088329+519374024+520832903+523156532+526337524
1958+529588577+532110492+533891710+535595257+537798368+540631634+543939016
1948+547369221+550493915+553169500+555561172+557748243+559719727+561682686
1938+563935305+566588788+569553402+572496357+574949597+576862353+578722002
1928+580845673+583059077+585183821+587258363+589282828+591214339+593073482
1918+594758463+596005575+596713465+597088817+597485514+598229714+599433885
1908+600911614+602347728+603534597+604517055+605604339+607060787+608708195
1898+610059375+610797450+610918189+610760698+611080164+612395981+613987566
1888+614400176+613360568+612072979+611572025+611802263+612149198+612220682
1878+612019429+611671546+611296888+611220605+611910309+613295526+614300844
1868+613565421+610864766+607284142+604112087+602040008+600906626+599940965
1858+598491589+596542965+594484084+592572528+590824778+589330883+588411258
1848+588360613+589105255+589974110+589831269+588075878+585312833+582531916
1838+580356275+578952619+578148870+577805470+577965614+578285270+577785137
1828+575978911+573538679+571175614+568963599+566865503+565038629+563619059
1818+562692235+562316756+562417288+562908075+563798905+564826009+565293494
1808+564819947+563973446+563811598+564911448+566756383+568084704+568199128
1798+567813546+568243900+570239822+573516009+576525395+577435675+576466920
1788+575598002+576164062+578019732+580307461+582473820+584402553+586108436
1778+587820570+590058350+593310982+597473579+601324035+603334670+603486857
1768+602739373+601698440+601038037+601660488+603531692+605296366+606112682
1758+606622476+607440118+608616693+610636422+614296108+619210672+623320351
1748+625074226+625127776+624981209+625532366+626994244+629100107+631170733
1738+633029940+635904379+641034025+646774693+649158913+647779127+645292355
1728+643444578+642851554+643391912+644360667+645531938+648007092+653226409
1718+660765408+666910161+668344381+666586211+664929836+665055691+667125054
1708+670703783+674861707+678293301+681013469+684938945+691203805+697443153
1698+700712268+701587627+701122351+699762710+699117652+700506278+703307150
1688+706384672+710543291+717209836+723838366+725694100+724129353+723510880
1678+725884870+730806949+736075711+739677111+742235114+745528162+749259646
1668+751189010+751009417+750919684+752350430+754514958+755936927+756894757
1658+759018554+763742601+771821643+781430764+786172555+785102700+784645318
1648+786763305+788059357+784908330+779068898+774221713+771746118+771591215
1638+773480733+776497192+777692712+774562144+769151994+764508777+761461565
1628+759704153+759413356+760765041+762098287+760961685+758054535+756626441
1618+758016457+759719182+758081310+753653554+749719491+748117360+748440552
1608+749006991+748797655+748145966+747375686+746188628+744813072+744321717
1598+745104375+746191280+746801417+747556037+749365861+752034753+754753658
1588+757257796+759756313+762184548+764210970+765824531+767477685+769594157
1578+771751043+772036410+768860628+764362652+761955383+762421921+763518614
1568+762066650+757790513+753111238+750504169+751616902+757030084+764279360
1558+766287406+761464596+755681240+751870631+750144983+749685706+749387521
1548+749272970+750900550+755445382+762388895+770500016+777784466+779676636
1538+775103008+770031773+768615298+770390012+772399637+773082774+773946513
1528+776715874+781549545+787741533+794873985+802271406+808192109+812118974
1518+815857658+820031558+823227610+825124768+827585082+832526610+840570163
1508+850576296+857913285+857878048+854247853+853120344+856674508+863936098
1498+871398626+875316145+875911694+876763310+880123168+885576764+891167961
1488+895089647+897067193+898237138+900463046+904972957+910718361+915346359
1478+918437080+921895828+926818349+931556920+933841934+934476257+936361291
1468+940429923+944528046+945332174+942384167+939040665+937947382+939130209
1458+941166419+941648239+938763381+933282947+927298085+922971998+921562596
1448+922057424+921874168+919920808+917562858+916355719+916568149+917900069
1438+920368718+923375451+924715328+923310472+921094037+920400671+921701332
1428+923835864+925785941+927245925+928203503+929229723+931025529+932841226
1418+932600569+930107671+927527629+926306723+926633010+928361941+930919629
1408+933160629+934161084+933659310+932116601+930920197+931400376+933334792
1398+935460167+937618570+940356924+942487794+942103916+939617333+936754893
1388+933988564+931161928+929606275+931335649+936516382+943244687+949457892
1378+954418807+958637669+962909448+967142455+970275422+971750120+971946132
1368+971226243+970169207+970261719+972738577+976918098+980968985+984029395
1358+986339163+988152145+989323606+989777641+990142574+991225437+993172799
1348+995652119+998436509+1001471407+1004741531+1008297717+1012071069+1015822761
1338+1019541679+1023343952+1026880815+1030039293+1033427315+1037651545
1330+1042683628+1047234017+1048957139+1046915877+1043550588+1042562383
1321+1045685941+1051780933+1057478850+1059266951+1056793061+1053189957
1312+1051555052+1052194490+1053381674+1053780644+1053723432+1055022894
1304+1059413202+1066305502+1072206061+1073741823+1071465334+1068571888
1295+1066345286+1063228800+1058058170+1052302158+1048441282+1047084735
1287+1046131577+1042749175+1036460003+1029807982+1025813106+1025175942
1278+1025696282+1024020395+1018283074+1009800705+1002108003+998304150+998611618
1268+999676296+997388377+991110760+983618301+977129012+971341299+964917053
1258+957392514+949660850+943424090+940073894+939430036+939139618+936219965
1248+929549631+919976884+909016520+898458030+889730457+882607414+875511841
1238+867520069+859271095+851978879+846363875+842349803+839311369+836707836
1228+834559221+833243594+832863947+832915855+832584833+831510431+830213495
1218+829595528+830227640+832185547+835175863+838598111+841873919+844970323
1208+848366996+852323288+856520364+860508167+864141203+867804804+872185640
1198+877431922+882743561+887061818+889842482+891088647+891435898+892308668
1188+894903108+898518337+901033778+902124030+904566978+910838785+919555181
1178+927148424+932933738+939901184+950466304+963675372+975945490+983830415
1168+987109507+988746748+990802976+992047120+990724357+987502857+984914100
1158+985341171+989705589+996883634+1003417631+1005410522+1002730643+999739823
1148+1000144602+1003132518+1005441844+1005591252+1005357604+1007757611
1140+1013128231+1017554787+1017481724+1014782711+1013869905+1016407386
1131+1021087671+1025958979+1029874856+1032450667+1033608361+1033805825
1123+1034425182+1036557756+1038583042+1038087203+1036120393+1035615145
1114+1036973271+1037349570+1034239716+1029528615+1027767793+1030247556
1105+1033336508+1032631018+1028848446+1027164602+1029637924+1032054539
1097+1030462891+1027553910+1027683111+1029575281+1028744252+1024259474
1088+1019163043+1016176137+1016411617+1020149732+1025456257+1028338020
1080+1026998523+1023366370+1018835430+1011918313+1001704297+990848759+983675639
1070+982330332+985585617+990115799+992402455+991518255+988986774+985764326
1060+981925237+978661554+977584815+978595880+980401915+982020528+982577999
1050+981382037+978869500+976185643+973967502+972406544+971756119+972303045
1040+974877088+980619461+988396718+993561917+993238599+990539144+989022263
1030+987997117+985218663+980667264+975783705+971904706+970734888+973229996
1020+977926825+981900736+983270229+982388365+980798359+979632456+979145963
1010+978756023+976748040+970973461+961000481+948953149+937891306+929756694
1000+924128682+918594003+911226577+902925064+896365744+893017569+891848887
990+890567612+887901183+884340640+880576824+876256672+871226042+866693208
980+863808539+862093121+860074908+856909356+852932415+849032325+845783418
970+843046200+840440962+837923121+835552857+833135295+830606529+828671103
960+828185683+828772708+829299489+829990898+832341523+836683145+841653532
950+846172158+850287204+853968802+856907904+859813601+864284360+870950969
940+878753549+886315976+893429042+900667077+908037282+914824440+920823384
930+926767010+932702363+936986204+938209131+937424073+936635859+935785380
920+933076642+928289132+923818499+922038796+923382713+926409655+929104374
910+930200499+929571985+928635499+929364291+931873418+934020012+934010981
900+932424638+931288540+932412577+935968446+940374542+943816493+945743836
890+946528956+946509949+946589894+948963063+954867474+962049940+966392508
880+966042794+962513636+958572184+956279087+956270499+958141893+961072281
870+963665710+964481457+963847261+963732142+965062483+966387772+966326519
860+965906647+967439693+972565741+980716519+988876328+994701677+998520054
850+1000623264+1000334867+998387632+996269771+992735245+986439190+980163216
840+977828504+978817782+979287730+978856871+980817619+986865250+995292428
830+1003277948+1008981926+1011256963+1009704909+1006450761+1004999744
821+1006991119+1011227978+1014481116+1013223332+1008380062+1005807787
813+1009672072+1018536235+1027439044+1032835933+1033994575+1032023407
804+1029816823+1030263280+1034406679+1040105291+1042496267+1039871453
795+1036294681+1034357803+1030904107+1021556230+1007301808+993692381+984401337
785+979568739+977658257+976303856+973230375+967299631+959175375+951280599
776+946214100+945468258+948898968+954288911+958213440+959028240+958633248
766+960123859+964380420+970067286+976111886+982286634+987759175+990937482
756+991318644+990492793+991291680+995342378+1000417970+1001434907+997382188
746+993757108+993464859+993368684+991810441+992346442+997754004+1004575641
736+1007226157+1006411104+1007699641+1012970108+1018569387+1020385085
727+1017260896+1013136567+1014482063+1022484065+1032526381+1038794715
718+1038015657+1030799028+1018455405+1004223654+994627605+993384282+998157142
708+1005221141+1013599821+1022030914+1026070814+1023736797+1018901736
700+1015159706+1010061128+999508069+988522193+985882918+991940653+998601452
690+998704509+993730586+990219425+991700816+995677947+996577618+993676278
680+990748795+988116909+982261690+975060280+972723043+972727021+965324232
670+947787372+930620118+927488414+936398611+945933470+951198759+953403891
660+954486691+955216494+955168628+951945675+943283270+931481837+923088380
650+923907222+935696846+954905110+971788388+974596331+960611363+940647658
640+929701565+935370244+950834647+960544426+959233029+953143657+948984028
630+947201863+943681293+935487447+922751359+912266816+910360627+913779150
620+914128359+907651510+899584087+898406438+905135058+911838861+911984102
610+909451042+911540297+920334996+932928370+942607459+941179491+927039052
600+909138838
##END=
