##TITLE=<SNM>
##JCAMP-DX=4.24
##DATA TYPE=INFRARED SPECTRUM
##DATE=29/4/2025
##SAMPLING PROCEDURE=Instrument type and / or accessory
##ORIGIN=Admin
##XUNITS=1/CM
##YUNITS=ABSORBANCE
##RESOLUTION=4
##FIRSTX=4497.3318
##LASTX=599.83466
##DELTAX=-1.4281778
##MAXY=2.2082376
##MINY=0.64486432
##XFACTOR=1
##YFACTOR=2.0565816e-09
##NPOINTS=2730
##FIRSTY=0.6562466
##XYDATA=(X++(Y..Y))
4497+319095829+322184424+325495923+327486549+327346709+325239719+322297282
4487+320067580+319485150+320531182+322583947+324429777+324556430+322559630
4477+320080216+319277317+320275702+321245308+321070689+320234286+319109422
4467+317626422+316391367+316053896+316169941+316212400+316615545+317644449
4457+318483315+318337882+317482525+316709274+316523845+317117897+318410512
4447+319979357+321375323+322444193+322956225+322349711+320664907+319105509
4437+318684743+319073861+319547085+320115488+321072022+322194974+322812299
4427+322318758+320768345+319188167+318725405+319348266+320082216+320398066
4417+320541645+320612709+320239735+319354207+318571567+318491865+319052124
4407+319675535+319645248+318528325+316910992+316297725+317425139+319297112
4397+320659168+321402508+321701636+321174649+319795435+318457115+317953720
4387+318092691+318068577+317408243+316534974+316405481+317269156+318007743
4377+317554256+316499355+316283059+317435109+319313545+321000378+322003545
4367+322249490+321699346+320228780+318035769+316030565+315423674+316738837
4357+319238046+321502990+322761261+323087805+322515983+321226064+320229707
4347+320326885+320586133+319487207+317565820+316960030+318237023+319430228
4337+318550381+315980020+313820368+313561265+314890137+316505499+317551677
4327+318051594+318222445+317800606+316428145+314659901+313903721+314791771
4317+316345459+317432298+318007164+318243399+317690096+316213821+314774468
4307+314498063+315655446+317717021+319699387+320586828+320098562+318936368
4297+317961082+317449919+317331903+317623669+318271425+319110320+320143803
4287+321250757+321881269+321641816+320716148+319352294+317722644+316370123
4277+315910056+316417219+317525737+318713233+319473354+319865485+320521560
4267+321415435+321454068+320051350+318142946+316928149+316484081+316154059
4257+315786707+315992540+317178325+318772299+319727211+319700460+319334644
4247+319355337+319785813+320183654+320452408+320938037+321561709+321537856
4237+320404906+318791253+317519970+316482487+315199727+314165867+314520872
4227+316292073+318040117+318647761+318425090+318104110+317946040+318009859
4217+318342171+318655355+318378428+317525882+317177253+318270469+319961011
4207+320232634+318632980+317109550+317403837+318961844+320031931+319917857
4197+319377045+319161300+319122638+318854029+318389412+317925375+317468613
4187+317030747+316760747+316860070+317373899+317864049+317575500+316387338
4177+315261488+315269661+316560421+318394339+319775901+320251879+320309032
4167+320596508+320924125+320581350+319367597+317882742+317014082+317236667
4157+318225923+319243900+319861776+320026251+319792972+319453820+319440488
4147+319751556+319880324+319413882+318405672+317192382+316171332+315669995
4137+315760275+316329026+317431892+319250276+321495310+323162783+323262888
4127+321762180+319690113+318399295+318495720+319300503+319729645+319697851
4117+319961098+320777416+321586981+321867328+321590025+320892737+320033583
4107+319561895+319759294+320170148+320313408+320276514+320046509+319166372
4097+317733193+316777383+317025327+318106341+319186747+319823055+320085549
4087+320139485+319965243+319652088+319770075+320780430+322177237+322897217
4077+322335133+320583553+318442247+317234377+317531476+318316377+318408947
4067+318016438+317859643+317846283+317591527+317416271+318002208+319300706
4057+320309206+320174293+319226424+318376341+317944504+317851152+318262730
4047+319185935+320011209+320173076+319904235+319866645+320212839+320357143
4037+319671767+318223923+316786628+316282857+317181224+319072585+320827295
4027+321456503+320801124+319455124+318331998+318122137+318726738+319397304
4017+319796826+320331319+320950818+320693280+319177183+317531940+316981071
4007+317354306+317704993+317729310+317925144+318638197+319522450+320003558
3997+319898960+319493497+319175183+319096206+319137216+319127130+319143563
3987+319449762+319975242+320156701+319559489+318401005+317363233+317161950
3977+318126165+319746745+320851234+320684093+319620034+318626720+318399614
3967+319000013+319961765+320798573+321479602+322147530+322467756+321859213
3957+320416875+318968828+318165524+318079040+318649732+319726689+320564222
3947+320308249+319272825+318673179+318993579+319552563+319820911+320122182
3937+320799443+321837969+323337662+325202505+326316530+325465810+323362269
3927+322123271+322745494+324180847+324868715+324626161+324500929+325142483
3917+325798876+325051362+322680603+320139340+318960047+319407419+320991886
3907+323807641+328228151+333240655+336608031+337551901+337080125+335462271
3897+332328405+328612457+326204890+326151070+327535211+328217630+327776634
3887+328031737+329832268+331659955+332384660+332669673+332289279+330009553
3878+326858617+325450566+326732862+329855483+334082187+338402331+340335601
3868+339028785+336913795+335812407+334871725+333118465+331454963+330947394
3858+331944533+335405088+342407552+349377411+348492057+340631453+332627445
3848+328005595+327146731+328930945+331821213+335093528+339127383+343647679
3838+346375270+345543765+342695028+340136173+338218699+336197119+333906960
3828+331766668+330450839+331484380+336520736+343984745+347778220+345193687
3818+340824940+337847231+334913663+330908848+327430439+326339919+328303128
3808+332468535+336463177+338862571+340753527+342892022+343844789+342673118
3798+340381219+337625429+334650474+332363184+331490147+331801592+332924544
3788+335029592+338019329+340792914+342588489+344419654+347550969+351224342
3778+353600811+354625425+356158159+360053595+366662478+373843212+378139996
3768+378848181+378524418+379045290+380441313+382644555+385792651+388965353
3758+390694529+391453056+394087381+401613614+414004513+425408850+429444329
3748+428589291+428843843+431675480+433726100+433204881+433177579+437028788
3738+445626037+456309727+463815934+465281950+463175539+461650080+462646871
3728+465662692+468923877+470529936+469808245+467511072+464561709+461729492
3718+460305964+461643704+465911129+471547421+475311074+474324774+469646640
3708+464729343+461922978+462032126+464447837+466953654+467313065+466027522
3698+465675183+467927318+472404575+477679862+482611157+486235289+486978948
3688+484211130+480211126+477805356+477887869+479601597+481768321+484543239
3678+489036524+494193940+495971835+494084038+493155848+494096617+492098687
3668+485069270+477664067+473978811+473654382+474237073+475060318+477590133
3658+481730151+484046046+482554555+480905428+483887947+492019217+499166796
3648+497725849+489238067+480449999+475063187+473452085+474608482+477333725
3638+480456114+482949875+484626766+486246389+488803158+492863822+497185792
3628+498326654+495349931+491333146+489527369+491215478+495229133+498589061
3618+499122047+497817318+496870231+496920023+497459965+498503447+500218393
3608+501428118+500705471+498622564+497020418+496969583+498315235+500906956
3598+504939508+509489279+512240577+512268980+511936784+514086291+518221325
3588+520267539+517555831+512623840+508806164+506446070+504519727+502950446
3578+502457282+503333246+505192408+507246448+508999592+511259291+515426843
3568+520814263+523988356+522988927+519694210+516484120+514374318+513744473
3558+514149125+514211959+513217110+512055727+511878819+512902593+514742974
3548+516749599+517811224+517036640+514920578+512629463+510808325+509687866
3538+509434850+509897177+510191000+509356656+507796302+507182223+508488169
3528+511005058+513421088+514569254+513479632+510521342+507630001+505926706
3518+504680753+503291859+502348192+502193311+502227452+501876707+501048854
3508+499770557+498191654+496904199+496579422+497108525+497583894+497351571
3498+496930978+497623889+500129533+503452190+505356738+504417999+501594708
3488+499399698+499659207+502183109+505131661+506587446+506092137+504382756
3478+502106479+499709984+497830476+496950339+496976539+497659827+498854308
3468+500068786+500650752+500334322+499004958+496673209+493901623+491804690
3458+491415978+492693869+494193940+494037261+491532139+488029849+485919700
3448+486381331+488185543+489076461+487998027+485651236+483678028+483406898
3438+484644880+485945088+486491175+486723729+486792939+485991083+484196117
3428+482458942+481670418+481601092+481418387+480701972+479860584+479616030
3418+480154204+480934932+481334599+481194208+480871721+480912616+481394796
3408+481587847+480638123+478751631+477455364+478186242+480367312+481511334
3398+480024566+477206145+475451464+475506531+476395189+477196378+477872943
3388+478397437+478211196+477115111+475776647+474946707+474877207+475654863
3378+477194030+478796206+479639129+479803952+480221096+481618800+483754484
3368+485621152+486488160+486655157+487005438+488177776+490166663+492055039
3358+492628659+492037476+491815935+492690449+493560443+493351711+492610922
3348+492337038+492399698+492032897+491180409+490527726+490482513+490727066
3338+490826128+490843692+491028193+491230664+491138732+490917307+491109286
3328+491866132+492657351+492802727+492112830+490977706+489990334+489435090
3318+488994557+488182992+487194577+486956400+488111406+490090149+491472262
3308+491517764+490943391+490746716+490738775+489995783+488369929+486717759
3298+486132025+487337518+489952831+492255250+492768296+491969136+491508779
3288+492243367+493625131+494598708+494648731+494075807+493448165+493074350
3278+493317049+494674468+496912024+498802197+499223022+498097867+496155873
3268+494217821+492885095+492542871+493113070+493795490+493711789+492993141
3258+492436158+492130799+491615203+491218202+491681167+492675089+493264417
3248+493309977+493037948+492096890+490267869+488366161+487419886+487471591
3238+487648093+487129657+485884660+484692209+484502867+485543277+487047926
3228+487942960+487718057+486614929+485380598+484964353+485687435+486594642
3218+486497667+485376947+483879456+482322754+481060976+480626791+480778746
3208+480563262+479655244+478524612+477418180+476245466+475132136+474330136
3198+473947162+473987825+474213192+474136707+473665019+473310042+473247354
3188+472775752+471218442+468816613+466359486+464599328+464194328+465291659
3178+466896008+467495944+466625718+465153993+464098135+463816079+464043562
3168+464147695+463660241+462798159+462067687+461474418+460656941+459671047
3158+458980773+458776708+458879683+459140814+459409278+459272626+458405502
3148+457159230+456338420+456280571+456438119+456037873+454922775+453516405
3138+452309491+451740074+452048505+452757472+453016227+452936960+453465309
3128+454428828+454148047+451823399+448980864+447487228+447287046+447098081
3118+446575703+446523534+447098690+447142569+445771267+443734472+442527153
3108+442666761+443355180+443602023+443287564+442936355+442736435+442342709
3098+441557576+440534585+439309586+437893796+436835794+436846431+437708570
3088+438260858+437774244+436765512+436055646+435646560+435069086+434363800
3078+434086815+434583341+435641894+436651292+436952854+436345267+435388385
3068+434973009+435455856+436221658+436180792+434955127+433404569+432661026
3058+432911811+433444304+433566929+433046550+431950726+430608117+429546753
3048+429090077+429068138+428999536+428535934+427829314+427409939+427508074
3038+427681214+427481642+427156981+427114667+427059484+426321940+424901427
3028+423645417+423331509+423849830+424453446+424659772+424551638+424319634
3018+424013261+423676689+423316525+422816839+422082687+421124993+420073859
3008+419298928+419223864+419738649+420087278+419646804+418643086+417853229
2998+417727880+418022834+418195917+417940814+417349341+416756564+416422049
2988+416207377+415696273+414771821+413845892+413431212+413663013+414181392
2978+414412005+414131195+413712544+413561575+413505378+413145098+412535135
2968+411947314+411264923+410295086+409422745+409232504+409668284+410173534
2958+410464053+410610356+410550479+410103309+409472566+409218564+409455437
2948+409493375+408715893+407408904+406235291+405437551+405070199+405368109
2938+406296067+407245617+407576538+407125949+406200338+405397236+405217806
2928+405605446+406042558+406113391+405807540+405406974+405192041+405118281
2918+404828370+404050801+402843395+401501771+400409860+399813228+399619597
2908+399611018+399776682+400156670+400542483+400646385+400430495+400107487
2898+399920811+399936520+399993644+399916000+399721557+399509870+399292821
2888+399050702+398781311+398424161+397899492+397263561+396690666+396326850
2878+396243091+396423622+396705534+396791032+396415478+395627070+394919900
2868+394901148+395690165+396717330+397203741+396845490+396032302+395383850
2858+395104141+394898018+394498931+394067354+393958699+394233800+394500931
2848+394281534+393545555+392739323+392267722+392165240+392248159+392354611
2838+392412952+392389853+392215872+391819422+391260613+390727685+390344190
2828+390053351+389700114+389222426+388803892+388704772+388877623+389008681
2818+389022245+389176779+389490166+389493238+388845742+387854805+387066919
2808+386608476+386244312+385844790+385467555+385184629+385041485+385005895
2798+384867707+384439985+383883928+383522692+383374012+383182062+382838621
2788+382538740+382563085+382959390+383443976+383660445+383490058+383061669
2778+382579025+382201008+381952513+381685238+381252617+380748237+380423953
2768+380374567+380446791+380449110+380360105+380309878+380376538+380421924
2758+380154678+379429393+378508536+377876894+377687958+377567478+377149030
2748+376598915+376290137+376156296+375785235+375039779+374209202+373644480
2738+373511625+373734818+373993138+373968503+373700908+373513045+373613498
2728+373981980+374494649+374909590+374879564+374244966+373251392+372333722
2718+371747959+371455034+371266272+371052991+370846723+370756298+370809278
2708+370895848+370840260+370536669+370079588+369739364+369700527+369790953
2698+369565093+368772222+367745376+367188943+367454943+368096265+368333399
2688+367954455+367478129+367398080+367647821+367923472+368094961+368076325
2678+367735232+367177292+366702995+366348048+365941193+365640327+365820076
2668+366391927+366801535+366738991+366382276+365964147+365543931+365185593
2658+364988165+364931418+364927592+364997381+365206373+365433566+365372095
2648+364856846+364150661+363792265+364048440+364545633+364617596+364045078
2638+363255743+362783707+362775244+363053127+363395554+363608545+363492326
2628+362962180+362236635+361746688+361687042+361712952+361355831+360734188
2618+360453204+360766504+361261465+361462892+361396841+361395103+361567722
2608+361683709+361546420+361261813+361016882+360836931+360731899+360792211
2598+360947614+360930399+360645212+360307133+360137180+360168075+360362489
2588+360711263+361152346+361510655+361632092+361548332+361400725+361227961
2578+360971467+360675238+360529341+360694946+361152984+361692810+362027208
2568+362020311+361818796+361646902+361475326+361067544+360413324+359863383
2558+359698561+359837908+360095938+360407760+360683063+360772358+360646314
2548+360358692+359932854+359490670+359269042+359330020+359484526+359581008
2538+359618772+359574545+359415605+359302835+359475744+359872165+360128253
2528+360054116+359862195+359815852+359881874+359850660+359656217+359448529
2518+359378015+359427256+359545389+359829619+360329449+360754012+360713756
2508+360263775+359864543+359759800+359720297+359464383+359055354+358773733
2498+358819843+359248261+359960329+360631243+360872347+360634866+360293511
2488+360214447+360356635+360392544+360157757+359833126+359652073+359630800
2478+359735310+360079476+360693352+361270884+361419274+361078818+360543948
2468+360140339+359970299+359932535+359894337+359785595+359607295+359451515
2458+359432502+359537129+359677751+359863065+360079795+360111733+359797275
2448+359360191+359210178+359504118+360042466+360495315+360667152+360605941
2438+360483114+360404050+360376372+360379154+360392602+360415585+360458971
2428+360480505+360416106+360327768+360372343+360556062+360708539+360786356
2418+360974858+361364497+361795581+362169628+362589235+362995336+363027362
2408+362537994+361965302+361880181+362337552+362920214+363308578+363561188
2398+363878922+364358726+365039986+366009041+367406427+369451337+372487793
2388+376994119+383592192+392959010+405535917+421298858+439881959+460846369
2378+483695359+507656201+531657560+554933721+577827721+601211407+624390187
2368+644441826+658452376+665684178+667794907+667793864+667014701+662551123
2358+650170137+629992541+605940057+580766709+556120898+535521549+523242697
2348+521764190+530913292+546950812+563164197+574998518+582843239+588493413
2338+592775619+595714433+597181058+597654108+597998767+598384465+597978537
2328+595845028+591844125+586538667+580478856+573833484+566560354+558577039
2318+549919130+540979919+532360498+524297482+516367379+507922839+498781678
2308+489327739+480026537+471120075+462729500+454923181+447670193+440891706
2298+434581486+428834105+423737929+419233950+415156881+411431166+408055269
2288+404929895+402006529+399547257+397854657+396771759+395783082+394624077
2278+393542802+392895422+392646782+392382840+391762095+390825848+389842157
2268+388983090+388252994+387671666+387369148+387392855+387519711+387428185
2258+387014055+386419308+385823343+385308442+384882922+384575332+384447636
2248+384468474+384491051+384461750+384509426+384729374+385013082+385143213
2238+384967870+384517802+384033825+383801097+383866626+383972296+383839238
2228+383475509+383085377+382730632+382311199+381852988+381499287+381203347
2218+380763221+380170618+379629343+379254369+379013525+378937678+379143105
2208+379582942+379949077+379970987+379737998+379564625+379596883+379726724
2198+379830249+379899980+380006317+380288344+380862341+381586321+382093049
2188+382227411+382239352+382419767+382812218+383346711+383937865+384404046
2178+384587708+384584143+384652628+384925063+385297226+385560444+385625190
2168+385617858+385707819+385900407+386096038+386265266+386475939+386820192
2158+387311183+387773829+387940332+387780147+387605963+387717429+388072782
2148+388435931+388708598+388942254+389131451+389214978+389248945+389404812
2138+389783351+390315120+390842310+391292754+391784730+392484945+393346359
2128+394148331+394836605+395602667+396562854+397584309+398517832+399395708
2118+400277381+401084715+401760845+402454220+403326155+404250925+404918505
2108+405188795+405162479+404969659+404682125+404368361+404061119+403707331
2098+403269900+402850612+402613826+402605479+402722220+402833077+402869827
2088+402831367+402762215+402706337+402654314+402588814+402570265+402670254
2078+402841076+402999755+403219963+403649569+404242549+404783476+405202388
2068+405651528+406234074+406860789+407406208+407804223+407972437+407877694
2058+407728927+407875636+408414332+409083999+409640663+410135335+410720808
2048+411417429+412197316+413070120+413953706+414672064+415190849+415682390
2038+416305019+417055083+417838767+418602510+419403004+420328470+421326623
2028+422260928+423197030+424393916+425935055+427617830+429229164+430669907
2018+431874821+432915405+434060180+435458986+436955492+438412552+439975312
2008+441815287+443815043+445686871+447288640+448681911+449922270+450963230
1998+451894405+453131432+455058152+457440272+459495964+460742844+461471317
1988+462167908+462953679+463814456+464888427+466265699+467853760+469571372
1978+471382366+473150958+474742729+476207557+477752434+479680284+482210476
1968+485044779+487389049+488850051+489991435+491615840+493895073+496451204
1958+498936792+501246108+503358576+505316916+507328816+509592340+512017586
1948+514441384+517082317+520292638+523759627+526550167+528333627+529901517
1938+532022738+534591737+537220033+539957942+542958314+545861016+548059388
1928+549532099+551093960+553622674+557089431+560637919+563673534+566219231
1918+568158558+569204707+569690162+570397796+571752027+573649620+575641289
1908+577105016+577750048+577974198+578349693+579022027+579911612+581131423
1898+582848687+584868760+586658422+588023783+589482756+591332470+592724204
1888+592757534+592076390+591930203+592404529+592731334+592656328+592598653
1878+592920531+593675232+594796155+596337786+598631105+601843397+604956279
1868+605890265+603943982+600957347+598845632+597703321+596547909+594827746
1858+592910213+591514421+590932803+590759546+590527861+590394484+590751373
1848+591582646+592495823+592630185+590837103+587400661+584281809+582686966
1838+582129634+581542567+580560934+579891383+580478856+582006112+582659143
1828+581494167+579526205+577317862+574265206+570684489+567981766+566635534
1818+565806290+564811325+564014309+564123399+565121204+566015137+565720270
1808+564259732+562778268+562527049+563989790+566465813+568343872+568482640
1798+567548131+567370122+569175724+572411782+574548190+573394227+570318384
1788+568413256+568893610+570760713+572610369+574073516+575292631+576217227
1778+577231321+579472935+583858086+589796577+594620232+595816509+594234245
1768+592207506+590821105+590542584+591802159+593985808+595564652+596357552
1758+597530933+599163801+600534320+602313375+605992226+611155554+614888254
1748+615363507+614159636+613647460+614712214+616918586+619200833+620536573
1738+621484819+624343352+630219125+635793540+636271691+633013723+629920201
1728+628335444+628151869+628915208+629969529+631486003+635080979+642238759
1718+651596824+657746133+656739401+651182956+645539215+642418682+642850056
1708+646602695+651791992+655628101+657695820+660551860+665544830+670018552
1698+671261316+669954153+666645697+662243620+659523333+660146223+663302057
1688+667798385+674224070+682706983+688265805+685966690+679809788+675468516
1678+675056038+678189962+682609081+686075954+689283377+693668354+696975592
1668+695470653+691098312+688856872+690077494+692010272+692141736+691650021
1658+693050565+697861874+706887337+717990316+722643786+719119991+716479116
1648+718530200+721643604+720068991+714568887+710137886+709642345+713840907
1638+722166504+731483125+735619027+732666707+728309843+726741026+728048712
1628+730953674+735096127+741342063+749469131+756739015+761405875+765734047
1618+772257171+779094580+781698357+780522600+779706050+781198527+784168700
1608+786542184+786812010+785255946+783552825+783256451+784574454+786359189
1598+787435885+787954670+789172510+792096021+796508821+800896349+803392544
1588+803565569+802895380+803021280+804453763+807014125+810473173+814901277
1578+820601880+826268111+828285691+826616653+825840737+828174978+831269080
1568+832151594+831789198+832658206+835936230+842958025+856121130+874103890
1558+883449377+876265686+864218577+855980623+853282189+854746263+857682643
1548+860327518+863033835+866740683+871160033+875013589+876050115+871308017
1538+863200600+857928761+857282802+858622310+858011941+855057766+853105165
1528+854528026+859034729+865200500+872421752+879580228+883337679+882739888
1518+881556943+881829899+882198845+882174731+883517428+887989236+896230842
1508+906683804+912279549+906722466+897137411+891459181+890850667+893917815
1498+898033894+899544862+897454768+895601055+898131391+905576213+913625201
1488+916511905+914509744+912229236+911861217+912806391+914731923+918066289
1478+922173673+925768822+928798989+931241103+930787238+926650756+923186259
1468+924179544+928704680+932473608+932837163+932087446+933371482+937381311
1458+942275799+943835689+939458711+931602803+923985999+919203036+918286671
1448+919494483+919458255+917255651+914625442+912774510+911923472+912480049
1438+914608632+916581115+916057114+914026724+913333755+914842578+917177399
1428+919095743+920858220+922139763+921031245+917428097+914793482+916171942
1418+920199798+922927447+922929128+921443606+920183220+920343377+921712737
1408+922853078+922388142+919801001+916132874+914049098+915798591+921290348
1398+928109961+932811079+932828120+929215929+926223498+926298214+927908476
1388+928025507+925491576+922394171+922126258+926196950+932827135+938770089
1378+942590026+945013185+946687150+947431418+947536102+948200784+950278358
1368+953574119+957463961+961480167+964805316+966194848+965706610+965182493
1358+966274086+969204321+972710262+975204255+976838746+979135078+982632209
1348+986011208+987457313+987145230+987610456+990871090+995989728+1000476086
1338+1003948407+1008112481+1013055485+1016346841+1015761165+1012130715
1330+1009391880+1010871372+1016001139+1021918763+1027011201+1031805467
1321+1036887355+1041315284+1043816580+1043551681+1040652515+1036741747
1312+1034151649+1035706844+1043075906+1054615997+1065763088+1072392171
1304+1073741823+1071881154+1069860386+1069685100+1070886478+1071622051
1295+1070668415+1068297771+1065833805+1064179838+1062709039+1060397984
1287+1057470067+1054083301+1049535733+1044238448+1039711515+1035988901
1278+1031864939+1027680114+1024770978+1022700708+1019939730+1016588322
1270+1014509937+1014764055+1015792930+1014501127+1009588148+1003503006
1261+999960663+1000151946+1001830490+1001558636+997620857+990990382+984081792
1251+978925014+975536973+972018453+967113300+961400813+955602481+949467257
1241+942617501+935233253+927630071+919712141+911036379+901748277+893199168
1231+886781540+882113405+877201817+870784595+863943129+858841359+856187210
1221+854511390+852174946+849401911+847435804+846490746+845715293+844664218
1211+843777009+843592565+844206528+845390111+846938234+848921035+851598602
1201+854837326+857740144+859512823+860892037+864022250+870246624+878104039
1191+884209411+886526379+886322981+886635990+889101232+892698410+895628008
1181+897888576+900819971+904466071+907720736+910743888+914946798+920760434
1171+927427774+934751391+942936192+950826705+956381063+959211947+960890607
1161+963203170+966957606+971769204+976441455+979503966+980281737+979680874
1151+979180870+979268165+979823468+981243373+983907318+987428215+990885234
1141+993301206+994620020+996375425+999694720+1002620203+1001739254+997390968
1131+994572141+997062192+1002979932+1006581515+1004708905+1000536949+999666318
1121+1004191975+1011301471+1016157876+1016632144+1015166099+1015362020
1113+1018056222+1020462224+1020226887+1018516579+1017364123+1017369688
1104+1017728374+1016778795+1013886236+1011096160+1011386563+1015798610
1095+1022376685+1028446872+1032969979+1034104234+1029356108+1019904487
1087+1009225637+999951968+994554172+995609595+1003019348+1011471076+1014822599
1077+1013904205+1013649856+1016712483+1022345848+1027617280+1028823991
1068+1023227724+1012101385+1001677232+997370912+998003076+998003888+994495048
1058+989552739+986382182+986186609+987992791+990206466+991636805+990877119
1048+987843242+984782122+984114252+985916725+988261168+989660786+989276943
1038+987002173+984478503+984162131+987262087+991359502+991388948+986559323
1028+982012913+981488332+983531474+984744677+983491131+980373785+977621270
1018+977714477+981174395+985307979+986205853+982719156+977276843+973259768
1008+972377834+973431344+973731718+971760915+967252763+960506474+952618628
998+944466056+935856490+927188553+920048046+915132981+911496735+907918975
988+904184478+901074205+899396472+898506887+895874590+889943519+882843703
978+878307496+877912466+880035020+881284045+878910097+873089796+866623768
968+862093009+859960891+858861704+857331376+854819589+851731689+849383362
958+848997549+850145483+851070369+850977336+850698931+850875723+850898388
948+850428177+851218295+855747663+863868470+872140681+877316704+879638251
938+881610850+885017962+890111674+896304805+902869953+909400381+915782361
928+921708795+926582184+930163595+933135507+936574036+940407942+943118027
918+943190889+940661422+937334997+934940646+934390966+935353472+935256381
908+931483453+925641705+922900319+925752244+930926528+933526306+933056733
898+932855016+934869060+938180703+940924176+942114541+943010734+945970764
888+951092995+955758406+957631306+956462678+953494881+951020945+951041812
878+953060725+954995126+956106368+956936134+957938229+959403926+961598241
868+964298588+966555099+967136428+965509588+963399033+963233891+964490451
858+965407918+966631844+969244201+970499370+967530704+964111941+965886997
848+971970922+976559819+976490261+973442473+970960596+971849196+976258982
838+981486361+984453578+984812960+984534729+984979666+986485591+989278334
828+993064941+996171389+996505498+994211716+991502211+990142357+990538720
818+992443095+995113532+998061737+1001860168+1007116298+1012723231+1016840701
808+1019668802+1022998647+1027506104+1032706819+1036567042+1036450764
800+1033087532+1031614183+1034273491+1036962245+1036410884+1033534556
791+1030472625+1026717087+1019323216+1007738608+995803081+988195436+986222547
781+986274136+983497971+977357067+970982854+967951934+969736032+973911524
771+974698454+968723851+960589132+958592246+965288510+975200081+981181930
761+980841561+976939025+973984328+974649300+978348960+983175339+988652546
751+994140767+997086305+995642171+991793426+988963933+989773469+995664429
741+1004235681+1008520437+1004180962+996016623+990699631+989348819+988623216
731+984870809+980254262+980834605+986700061+990958269+990240202+989132379
721+991138540+994564258+998940135+1005469867+1010575404+1008181923+998965871
711+992810128+995971295+1002712714+1005258064+1002337450+996354790+990789244
701+988788996+991280322+995162107+996151334+994866950+994155143+993108415
691+988667270+981472102+976927316+980095091+989429274+995867886+992504654
681+985033458+983180788+985323861+981284064+969567296+959526986+953631620
671+944352967+928923381+919017433+928958102+953728074+978722949+995025426
661+996701999+985103595+967572439+953266732+944696698+938684359+934661662
651+936186020+944357372+952606687+953685643+948642708+944366415+947195733
641+956257946+961508048+955692906+946080723+943747293+950643826+961902904
631+970428073+969785534+959355526+945491453+938655261+938878889+935881183
621+925813049+916820104+917219307+926123450+940260306+952176472+948203103
611+928372194+909163769+906144673+919571460+937348735+950149386+956867620
601+954607051+941322742
##END=
