##TITLE=<SNM>
##JCAMP-DX=4.24
##DATA TYPE=INFRARED SPECTRUM
##DATE=29/4/2025
##SAMPLING PROCEDURE=Instrument type and / or accessory
##ORIGIN=Admin
##XUNITS=1/CM
##YUNITS=ABSORBANCE
##RESOLUTION=4
##FIRSTX=4497.3318
##LASTX=599.83466
##DELTAX=-1.4281778
##MAXY=2.1094389
##MINY=0.52019376
##XFACTOR=1
##YFACTOR=1.9645681e-09
##NPOINTS=2730
##FIRSTY=0.52807182
##XYDATA=(X++(Y..Y))
4497+268797926+269346045+270194741+270278964+269813521+269499140+269496621
4487+269599777+269579419+269065766+268133332+267993920+269632149+272030725
4477+273289493+273084912+272477721+272085427+271989614+272363340+272855240
4467+272505300+271409911+271175930+272658941+274516041+274996867+274122170
4457+273093104+272516860+272163856+271656210+270787277+269789067+269334789
4447+269894923+271139037+272199111+272523959+272424596+272583911+273085944
4437+273287885+272682303+271546744+270603721+270262884+270463036+271125627
4427+272290585+273705179+274757122+275029209+274651145+274080362+273686399
4417+273358092+272501599+270846288+269128205+268393860+268841676+269798290
4407+270463187+270416009+269901992+269652477+269870105+269731148+268641645
4397+267382148+267012791+267378325+267738732+268160971+269245377+270902811
4387+272266950+272771107+272630816+272081483+270808667+268743466+266864885
4377+266373774+267455571+269339249+271086913+272022533+271926416+271091616
4367+269855329+268229630+266450078+265342311+265417250+266156298+266763185
4357+267226839+268169618+269849898+271496895+271786246+270394862+268664764
4347+268008787+268257816+268308757+267796469+267410850+267924260+269286063
4337+270491525+270535791+269583575+268526354+267562185+266269921+264952232
4327+264787851+266319678+268493648+269821773+270132605+270385912+271019802
4317+271467951+271214765+270291373+268846378+267261305+266480631+267164308
4307+268630207+269535638+269554661+269595135+270406604+271541343+271781513
4297+270456513+268231602+266534332+266228932+267050291+268240067+269234576
4287+269795196+269910608+269501992+268338611+266692827+265640551+265899805
4277+266915036+267792069+268454479+269232483+269994801+270325172+270161488
4267+269922016+270145560+270879359+271385488+270837854+269373320+268095377
4257+267852051+268291615+268466190+268136123+267973259+268541190+269499291
4247+269991130+269664188+269026293+268855086+269523533+270830936+272113674
4237+272591890+272063279+271078267+270161458+269347137+268636669+268184181
4227+267901687+267607148+267511608+267885607+268500959+269048047+269677507
4217+270536579+271330087+271758910+271770652+271266282+270273776+269264673
4207+268640583+268279115+268045832+268178659+268773775+269434243+269739704
4197+269749382+269814037+270002811+269972107+269466555+268616281+267671408
4187+266984848+267203962+268691402+270703721+271847290+271423473+269892738
4177+268291736+267567433+268036730+269202477+270359880+271336519+272314705
4167+273201114+273656059+273499354+272744378+271644529+270859911+270961731
4157+271666374+272168255+272098261+271523352+270493982+269290129+268507695
4147+268335243+268319649+268219831+268476172+269415493+270473837+270782241
4137+270398746+270286124+270946561+271798625+272175537+272178540+272130330
4127+271954238+271558303+271138916+270724019+270092647+269472956+269564583
4117+270462641+271338764+271604571+271576841+271604966+271503236+271208546
4107+271069468+271170712+271179905+271092041+271392071+272276174+273319924
4097+274072109+274364797+273855877+272120530+269629570+267780935+267456177
4087+268173198+268919255+269268375+269423442+269612823+269765038+269697805
4077+269495195+269432786+269537186+269591251+269473715+269175080+268730177
4067+268376020+268464885+269026931+269735547+270297168+270510791+270201112
4057+269576718+269368648+270089067+271302083+272054299+271979147+271542436
4047+271246228+271158424+271162975+271111458+270820348+270309759+269888824
4037+269790311+269910274+270060578+270292678+270783364+271398776+271583243
4027+271010336+270236792+270138248+270713461+271127235+270961701+270707787
4017+270870682+271212429+271172350+270648321+270086488+269936427+270279874
4007+270972077+271833425+272667345+273307455+273681454+273674991+273122989
3997+272236884+271672715+271745561+272008819+272042557+272086884+272480270
3987+273108638+273680543+273980604+273806757+273144773+272355088+271863340
3977+271842982+272254238+272865009+273274293+273163371+272508546+271587733
3967+270839280+270540979+270608879+270878418+271456938+272475264+273616162
3957+274255999+274065677+273335519+272737369+272764675+273337977+273922746
3947+274031181+273637977+273130149+272960762+273321047+274019045+274686460
3937+275079058+275159458+274956394+274575568+274384700+274699264+275137431
3927+274951691+274077024+273194712+272750962+272663037+272914160+273619227
3917+274606575+275390132+275518378+274972686+274269682+273840556+273390980
3907+272548716+271905421+272488674+274305362+276362462+277959490+278826329
3897+278612858+277320048+275735824+274938159+275351175+276291680+276994623
3887+277553209+277991347+277770989+277136462+277274386+278253058+278380303
3878+276786370+274864403+274267073+275074082+276291862+277204605+277440861
3868+276869926+276168894+276410763+277665072+278734581+278675237+277555728
3858+275953087+274929331+276292468+280787980+284955216+285379063+282887799
3848+279686190+277491377+276993470+277703998+278773568+280026754+281632398
3838+282970506+282980579+281906640+281087616+281178120+281555487+281496355
3828+281161979+280923994+280829425+281257489+282760494+284457400+284750513
3818+284144475+284342837+285391654+285728365+284765652+283446416+283027059
3808+283993261+285264500+285409312+284923055+285414287+286953396+288017930
3798+288310041+288767748+289690776+290685103+291636469+292681039+293655948
3788+294431768+295335773+296717327+298580890+300957985+304089237+307832624
3778+311432687+314466366+317505384+321443979+326595620+332457000+338198205
3768+343431490+348218477+352418206+355648062+357906376+359852797+362373976
3758+365704408+369186904+372265304+375319765+379451867+385077810+390735459
3748+395182094+399356671+404710011+410297150+413960501+416372699+419873763
3738+425776648+433386300+440583179+446054602+450525812+454902543+458681186
3728+460808736+460923572+459497176+457211070+454613071+452346869+451097232
3718+450900660+450836310+449987128+448795896+448915586+451111006+454047385
3708+456169747+457155397+457335676+457230063+457448024+458188832+459211648
3698+460538954+462500939+464921754+466892052+467808831+468179674+468878158
3688+469660652+469489141+468629553+468704887+470740052+474001552+477232167
3678+480094213+481811508+480403133+476383168+473063354+472599701+474340418
3668+476158228+477160049+477528556+477172185+475852069+473888354+472014082
3658+470626338+469616568+468880039+468615688+469116871+470478765+471703341
3648+471078826+468728188+466550122+465894448+466872362+468860864+470843875
3638+472092358+473120787+474982317+477584503+480082563+482564876+485419277
3628+487448283+487591547+486843185+486449617+486735630+487685388+489354503
3618+491534874+493657843+495175956+495793159+495700441+495992795+498043403
3608+502017647+506258547+508681212+508650448+507168742+505915343+506205483
3598+508366528+511959066+516204699+519921085+521892445+522199059+522478064
3588+523959072+525674850+525949789+524548757+522597846+521854399+523591293
3578+527142569+530068663+530467753+528553553+525834316+523909072+523942628
3568+526195603+529790083+533166541+535043787+535110170+534054769+533129041
3558+533090448+533470606+533335412+532531650+531768846+531648761+532007681
3548+532103191+531546576+531277705+532472123+534674430+535838811+534432985
3538+531404222+529061927+528416842+528869208+529820119+530931952+531302037
3528+530411442+529436624+529550823+529894027+528959742+526984256+525452520
3518+524998150+524922180+524475881+523880007+523856584+524584497+525617326
3508+526461865+526703188+526366658+526539231+528341113+530991236+532451916
3498+532145909+531472608+531696091+532716540+533674187+533746517+532542026
3488+530484986+528729706+528255312+528891235+529232861+527869815+525034619
3478+522493902+521500272+521666777+521980430+522083768+522243780+522522906
3468+522358707+521135042+519155672+517746630+517958948+519285526+520402942
3458+520792080+520819386+520738864+520182614+518811921+517205428+516454457
3448+516671629+516474178+514645414+511830122+509633761+508882001+509386370
3438+510479939+511476663+512239345+512916773+512758581+510692136+507315223
3428+504499717+503103357+502615736+502591100+503059243+503824929+504411884
3418+504645864+504726811+504701690+504224596+503272290+502757575+503620227
3408+505494682+506971169+507036855+505929208+504970076+505415555+507000417
3398+508073506+507567528+506095986+504731817+503849262+503605178+504334790
3388+505813856+507092771+507722049+508219653+508686218+508366497+507231363
3378+506202934+505638098+505191860+504886034+505054360+505630574+506425932
3368+507838645+510387524+513349479+514889589+514446992+513905062+515267320
3358+518156824+520545539+521234192+520640563+519823815+519490987+519486012
3348+519145295+518434798+518302334+519523876+521519022+522714533+522047117
3338+519762832+517116532+515712223+516551423+519298633+522653974+525253551
3328+526020481+524500820+521538197+518895841+517682491+517661314+518104397
3318+518493596+518424725+517755246+516977030+516923146+517967868+519675089
3308+521135466+521552639+520706340+518960951+516917078+515128667+514075936
3298+514147781+515276665+516671811+517414833+517421933+517366775+517684069
3288+518388317+519799847+522345540+525336682+526910651+525960166+523559254
3278+521683404+521259374+521975030+523132494+524203065+525003672+525642750
3268+526265445+526946028+527622848+527734438+526444086+524012167+522129884
3258+521970115+522888441+523752640+524290444+524255492+522921996+520483039
3248+518515319+518259676+519403548+520700333+521182736+520921146+520775515
3238+521183343+521637833+521763561+521952457+522418234+522739897+522705552
3228+522497360+521938076+520789471+519614410+519096145+518772116+517540562
3218+515314832+513278363+512440620+512612889+513038435+513479759+514093230
3208+514569868+514235281+512927816+511002998+508668712+506179573+504314857
3198+503718892+504121471+504813553+505392436+505685064+505598777+505325992
3188+505096502+504672927+503716465+502559334+501898533+501793709+501651263
3178+501083727+500226505+499325898+498451413+497482056+496141036+494293644
3168+492332872+490943764+490379625+490323678+490423739+490512058+490419947
3158+490020493+489461936+489101408+489035965+488745886+487518459+485370156
3148+483207352+481962630+481800828+482068365+481920943+481123067+480129134
3138+479395002+478951889+478676979+478550614+478553163+478617665+478693211
3128+478673035+478341785+477572276+476504345+475431650+474580133+474027675
3118+473770272+473695787+473467996+472723305+471513626+470373486+469817660
3108+469824760+470005949+470189505+470361896+470101065+468898485+467166901
3098+466033739+466027731+466623059+466901002+466212228+464559951+462779034
3088+461959434+462327032+462947602+462789046+461832857+460892504+460628426
3078+461105732+462091989+463302214+464394326+465097148+465280856+464822664
3068+463786862+462681552+462066291+462031764+462307675+462507827+462116777
3058+460784949+458936496+457662345+457616805+458155822+457917017+456419504
3048+454614467+453605516+453540073+453908581+454271688+454414679+454195929
3038+453613071+452908519+452413100+452204180+451955879+451324659+450474264
3028+449946867+450045714+450466831+450506576+449746351+448605817+448011976
3018+448423717+449350902+449892953+449614555+448776660+447840647+446987187
3008+446100385+445051840+443936518+443020680+442424321+442005631+441682664
2998+441599411+441766220+441876596+441640825+440970740+439883786+438673803
2988+437976928+438068463+438298621+437801776+436600956+435541035+435290458
2978+435740762+436219736+436152746+435633146+435246314+435246283+435231811
2968+434805719+434166914+433748345+433620524+433530839+433190518+432372465
2958+431152379+430080898+429678622+429826408+430017427+430026165+429993702
2948+430052621+430121129+429993246+429565364+428949375+428303076+427720066
2938+427375345+427374070+427377893+426955563+426291333+425900071+425782474
2928+425558020+425172431+424818820+424482321+424027224+423423613+422651920
2918+421719304+420862325+420391118+420277829+420174855+419884412+419586293
2908+419529254+419722246+419956166+419922307+419403860+418503981+417583653
2898+416926462+416608136+416620576+416850218+417036777+416969999+416618330
2888+416072335+415521971+415154161+414926248+414598427+414071879+413608499
2878+413651551+414357983+415279859+415647456+415070362+413896302+412857558
2868+412405464+412394178+412417418+412318874+412129918+411656859+410610773
2858+409203248+408200001+408198271+408974759+409672817+409677034+409143721
2848+408536227+407971997+407374545+406945449+406988501+407360498+407526153
2838+407212106+406663319+406179520+405807615+405587226+405647997+405906068
2828+405977245+405594872+404966413+404521388+404333555+404006613+403265957
2818+402412892+401904033+401724876+401544567+401267261+401017382+400753759
2808+400292472+399648934+399098540+398888861+398991167+399120870+398986464
2798+398585190+398222356+398144777+398245596+398253727+398082065+397777999
2788+397264498+396430608+395401997+394435309+393639920+393044289+392750084
2778+392773840+392970503+393269593+393583094+393412675+392253573+390556333
2768+389480361+389486126+389874931+389910732+389769803+390021866+390636764
2758+390939525+390442710+389370592+388257515+387376052+386784698+386573321
2748+386683394+386714158+386282756+385464643+384676718+384265553+384247652
2738+384320164+384168678+383838034+383633878+383646378+383636123+383377992
2728+382877900+382321225+381959878+381916158+381997985+381833846+381283421
2718+380649228+380351018+380353233+380160605+379538366+378854263+378467764
2708+378291915+378243250+378518826+379062455+379338699+378997285+378289639
2698+377608874+377047436+376538637+376049529+375530445+375008388+374717945
2688+374823830+375110329+375223042+375067338+374745796+374349073+374012058
2678+373878836+373844158+373633266+373246797+372998921+373009509+372978805
2668+372616973+372083174+371797585+371883477+371966396+371591638+370765394
2658+369966213+369625163+369710448+369899556+370038118+370190333+370277074
2648+370035843+369437117+368782414+368283384+367897704+367648827+367696764
2638+367973524+368117759+367923008+367584628+367382109+367310750+367147856
2628+366770732+366297188+365958990+365883808+365965847+365975919+365851587
2618+365778953+365921186+366209111+366436356+366371793+365830470+364903043
2608+364056440+363740997+363953072+364362114+364727011+364958261+364934141
2598+364580591+364086992+363769456+363727830+363813024+363884959+363958078
2588+364106986+364298461+364357563+364155348+363783412+363439935+363231956
2578+363176009+363246519+363350402+363377223+363269789+362991512+362538873
2568+362046639+361753132+361784473+362016906+362227283+362389783+362657926
2558+362978588+363048369+362809413+362568181+362498126+362470820+362411597
2548+362403860+362457471+362487780+362458806+362405104+362426130+362645244
2538+363000159+363128133+362698308+361879012+361228678+361038781+361057409
2528+361004861+361007288+361254709+361601585+361819971+361943878+362099825
2518+362223885+362123065+361713478+361169090+360872124+361120183+361809109
2508+362496882+362837659+362840359+362659504+362352252+361999613+361833502
2498+361970031+362196033+362288205+362332107+362443242+362453678+362216573
2488+361925614+361806924+361788963+361750219+361790511+362002283+362237568
2478+362317847+362283078+362282107+362352677+362424461+362454771+362466148
2468+362472944+362441269+362348157+362242362+362204922+362255772+362328436
2458+362332076+362217847+362015693+361846973+361848399+362034079+362290875
2448+362521033+362654528+362556257+362184352+361823217+361863205+362328345
2438+362818029+362910262+362553739+362111202+361995547+362226069+362464237
2428+362499279+362462780+362547125+362812083+363314632+364117423+365037509
2418+365621914+365581350+365156987+364891028+365078710+365559991+366006866
2408+366281411+366456563+366583929+366621520+366621672+366773948+367144306
2398+367564573+367868578+368076436+368366667+369061115+370567912+373214394
2388+377314942+383465947+392457729+404764350+420385141+439266916+461541443
2378+487107779+515133946+544142275+572619656+599681503+625198021+648940752
2368+669693554+685711098+695692475+699069054+696455218+689784644+680486824
2358+667655142+649283227+625079392+596819426+568158974+544618124+531094695
2348+530023153+541328741+561429905+582942234+599486964+609876896+615527506
2338+617690796+617471985+616564036+617131815+619994741+623079452+622893772
2328+618113854+610707843+603194975+596014207+587851399+577670872+565744531
2318+553238032+541486448+531262110+522322300+513804819+505034244+495797104
2308+486190818+476572306+467439747+459089287+451419775+444147896+437192401
2298+430788453+425234749+420583442+416620758+413109742+409923060+406947482
2288+404069234+401345689+399018898+397255669+395987677+395016863+394167924
2278+393411371+392930788+392898628+393104483+393048779+392496413+391675629
2268+390872929+390150264+389533426+389135944+388943892+388733850+388355694
2258+387904238+387508940+387175142+386918467+386800536+386735275+386515615
2248+386154207+385999747+386381543+387220318+388060427+388451477+388275263
2238+387774141+387333242+387182423+387212733+387092405+386613825+385894558
2228+385210365+384691433+384237852+383704569+383075412+382424441+381824471
2218+381369950+381165430+381202080+381338427+381446012+381504204+381552111
2208+381601868+381620345+381635060+381835030+382433847+383393010+384377719
2198+385048381+385374261+385624413+386028327+386507180+386847745+387065493
2188+387411792+388052023+388877903+389615555+390079785+390367285+390745107
2178+391274142+391677935+391702692+391451539+391242346+391291224+391595775
2168+391971837+392206030+392282213+392368743+392540800+392697596+392762341
2158+392758488+392733579+392768894+392939465+393172718+393329392+393450570
2148+393730819+394256547+394910734+395509703+395987130+396483095+397239771
2138+398381792+399824693+401407734+403106794+405087439+407491566+410215384
2128+413043298+415992814+419323247+423154954+427262298+431362452+435496981
2118+439924684+444647775+449260854+453343562+456792987+459713044+462225514
2108+464490261+466712987+468945876+470920634+472253796+472848700+472967328
2098+473012049+473442935+474630861+476462688+478353860+479844729+480834414
2088+481205045+480713783+479265299+476867573+473383227+468644541+462762044
2078+456189164+449555726+443469315+438343645+434259541+430982689+428242244
2068+426022098+424481988+423596338+423011083+422359474+421645305+421151767
2058+420995821+421008472+421066664+421232835+421519001+421827860+422169244
2048+422660567+423304347+424000464+424780683+425843699+427324556+429156140
2038+431196918+433368976+435674348+438309968+441712124+446138249+451265830
2028+456528363+461701242+466900911+472290477+477992301+483966333+489822283
2018+494960362+498955661+501784121+503735366+505046350+505616617+505263310
2008+504143710+502603448+500747379+498491523+495895769+493151107+490349649
1998+487547372+485008536+483119579+482007533+481409717+480985081+480636993
1988+480439389+480397035+480447824+480646428+481171368+482093698+483242394
1978+484399312+485596188+487096492+489052865+491278503+493437394+495381418
1968+497175927+498882390+500521621+502239886+504296774+506789221+509433701
1958+511749114+513576482+515271082+517262042+519620720+522159011+524711864
1948+527163989+529465629+531779525+534362233+537204710+540002770+542530380
1938+544794763+546884691+548961573+551264062+553890763+556679174+559412671
1928+561993558+564360064+566487917+568504909+570545201+572561100+574549269
1918+576746418+579252548+581666566+583465353+584614262+585652005+587213960
1908+589442784+591835625+593652798+594524825+594803102+595311597+596546610
1898+598145761+599338602+599853954+600171612+600922159+602227317+603554927
1888+604255595+604348859+604437330+604877622+605461178+605877198+606138970
1878+606492125+607104625+607822344+608188121+607856568+607005050+606219855
1868+605912392+605873799+605589576+604851712+603883993+603004684+602276225
1858+601495642+600470338+599276648+598246732+597609657+597101647+596136841
1848+594499643+592648914+591261474+590634592+590450612+590123427+589304980
1838+587994300+586334833+584445997+582584892+581247391+580742597+580711347
1828+580513531+580013652+579350303+578400181+577087134+575753517+574764135
1818+574097023+573518625+572861586+572006549+570904667+569778878+569053817
1808+568865103+568824872+568520018+568101207+568071777+568526935+569019169
1798+569307640+569673113+570359461+571268502+572240044+573294049+574483856
1788+575760798+577075726+578391746+579569053+580533252+581588775+583119479
1778+584950427+586530525+587734712+589021910+590837627+593036839+595076160
1768+596606683+597655834+598524949+599484779+600527195+601514271+602474951
1758+603527621+604685935+605988120+607643400+609884967+612696072+615603113
1748+617905905+619356877+620401780+621596198+622992437+624292498+625391103
1738+626499720+627916226+629838861+632025634+633872176+635386072+636929338
1728+638345176+639428125+640582373+642200396+643910348+645216053+646464537
1718+648550703+651609746+654552344+656537358+657605380+658071218+658356715
1708+658983354+660211267+661728137+663086572+664444400+666419584+669114002
1698+671795739+674121408+676320317+678422745+680353025+682083548+683354605
1688+684043865+684908732+687198174+690895021+694122268+696050424+697464260
1678+698982040+700692356+702447697+704106436+705777614+707886535+710682835
1668+713636781+716062874+718106443+720424830+723279261+726026593+727935089
1658+729016461+729584786+730037092+731446377+734573806+737469985+738658031
1648+739011854+739704452+740641164+740868348+740236188+739147595+737890798
1638+736998625+737521502+739606758+741391892+742052511+742818592+744238010
1628+745209066+745107489+745456215+747804699+751284373+754002518+755901730
1618+758157071+760895240+762767207+763190751+763183287+763988688+766166056
1608+769010657+770872733+770859505+770034322+770332745+772442758+775171157
1598+776829835+776899435+776275830+776160418+777021522+778593064+780303866
1588+781676743+782716186+783841247+785393553+787281236+788886941+789446408
1578+788915461+788434756+789127051+790258058+790484029+789606602+788226322
1568+787006843+786224076+785738942+785060847+783632205+781684814+781043308
1558+783262727+785998226+787174501+787921103+789729053+792666312+795592467
1548+797221108+797232213+796577358+796562491+798013220+801531790+806845567
1538+811451516+813561469+813831432+813537257+813646602+814518144+815808739
1528+817051216+818356313+820357225+823281013+826567422+829464329+831859536
1518+834591577+838687089+844142310+849790857+854752328+859152087+863305548
1508+867151667+870975637+875532375+880269088+883742998+885629649+887381289
1498+890863997+895746281+899354596+900715155+901758177+904154781+907280510
1488+909714735+912269044+916488403+921651513+925882947+928893386+931624212
1478+934273122+936785987+939914569+944175311+948691090+952355230+955218278
1468+957752685+959955234+961211424+960788002+958781023+955800863+952159175
1458+948754682+947962085+950246734+952161541+951077317+947602012+944340420
1448+943477313+945190360+948086600+950472038+951331626+951028470+951324951
1438+953873678+957904809+960137455+959339275+958069979+958930841+961758998
1428+963933149+963346923+960422225+957341944+955906203+956096798+956555293
1418+956256143+955623497+955268764+955138302+955026530+954579079+953329139
1408+951339028+949504683+948725738+948965787+949742790+951024283+952693095
1398+953870583+953717003+952719308+952554442+954470766+957977139+961266886
1388+962212274+960136181+957601228+958172770+962185697+966658333+969313067
1378+970767376+972417195+974997111+979185524+984524968+988233526+988096572
1368+985467566+983329640+983342989+985821449+990042325+994081162+996723033
1358+998490024+999522670+999174854+998691723+1001070062+1006707747+1012227410
1348+1014625955+1014305748+1013019279+1011740092+1011372616+1012863272
1340+1016375895+1021181601+1025977114+1029459397+1031580393+1033671292
1331+1035937677+1036390104+1034499084+1033418744+1036154789+1042335253
1322+1049618752+1055923610+1059650554+1059755408+1057019363+1054263900
1314+1054621182+1059027009+1065165969+1069930171+1072228109+1073041823
1305+1073560512+1073741823+1073521799+1073083934+1072232963+1070851530
1297+1069888059+1070438787+1071649710+1071717429+1070363302+1068156505
1288+1065290120+1061857229+1057521426+1051951156+1046508192+1043361346
1280+1041978578+1039680397+1035528575+1030614980+1026282332+1023948108
1271+1024130389+1024793861+1023325413+1020161334+1017572619+1015817218
1263+1013118976+1008705563+1003840634+999736141+996329586+993590264+991750943
1253+989750092+985696692+979277453+972062826+965263308+958602321+951244732
1243+942786415+933460318+923895325+914700296+906345983+899179960+893205564
1233+888078680+883395122+878695423+873657920+868806886+865283704+863438740
1223+862077271+859742561+856785884+855035277+855163553+855671928+855117801
1213+854284670+854956393+857323688+859986857+862010220+863710281+865513013
1203+867217383+869025151+872035892+876700761+881761565+885829710+889227588
1193+892967639+896865578+899980082+902073105+903791613+906111214+909746895
1183+914307638+918083853+919798963+920630699+922969050+927549028+933399031
1173+939857166+947098250+954644370+960925381+965013004+967997047+972260702
1163+979076361+986947117+992808346+994882741+994069330+991862775+988969327
1153+987405006+989673636+995177340+1000764054+1004798522+1007643912+1009032748
1143+1008794156+1009180321+1012350711+1017172801+1021460970+1024827113
1134+1027003692+1026853570+1024544346+1022172379+1021580024+1023243617
1125+1026757818+1030693742+1033672385+1036465469+1040493869+1043975060
1117+1042414015+1034463040+1025015341+1020199805+1021768252+1027083668
1108+1032695928+1036358794+1037199692+1035494352+1031997991+1028146047
1100+1025934516+1026876265+1031413281+1038455033+1044507949+1045704066
1091+1042283433+1038056610+1035653332+1034275298+1032047626+1028851751
1083+1026022502+1024954298+1026504056+1029923960+1031244713+1026908910
1074+1019273105+1013601743+1011679897+1011673647+1011944218+1012247495
1065+1011564606+1007784628+1001008654+993892509+989214109+988117931+990199850
1055+994086320+997252523+996875763+993179160+989975638+990347847+993357254
1045+995583348+995907680+995913506+996319331+996709137+997493907+999648034
1035+1002320426+1002812842+1000440753+998199490+998914296+1001851798+1003692393
1025+1001722611+995835290+988688502+983840562+982400028+982484372+981608583
1015+979490499+978799904+981805489+987130977+990769571+990011136+985259677
1005+978659977+972090617+965773502+958733935+951045400+943914085+937230041
995+929910316+922826756+918496232+917201814+916079726+912856788+908272805
985+904250351+901742886+900305810+898384814+894476317+888705015+882990995
975+879447304+878400823+878123760+876773395+874165748+871364047+869152396
965+867363681+865402333+863076846+860746445+858813798+857556455+857262280
955+857956395+859327694+861033035+862607186+863725997+865394081+869579459
945+876251247+882249369+885088508+886269577+888790816+893649253+900165397
935+907501384+914633730+920592653+925949391+932581919+940792300+948266333
925+952958932+955558205+957744554+959022406+958046496+955760754+954142853
915+953432476+952330959+949902923+946576951+943354680+940677554+938383196
905+936426460+935132770+934832466+935892358+938593937+942310929+945802254
895+948635811+951163179+953616821+956599893+960808026+965329266+967735214
885+966427993+963292008+962362335+965487337+971372595+977535219+980875027
875+978967016+973657244+970799111+974039708+980340197+983466169+982159676
865+980312587+980434796+982022297+983810647+985277092+986708343+988539109
855+990916901+993461320+995027947+995179707+995584197+998396820+1002965451
845+1005288632+1003455925+1000577222+999772063+1001075220+1002764055+1003977830
835+1005571338+1007183172+1008038755+1008794216+1008632869+1004578801+996315569
825+990353248+992988929+1002718546+1012869947+1019771042+1024838885+1028956241
815+1030778208+1029376144+1026748837+1026312187+1028968620+1032340952
807+1033830880+1033702724+1034342773+1037929668+1044336468+1049836349
798+1049549699+1043551880+1037568139+1036020201+1037701027+1038077605
790+1033918016+1025424443+1015523164+1007896158+1004716544+1005529166
781+1007357504+1005744518+998591359+988786621+981374663+979783886+983392686
771+987796026+989305371+988669813+988130917+987280552+984776971+981549724
761+979570961+978793958+977651178+976520898+977571991+981071872+983495781
751+982070355+979305973+979247174+982660283+988137470+994883833+1002629286
741+1010782506+1017673286+1020518616+1017643311+1011420371+1007353924
733+1009338877+1016117521+1019880873+1013232689+999664661+989689837+989774971
723+998670060+1008742214+1012406597+1010919703+1013523224+1024850050+1037495081
713+1039059645+1027457090+1013890882+1009046886+1012979352+1016716004
704+1013599741+1007290453+1003205318+1001917514+1003490330+1008981656
696+1015421890+1016280810+1008542214+995873457+985693597+982478304+985585345
686+992002339+999146456+1002473096+997707924+988671936+983012225+981694991
676+979499601+975117985+972264525+971975872+971121381+967468102+964467615
666+967296682+973643652+975064284+965412944+949784659+936365598+927941565
656+926427122+933818388+947123432+957733389+959279749+954301955+950670824
646+952664515+958846678+965724169+972487280+980562830+989919874+996585593
636+997582196+998902099+1007100951+1016071465+1013625226+996430800+972402874
626+949848190+934952248+931787259+938839143+949133991+951290303+936861533
616+916998841+906780449+906688338+910454784+912086156+909123715+905360606
606+904369283+907519527+915866255+925839804+927193567
##END=
