##TITLE=<SNM>
##JCAMP-DX=4.24
##DATA TYPE=INFRARED SPECTRUM
##DATE=29/4/2025
##SAMPLING PROCEDURE=Instrument type and / or accessory
##ORIGIN=Admin
##XUNITS=1/CM
##YUNITS=ABSORBANCE
##RESOLUTION=4
##FIRSTX=4497.3318
##LASTX=599.83466
##DELTAX=-1.4281778
##MAXY=2.0447905
##MINY=0.43756434
##XFACTOR=1
##YFACTOR=1.9043596e-09
##NPOINTS=2730
##FIRSTY=0.45651814
##XYDATA=(X++(Y..Y))
4497+239722662+239792083+239497888+238637727+237406595+236339720+235856885
4487+235898669+236214743+236774683+237529475+238222702+238857728+239774900
4477+240945172+241775848+241804409+241141698+240242148+239528952+239090187
4467+238577884+237681854+236738689+236422005+236855700+237490758+237749899
4457+237538082+237128738+236718407+236410628+236430503+236806811+237092947
4447+236994167+236819832+236792742+236566669+235947871+235449825+235631939
4437+236322302+236748924+236305745+235211655+234332684+234240931+234715268
4427+235187383+235251186+234826301+234283513+234215125+234671919+234907569
4417+234262918+233093179+232428606+232892505+234151259+235334144+235811423
4407+235547009+234858586+234029052+233186278+232329060+231502906+231089742
4397+231675238+233279471+234881169+235334520+234657819+233730490+233052709
4387+232470563+231808416+231308085+231492952+232554648+233812056+234202104
4377+233529535+232662035+232379655+232594163+232784821+232729985+232525133
4367+232242925+231925349+231757132+231948416+232485837+233000675+232951707
4357+232272674+231692468+231955412+232849109+233393572+232891363+231546568
4347+230228956+229769815+230235247+230974938+231606834+232454021+233679066
4337+234596003+234333404+232887638+231223671+230403761+230703497+231601419
4327+232511956+233173336+233395622+233153571+233029345+233652305+234537020
4317+234529524+233521460+232530266+232107979+231865333+231488211+231206410
4307+231200666+231252153+231156676+231149837+231650121+232577809+233239314
4297+233143664+232627355+232342424+232527621+233068781+233765655+234227519
4287+234043700+233388501+232930471+232920393+232857763+232289013+231534111
4277+231244986+231546599+232015694+232361579+232744116+233301052+233651194
4267+233266044+232320343+231758572+232256321+233342930+233997017+233994560
4257+233977393+234189710+234066204+233305121+232526228+232498607+233206231
4247+233941195+234187691+234231181+234770714+235994601+237200444+237406955
4237+236330487+234721403+233659457+233557015+233975828+234371949+234642607
4227+234840495+234868868+234692639+234548913+234769368+235377650+235912206
4217+235851298+235235489+234570259+234188114+234099021+234310008+234756238
4207+235050387+234893876+234663984+235015395+235941831+236799941+237240820
4197+237545422+237908147+238043124+237825157+237622292+237579397+237257486
4187+236415839+235557291+235360811+235904006+236477999+236125353+234757991
4177+233622509+233990585+235615429+237136813+237756941+237782622+237640195
4167+237210053+236375933+235670499+235829467+236830896+237905643+238501451
4157+238684879+238600231+238190276+237594061+237299599+237668365+238547023
4147+239449046+239922538+239690283+238736852+237479271+236694557+236927657
4137+237880197+238625787+238610419+238179744+237880384+237692762+237418942
4127+237314795+237619507+237978601+238039994+237986050+237886190+237433778
4117+236810098+236756702+237464467+238358618+238984364+239241877+239056258
4107+238632141+238596507+239278842+240292633+241110525+241597522+241861060
4097+241869104+241355408+240216749+238960734+238384033+238757321+239683538
4087+240647815+241344563+241695316+241825270+241851608+241703767+241297255
4077+240689020+239982350+239366667+239207621+239672818+240276280+240302602
4067+239847811+239876200+240896032+242107650+242404161+241748274+240853888
4057+240059768+239322159+238887431+239168731+240043947+240829068+241033732
4047+240794780+240489348+240333416+240503495+241128600+241902688+242178088
4037+241673860+240760601+239989799+239633569+239679970+240045872+240636250
4027+241248616+241715269+242188464+242892896+243632633+244091008+244455063
4017+245046803+245515803+245150481+243873229+242343378+241209899+240698128
4007+240734717+241074405+241444689+241838353+242499733+243464104+244334953
3997+244674860+244393513+243644652+242647730+241776224+241497662+241964895
3987+242816761+243598267+244238880+244874752+245408181+245623237+245642987
3977+245883270+246463726+246875935+246474540+245317023+244197706+243735826
3967+243891633+244454233+245377383+246490111+247456297+248134595+248477836
3957+248223687+247251695+246075070+245550921+246176370+247657848+249002236
3947+249377277+249025929+248814050+248978902+248861609+248004015+246912461
3937+246434133+246956389+248238382+249611018+250296436+249914446+248893581
3927+248245362+248694425+249808656+250371225+250090441+250129690+251348052
3917+252741189+252476665+250347250+248009445+246973838+247313558+248232529
3907+249517637+251847335+255323673+258408242+259484319+258750935+257200834
3897+255299636+253658016+253365433+254739758+256073489+255117726+252748763
3887+252106444+254187393+256556919+257268956+257545984+258147380+257525906
3878+255479339+254281885+255283110+257648927+260340035+262645601+263094930
3868+261511104+260250160+260741570+261287316+259812646+257190177+255608996
3858+256160125+259430187+266087526+273575636+275204094+270017185+262912801
3848+257613794+255509371+256451754+259405555+263142098+266913446+270255652
3838+272168149+271706238+269454177+266847561+264675376+262889953+261448538
3828+260604387+260449034+261210524+263886984+268788697+273208717+274333762
3818+273370565+272041764+269661940+265793566+262046428+260244228+261178943
3808+264133026+266958047+268643031+270738784+273943776+275685255+274209504
3798+271400008+269007884+266966998+265208649+264329803+264452746+265099259
3788+266162425+267862527+269884195+271718789+273647123+276090077+278306738
3778+279138823+278814158+278716004+280174665+283873775+289189950+294336139
3768+298474468+302358055+306394286+310535213+315666567+322603657+329836148
3758+334722023+337497060+341310348+349221402+361913354+375531821+384342504
3748+388628909+393055033+399699258+405620662+407958607+408814699+411543068
3738+417215771+424015208+429014605+431399154+432394026+432904639+433446519
3728+434689749+436597739+438028387+438146791+437333955+436361932+435951226
3718+436791981+439323166+443868132+450418147+457044719+460307927+460013966
3708+459361287+460287802+462799300+466699224+471328229+474822110+476173603
3698+476424465+476370349+475801301+475690315+478213707+483171695+486512149
3688+485685666+483425217+482637233+483610633+485392018+486899725+488230842
3678+491188102+496424652+500460664+501046708+501253125+502470877+501460888
3668+496403431+490364874+486214870+484339369+484139931+485462598+488629842
3658+493048768+496303712+496814168+497240023+501974724+512096618+521540950
3648+522208058+515865587+509230502+505352299+504331919+505597652+508370278
3638+511511514+513896188+514991655+515418105+517377269+523312601+531761717
3628+535977073+533396842+529407277+528806962+532275522+537754671+542346430
3618+544507128+544974486+544671574+543474322+541849589+542120701+546106260
3608+552404067+557541242+559714210+560144259+561071149+563488562+566686073
3598+569211531+569578168+567049831+563403304+562389465+565963942+572102937
3588+576731128+578264593+578531324+578639368+577668409+575394658+573756967
3578+574801103+578166627+581241321+581586299+579149918+576163676+575264830
3568+577411131+580816155+582940171+583289719+582681828+581614969+580459971
3558+580365949+582998450+588559477+594115559+595813282+594097531+593295211
3548+595345737+597982431+598827381+598024810+596264427+593609328+590400800
3538+587001974+583494852+580861789+580943479+584296797+589306272+593742537
3528+596672691+598763280+600567295+601328675+600047105+597089657+593891333
3518+591649131+591365750+593763633+597513697+599253924+597384119+594149988
3508+592450575+592661530+593333897+593187354+591919367+590220392+589256131
3498+589643989+591033792+592790545+594701665+596756761+598532043+599512767
3488+600044851+601130803+603012627+604484308+604144275+602081355+599747009
3478+598474327+598138050+597264369+594724388+591437612+589954976+591931950
3468+596134035+599483972+600236965+599105254+597535982+596334161+595806772
3458+595960575+596433942+596906746+597535544+598617865+599866759+600131862
3448+598156392+594242758+590571192+588956411+589318541+590377013+591061711
3438+591354357+591745971+592261278+592556992+592726570+593548295+595256597
3428+596859046+597100424+595391997+592151356+588673030+586270014+585244031
3418+584864937+584381680+583841583+583712569+584069628+584652980+585330166
3408+586155021+587126043+587885045+587784137+586665634+585429760+585036894
3398+585187317+584676642+583186745+582075065+582944427+586127103+590624150
3388+594717189+596836260+596710626+595319696+593430924+591275608+589814068
3378+590597295+593754931+597413916+599704630+600532741+600860692+601309207
3368+602126238+603622583+605702217+607431740+607978722+607725888+607372960
3358+606715618+605758618+605655769+607098968+608973155+609901485+610238138
3348+611117704+612253171+612063561+609970656+607717563+607460598+609168336
3338+611152759+612310698+612699558+612655864+612611983+613298121+614729990
3328+615443608+614273712+612325409+611464122+611945313+612681029+612582750
3318+611084527+608349428+605684940+604732259+605849886+608187174+611085090
3308+614388955+617532757+619512422+620159811+620550549+621275998+621333776
3298+619809199+617373820+615025077+612954395+611467690+611292478+612502687
3288+614362226+616155787+617473977+618045435+617698454+616514661+614930804
3278+613497183+612752516+613376681+615870715+619422531+622297724+623824680
3268+624210973+623215287+620958939+618809758+617973260+618569006+620271299
3258+622287709+623268683+622944363+623000200+624631381+626237962+624988065
3248+620419406+615436159+613432644+614884357+616964742+617079922+616196475
3238+616762487+618818522+620373897+620442630+619607759+618725313+618608255
3228+619313047+619362875+617492193+614847486+613698123+614686547+616475851
3218+617312599+616533128+615200164+614908958+615558976+615509211+614244604
3208+613093049+612839652+612628008+611651165+610384743+609822173+610286088
3198+611202962+611772730+611650539+610875386+609370528+607099281+604747346
3188+603365117+603072158+602931500+602511154+602567116+603181078+602699323
3178+600145133+597284400+596524960+597863558+599245035+599042530+597235824
3168+594821165+592875240+591801120+591242995+590837860+590412443+589512783
3158+587899818+586354772+585879590+586418372+587117655+587422007+587374558
3148+586991895+585801968+583452849+580679002+578917679+578696333+579024973
3138+578609384+577141020+575249243+573657311+572578057+571802153+571281275
3128+571300555+572069072+573461817+574935940+575361481+573683539+570505747
3118+568158506+568379540+570629566+573029264+574172931+573740253+572276334
3108+570965655+570753322+571088723+570211786+567185606+563309720+561127675
3098+562117226+565337648+568144859+568368460+566041689+563115478+561391464
3088+560687673+559471079+557313761+555531468+555217476+555969341+556748813
3078+556898923+556274757+555299604+554632872+554323324+553873995+553281316
3068+553188170+553823729+554546299+554708490+554405516+554021476+553639753
3058+553133647+552419528+551531950+550675483+550253071+550552352+551291511
3048+551606692+550717674+548845991+547245357+546818876+546976686+546521097
3038+545268947+543946500+543082646+542716698+542492659+541858102+540842198
3028+540158689+540058720+539892584+539068543+537735955+536479173+535825711
3018+535810500+535909217+535800421+535784834+535949655+535764991+535075598
3008+534518913+534468584+534417817+533783698+532714085+531698180+530680022
2998+529073692+526838251+524991138+524529915+525287384+526363570+527244764
2988+527796566+527449898+525440749+522188402+519505354+518844725+519829831
2978+520855939+520838036+519809580+518239464+516741397+516047904+516401709
2968+517142338+517346721+516781053+515988780+515477510+515074754+514251213
2958+513003665+512053488+511926727+512295273+512386447+511695396+510400742
2948+509243835+508763707+508787933+508947495+509269594+509713571+509566591
2938+508109401+505811550+504136832+503923873+504501372+504812265+504810450
2928+504950826+505010232+504426129+503238643+502046556+501469088+501641859
2918+501801484+500846613+498826979+497148192+496852072+497441714+497705346
2908+497170759+496362148+495830784+495450156+494869903+494199195+493766643
2898+493496125+493032085+492263631+491294487+490134701+488832973+487741325
2888+487244453+487291339+487470776+487454250+487158161+486636437+485979251
2878+485148167+483994641+482702992+481878293+481835695+482164179+482344367
2868+482422771+482653884+482843368+482592725+481988967+481516069+481350090
2858+481230246+480903109+480171587+478807825+476998646+475491440+474811813
2848+474681953+474479386+473938694+473259693+472820129+472816999+472994809
2838+472808548+472068075+471266006+470931857+470837459+470358553+469512790
2828+468879391+468540641+468018041+467221230+466537377+466037343+465452489
2818+464816148+464382531+464029134+463395985+462565340+462048185+462013944
2808+461941205+461303925+460346644+459707330+459384417+458725259+457617461
2798+456934265+457277772+457930545+457662187+456225248+454481922+453272652
2788+452679253+452340441+452090643+452032865+452124164+452093460+451822473
2778+451466853+451093862+450498867+449545968+448498326+447772751+447387898
2768+446911683+446045294+444955868+443936990+443151196+442768816+442893073
2758+443229632+443240586+442742744+442067467+441594475+441297823+440833220
2748+440033279+439126452+438402098+437836993+437131544+436078081+434917856
2738+434197571+434072782+434023580+433561950+432855249+432340786+432161693
2728+432236185+432480599+432698785+432514652+431751143+430780622+430141308
2718+429835829+429386844+428543492+427491531+426458380+425612617+425215464
2708+425333148+425503039+425149141+424284348+423444751+422993575+422868004
2698+422934264+423131291+423278960+423205846+422987003+422634012+421844086
2688+420541764+419332306+418936718+419388269+420037975+420211059+419734531
2678+418872774+417930547+417111451+416594829+416425814+416395579+416256298
2668+415967189+415650474+415438579+415345527+415200268+414817450+414237885
2658+413607022+412894968+411972210+410900342+410006035+409683592+410031982
2648+410595552+410718714+410312546+409889571+409688725+409333136+408617390
2638+407934570+407555789+407220889+406798758+406641105+406908430+407186741
2628+407089746+406721450+406311088+405814309+405076215+404150734+403327944
2618+402885876+402824968+402877332+402823560+402693137+402570351+402393198
2608+402092821+401760425+401557232+401572380+401767593+401964839+401962210
2598+401705652+401252066+400626335+399876848+399179067+398736749+398626890
2588+398747078+398896312+398977940+399069302+399211118+399276126+399128676
2578+398738252+398126449+397414521+396909730+396949010+397557464+398301223
2568+398592210+398184196+397315397+396415111+395807283+395583714+395594669
2558+395611602+395504340+395234229+394840737+394478983+394278794+394195257
2548+394156540+394197730+394310281+394326619+394060045+393579292+393317319
2538+393653909+394315884+394568467+394130280+393511811+393370590+393847368
2528+394525431+394908375+394955323+394993571+395118736+395130128+395056325
2518+395133164+395259080+395118610+394818421+394760017+394906716+394786778
2508+394243019+393633721+393251904+393035533+392902606+392934187+393118038
2498+393274564+393365206+393549652+393800920+393810279+393460731+393075314
2488+393017724+393327240+393825803+394280422+394436761+394222612+393914066
2478+393838135+393992502+394140233+394094912+393748870+393081825+392343543
2468+391979848+392174183+392664671+393111903+393337788+393166426+392509928
2458+391699346+391293147+391519063+392162321+392828428+393138570+392959696
2448+392563575+392306578+392216343+392129082+392044762+392075185+392178691
2438+392185921+392070678+392047673+392313934+392750055+393011840+392952810
2428+392828584+392953686+393226583+393236536+392892904+392620946+392782481
2418+393239071+393616319+393707148+393577007+393503485+393744488+394235351
2408+394664086+394852787+394829407+394631441+394353755+394252221+394510845
2398+395033289+395648691+396301527+396854017+397032985+396864597+396830293
2388+397259778+397873490+398232553+398335777+398427890+398484009+398282506
2378+397936339+398037779+399119161+401118732+403604252+406385548+409462934
2368+412443605+414638138+415843808+416539367+417255802+418149703+419077094
2358+419744014+419729241+418662382+416702685+414653130+413238350+412535373
2348+412380381+412939194+414568748+417046506+419434967+421074130+422040363
2338+422623683+422859772+422587251+421845777+421032940+420476725+420027897
2328+419343950+418342724+417197242+416241838+415868065+416048348+416098207
2318+415372288+413998479+412615718+411657341+411058716+410448541+409554921
2308+408520112+407787276+407674349+408124023+408786999+409264153+409390664
2298+409360335+409460899+409714421+409939681+410097084+410342124+410756179
2288+411220970+411572834+411761191+411825918+411780503+411587294+411270548
2278+410960405+410735177+410529668+410308916+410182749+410232327+410361842
2268+410390950+410201466+409840150+409563091+409644718+410063719+410556898
2258+411026728+411645948+412490365+413331997+413926961+414297416+414584554
2248+414794195+414844336+414784054+414814602+415049751+415339737+415424401
2238+415192381+414706620+414109371+413585770+413245705+413004265+412752589
2228+412548112+412444043+412368831+412326797+412445889+412785265+413326363
2218+414096226+415128468+416386815+417799748+419285577+420771186+422250129
2208+423775551+425380973+427029087+428644181+430246755+432015652+434089558
2198+436399240+438841661+441431001+444105974+446614593+448757388+450598524
2188+452360253+454168055+455900864+457317960+458372362+459284918+460234687
2178+461152876+461924210+462586905+463201055+463687442+463903844+463750541
2168+463177768+462235291+461111405+460014248+458999126+457929262+456641056
2158+455139859+453500759+451605570+449246686+446476376+443622341+441010811
2148+438698781+436396893+433985144+432194432+432087295+433785425+436473669
2138+439538472+442869912+446298691+449537048+452455152+455081393+457589354
2128+460158787+462671506+464906477+466968959+469117232+471447353+474019540
2118+476902840+480009239+483165498+486241913+489142396+491880656+494586459
2108+497315892+500070302+503039017+506656968+511381497+517280930+523745780
2098+529842710+535063391+539498592+543323273+546432521+548608806+549787716
2088+549959486+548967431+546692115+543275135+538961438+534066266+529162519
2078+524852389+521381951+518673644+516460926+514354156+512113207+509798986
2068+507519101+505266852+503015293+500751495+498488449+496239174+493899351
2058+491363376+488731314+486139534+483648974+481492345+480003887+479208265
2048+478814241+478517120+478167165+477875771+477889323+478211735+478695148
2038+479526389+481164769+483888443+487687553+492410236+497891075+504092356
2028+511067912+518734489+526755434+534467144+540983419+545880844+549621581
2018+552757433+555072436+555999263+555561953+554508802+553568704+552660969
2008+551010257+548128554+544291979+539972585+535422955+530930602+526901789
1998+523531663+520735625+518432360+516545121+514775848+512883288+511174579
1988+510177705+509915074+509933541+509919362+510003776+510577331+511877149
1978+513643918+515284896+516417139+517088097+517674610+518779810+520840477
1968+523583088+526173021+528059478+529417481+530767221+532441533+534412183
1958+536505088+538724066+541267739+544229256+547365170+550224088+552559748
1948+554610337+556943180+559986261+563554290+566853085+569305491+571225124
1938+573224194+575467773+577909224+580593180+583370533+585891483+588064326
1928+590164492+592540466+595227740+597694793+599464254+601164168+603862584
1918+607192991+609451655+609954068+609829497+610304179+611496234+612768103
1908+613645102+614289049+615135125+616188713+617020767+617468782+617903588
1898+618707348+619757681+620615588+621272242+622395816+624404088+626512392
1888+627391645+626793770+625643655+624820177+624565090+624602461+624464119
1878+623966402+623330593+622758259+622408961+622818979+624453290+626468636
1868+626802033+624514699+620964134+617954355+616135755+615015500+613728733
1858+611851103+609553628+607122630+604809067+603092189+602386709+602513720
1848+603084239+604050629+605031541+604753793+602612312+599643096+596817230
1838+594291272+592289948+591388661+591919180+593515431+594918755+594580851
1828+592433486+589856197+587339753+584140865+580325448+577311099+576111782
1818+576230093+576433724+576273348+576366244+577191224+578200869+578471605
1808+577894451+577151349+576965558+577812197+579674866+581650900+582508244
1798+582195316+582090026+583511378+586377683+588912843+589238917+587894310
1788+586998844+587682102+589559544+591726941+593666167+595192622+596272439
1778+597354948+599395083+603179514+608372151+612884911+614575310+613986950
1768+612867133+611858615+611337235+612151887+614357656+616600734+618015138
1758+619188039+620532020+621970211+624153883+627997532+632833172+636342422
1748+637409594+637359954+637814353+639359901+641813370+644369939+645866410
1738+646524441+648642197+653860437+659702655+661432303+659423718+657145961
1728+656100448+656282045+657341392+658802370+660734335+664259860+670431093
1718+678208406+683841609+684834415+682894751+680764788+680055802+681360596
1708+684444492+688267671+691696294+695209925+700804755+709000349+716402261
1698+719811416+720495676+719722715+717703363+716149052+716778288+719510257
1688+723774690+730382608+739534325+746477017+746473199+743264045+741877121
1678+743685518+747816930+751903709+754029791+755774964+759923966+765593163
1668+768736589+768847951+769244009+771190559+772767531+772613039+772342740
1658+774195894+779356920+788100810+797564078+800294795+796836625+795602879
1648+798992942+802821191+801574738+796350864+791816571+790182134+791768120
1638+796007513+800239521+799421551+792527622+784858229+780229788+778712723
1628+778635226+778812441+779665654+781237805+781596242+779801930+778065521
1618+778608434+780441056+780341337+777767804+774945006+773382870+772939550
1608+772337732+770585424+768331454+767240619+768031233+769775342+771315192
1598+772559893+773781307+774539746+774257992+773308003+772708250+773173041
1588+774848041+777395659+780012447+781813707+782572647+783105357+784891906
1578+788885915+793534889+794695895+791522798+787838148+785841645+784164454
1568+781045003+777477287+775301752+775285539+778222705+785454100+795488763
1558+799442835+793061146+783690586+776455999+772696357+771985493+772643461
1548+773629882+775829016+780434296+787051854+794027223+798661297+797262605
1538+791425896+787713829+788912269+792816200+795103221+794829542+795151359
1528+798127711+802915527+807892263+812848969+818037037+822763569+826956828
1518+831438163+835254769+836596935+836437059+837783044+842330608+850120128
1508+860055573+867522963+867182742+862869044+861002870+863235682+868237082
1498+873526809+876817403+877917377+878994503+882252483+888424218+896123033
1488+902315613+905576786+907272318+909008727+911365295+914880554+920247965
1478+926513659+930855463+932086956+932915942+936270575+941255261+945888773
1468+950129293+953645366+954499892+952256376+949925912+950137994+952783703
1458+955456516+954139265+947914384+941272351+937979503+938489364+940592034
1448+940972756+938624701+936021246+935476205+936508009+937535933+938720101
1438+941359550+945121445+948294981+950567855+951814747+950307009+945831245
1428+942016955+942336268+946547430+951876469+956387037+960366273+963602971
1418+963496804+959031431+953196725+948860555+946505739+945539350+945861668
1408+947681958+950255804+951817564+951587641+950998029+951811367+954314352
1398+957524382+960164332+961351630+960904429+959759447+959574407+961213789
1388+963634520+964728923+964570236+966018944+970485444+975925094+979804298
1378+982007375+983780341+985689270+987515507+989001962+990563284+993385081
1368+998306418+1004658936+1010318743+1013296347+1013432748+1012299159
1360+1011238184+1010367444+1009642183+1009373136+1010177835+1012997316
1351+1018028826+1023486065+1026910244+1027612970+1026442636+1024921440
1342+1025602883+1030514580+1037694207+1041804022+1041291344+1040562326
1334+1043082275+1047071652+1048542833+1046635531+1044434269+1045216495
1325+1049377328+1054755819+1058912208+1060541011+1059446170+1056809287
1317+1055114256+1055958830+1058656432+1062131378+1066439254+1070902498
1308+1073366485+1073467393+1073372244+1073741823+1072536184+1069301865
1300+1067089398+1067852469+1069508689+1068890846+1065326760+1060363858
1291+1055881584+1052889520+1050485878+1046329051+1039586610+1032469644
1283+1027486272+1024157618+1020293938+1015714011+1012301538+1010960186
1274+1010012388+1007063579+1002053540+997468543+995330129+994844931+993606991
1264+990247852+984818155+977739124+969793547+962238082+955743466+949876334
1254+944197998+938957974+934216418+929356614+923959907+918096969+911255122
1244+902295644+891349177+880577483+872158602+866096665+860715545+855065878
1234+849886324+846119108+843502257+841059867+838536099+836655214+835822910
1224+835224034+833739958+831553719+830124292+830415373+831821514+833194290
1214+834383153+835951674+838052090+840800460+844954220+850861164+857331867
1204+862611078+865960952+867773167+869195584+871693373+875706287+879916197
1194+882725036+884079847+885365925+888154608+892863425+898100757+902018397
1184+904419535+906434568+908580368+910694556+913376822+917986045+925220320
1174+934602147+945446141+957367511+969049756+977662316+981204680+981085430
1164+980756853+982340710+985345857+988031253+989864939+992322603+996404437
1154+1000202014+1000868809+998649956+996955614+998463915+1002464121+1006131431
1144+1007130309+1005365230+1002844092+1001790628+1003119336+1006187894
1135+1008926436+1008702773+1004914524+1000390997+998905920+1001756638
1127+1007574067+1014326336+1020139884+1023661904+1025465480+1028058919
1118+1032744888+1037421967+1039583417+1040545300+1043259428+1046999602
1110+1047285362+1041742113+1033191776+1026984047+1026107924+1028833446
1101+1031755713+1033770620+1035591536+1036564060+1035259516+1032178438
1093+1028891975+1025836374+1022359988+1018341065+1014476571+1011749923
1084+1011818155+1016178989+1022528440+1023944033+1017266882+1008604870
1075+1004185068+1002912950+1000622548+996600182+993220260+991952148+991851177
1065+990541437+986701669+981809064+978524918+977963788+979770933+983622594
1055+988648783+992299442+991453554+985481257+977155334+971023287+970283502
1045+974132847+979194905+982780086+983931891+982310350+978663260+975904123
1035+976696678+979714282+980803238+978340566+975049722+974132973+975636141
1025+977123722+977373927+977507636+978169048+978720599+979483232+981910536
1015+985965891+989117455+988535418+983420027+975017984+965089801+955207877
1005+946875444+940411689+934767093+929298398+924097685+918485954+911571806
995+904357876+899009056+896203847+894511758+891800885+886992787+881223621
985+876631612+873834291+872040855+870865075+870301943+869662002+867871321
975+864689209+860682493+856381377+852165208+848406067+845290684+842668575
965+840204464+837766768+835665538+834336330+833917987+834255578+835177961
955+836733274+839134474+842331985+845716414+848695520+851526394+855010604
945+859498325+864782731+870709582+877229174+883866763+889662095+894126529
935+898170429+903475681+910737310+918914375+926386209+932316816+936674270
925+939491122+940779703+941343024+942108661+942175891+939594909+934703744
915+930507418+928507221+927116416+925545705+925749274+928618583+931753496
905+932995630+933335224+934226496+934682586+933167775+930753741+930190359
895+932436942+935650102+937602662+938177939+939378633+943064409+949041338
885+954945403+957628858+956823096+956615207+960548058+966522233+968787971
875+965441727+960789812+959343921+960968655+962348317+961561709+960113815
865+960308808+962297738+964906138+967721174+970672299+973260543+975404966
855+977593521+979887991+982020208+983876116+985451335+986852218+987719389
845+986678758+982927380+978891304+978987455+984255899+990862189+994544585
835+994607434+993913471+995487939+1000353188+1007699451+1015486967+1021032283
825+1022053758+1018667326+1013844143+1010912423+1011901035+1016822748
817+1023334766+1028889346+1033436221+1038113864+1041111625+1038712803
808+1031460124+1023976647+1019538003+1018510017+1020091871+1023347098
800+1026815533+1028174726+1024814147+1016366471+1007907840+1005486608
791+1009046186+1013735911+1014571345+1008096761+995028156+981943400+975413667
781+975700867+977707637+977189200+974604023+972015404+968791351+962989071
771+955925251+952172558+954601802+961080831+966791092+969396675+970012265
761+970415710+972596565+978658252+987886276+995033727+995566562+991867953
751+988505496+986668492+986108427+986427051+986851467+986724142+986381292
741+987673693+993137756+1003175674+1013362200+1016936927+1012084823+1003444908
731+996645628+994714038+997643129+1002548879+1003844034+997394865+986175658
721+977212549+975485905+981164930+990516398+1000705991+1011245508+1020776382
711+1025654151+1024138025+1018954339+1013605894+1009433856+1006166548
703+1003015923+997882879+988549628+976883721+969208943+970075551+977212173
693+983671483+985203321+983497836+981690879+980352156+978871336+977208417
683+973866868+965474090+952134373+938923357+931550740+932724893+941027342
673+951481975+958162006+959528961+961381364+967979392+971941288+966800231
663+955279426+944789613+942107159+949125845+960298417+965423887+961335104
653+955193604+954026150+958931462+966189211+968658769+963075519+953860828
643+944359063+935315515+927798673+925163356+929294517+935424749+934738298
633+925444859+916731266+915189287+916742910+914749723+910094303+907974982
623+911197720+918228175+923486039+923372549+921405529+923777371+932232872
613+939756099+935666941+921511946+910065758+913461016+933229496+955448880
603+957718374+935649414+908882904
##END=
