##TITLE=<SNM>
##JCAMP-DX=4.24
##DATA TYPE=INFRARED SPECTRUM
##DATE=29/4/2025
##SAMPLING PROCEDURE=Instrument type and / or accessory
##ORIGIN=Admin
##XUNITS=1/CM
##YUNITS=ABSORBANCE
##RESOLUTION=4
##FIRSTX=4497.3318
##LASTX=599.83466
##DELTAX=-1.4281778
##MAXY=2.0536954
##MINY=0.41069674
##XFACTOR=1
##YFACTOR=1.9126529e-09
##NPOINTS=2730
##FIRSTY=0.42210695
##XYDATA=(X++(Y..Y))
4497+220691870+222002772+223818425+225221118+225751596+225404109+224538439
4487+223476330+222318222+221411961+221310852+221909172+222336952+221959688
4477+220990415+220098302+219762751+219966201+220310961+220431594+220279673
4467+220127720+220430254+221478651+223007446+224320139+224911884+224797188
4457+224290659+223707468+223286748+223224966+223524306+223860418+223912476
4447+223722925+223444621+222983669+222270542+221694660+221924692+223180714
4437+224687057+225096496+223847298+221952193+220926608+221079480+221403438
4427+221079947+220359576+219779735+219335720+218823582+218350475+218069226
4417+217935956+218014659+218612637+219810711+221081817+221714729+221508209
4407+220694550+219418256+217876434+216728735+216600109+217234438+217730418
4397+217657185+217476936+217701437+218107370+218239752+218281963+218753604
4387+219629746+220350460+220438294+219742230+218464938+217191978+216465919
4377+216243257+216160799+216172517+216503331+217216597+218095341+218799056
4367+218971233+218372866+217189703+216051587+215424425+215151325+214913440
4357+214766988+214802000+214804415+214726226+215070472+216358702+218292309
4347+219732928+219731697+218486534+217013599+216096026+215902455+216358827
4337+217394743+218694207+219433760+218814077+217101511+215617155+215398980
4327+216383804+217851410+219061031+219524616+219216613+218573059+218033482
4317+217770152+217872835+218340378+218902565+219245798+219341578+219339257
4307+219316523+219252607+219118901+218995214+219100608+219525395+220024336
4297+220313329+220386906+220343947+220194706+219984556+219832604+219811210
4287+219944246+220272801+220712158+220952848+220691699+219917119+218975534
4277+218362239+218339771+218738225+219180635+219386173+219199692+218650921
4267+218179295+218469753+219711269+221119384+221573917+220877479+219947440
4257+219604737+219774126+220022856+220224436+220451601+220695314+220844898
4247+220758918+220466263+220327244+220641588+221183082+221570661+221836718
4237+222094018+222034854+221401117+220578716+220091618+219931080+219872088
4227+219969364+220359996+220966123+221597835+222075631+222228301+222025801
4217+221709104+221583469+221665164+221721055+221669293+221598069+221367351
4207+220796937+220370826+220915171+222307751+223341704+223203838+222348591
4197+221616907+221248728+221130229+221343651+221933527+222501510+222567326
4187+222215742+221998907+222189346+222400322+222157373+221670415+221607823
4177+222177832+222964721+223664214+224426671+225425503+226493470+227233148
4167+227374068+227020365+226438156+225691092+224845101+224310370+224445400
4157+225050655+225693399+226195362+226478076+226343014+225717799+224946803
4147+224590653+224835425+225243852+225198291+224453721+223286794+222356803
4137+222311460+223241078+224571705+225557230+225814219+225505515+225099971
4127+224897612+224811165+224572142+224042926+223417945+223203012+223838744
4117+225221056+226635669+227195393+226503256+225037675+223676881+222838416
4107+222437142+222477296+223070599+224071113+225276729+226661519+227968649
4097+228497740+227766134+226244584+225060144+224860714+225261272+225641403
4087+226041415+226750926+227535806+227997584+228271744+228676228+228960376
4077+228549362+227473682+226494218+226230982+226561204+226956184+227127613
4067+227162095+227218065+227321854+227386503+227278335+226914659+226433917
4057+226274657+226812427+227806195+228528530+228581944+228250397+228034918
4047+228236810+228802829+229166521+228574231+227084577+225819766+225667486
4037+226164838+226275171+225981691+226250225+227436707+228586712+228657203
4027+227885661+227402022+227777260+228529589+229037567+229359890+229902864
4017+230671445+231136994+230723831+229325548+227476346+226044422+225627847
4007+226153260+227050764+227816136+228423338+229139004+229929119+230348671
3997+230102792+229377154+228521830+227761070+227287310+227246719+227536211
3987+227928495+228380410+228976908+229701237+230423525+230990340+231345508
3977+231630341+231948597+232030182+231477469+230352052+229169451+228386737
3967+228232572+228862632+230280922+232143103+233822900+234709014+234540560
3957+233567392+232396819+231674500+231827356+232891677+234357772+235321997
3947+235253032+234634331+234412713+234832312+235191812+234821965+233868508
3937+232934792+232530572+232978093+234201721+235364192+235401603+234345026
3927+233434246+233710385+234858130+235597013+235320984+234877093+235411872
3917+236772977+237471659+236552045+234810186+233651564+233532582+234032068
3907+235063715+237171432+240413961+243661227+245630096+245881584+244413604
3897+241669018+238952276+237738900+238447835+239789261+239919305+239111225
3887+239425117+241568017+243816031+244765407+245123645+245038880+243308552
3878+240488909+239036495+240143089+242843377+245895233+248559652+249602470
3868+248621340+247461425+247737127+248475043+247547763+244818010+242068672
3858+241095394+243303363+249554323+257068645+258938273+254282923+247881319
3848+243064512+241016956+241620777+244075528+247478362+251021898+253736271
3838+254614314+253693063+252237517+251165405+250359116+249343456+248081637
3828+247019529+246687530+247717400+250786225+255216966+257972381+257223012
3818+254963187+253085191+251094026+248392118+246089770+245801338+248333858
3808+252553981+255395906+255663568+255732813+257190151+258221439+257289110
3798+255807059+254934907+254194450+253334825+253016726+253596036+254801839
3788+256487324+258675644+261014250+263166951+265536362+268465248+271087580
3778+272385128+273113571+275119773+279544936+286267958+293865735+300273883
3768+304878078+308838409+312777828+316498917+320759008+326925764+334713014
3758+342102745+348383341+355123005+364140178+375471821+386021795+392496788
3748+396581989+402463165+411296475+418496172+420315518+420323340+423573551
3738+431702663+441938822+449022061+450332292+447660691+444019940+441411195
3728+440670474+441466604+442479880+442727005+442478695+442162138+441405898
3718+439948918+438705439+439318359+442763778+447876777+451449716+451585401
3708+449620179+448100343+449003862+452833212+457655084+460150457+459440774
3698+458041229+458653277+462009848+467383093+473712335+479575873+482931198
3688+482785572+480745246+479224132+479347134+480304752+480404537+479866564
3678+481086765+484249781+485235695+482587903+480197519+480394035+481033164
3668+479603577+476512641+473031572+470257599+469207738+470177790+472521366
3658+475146316+477196272+478899379+481646988+486735431+493530378+498146852
3648+496977012+492196244+488373002+487187424+487276271+486708225+485236101
3638+484103500+484260003+485748550+488581796+493301608+500000541+506240594
3628+507749460+504730450+501446520+500662388+503103474+508350757+514544625
3618+518519135+518518948+515762489+512981940+512882809+516453349+521688851
3608+525028096+525291987+524647342+525052964+526142996+526861996+527715747
3598+530111148+534181017+538422285+541215579+542375478+543093045+544434191
3588+546057987+546788768+546491532+546277627+547239950+549699859+552762530
3578+554420731+553219696+550076936+547731957+548459870+552446845+557556884
3568+560320075+558817815+555072232+552399165+551743115+551723233+550764835
3558+548904260+547623322+548233251+550683561+553725228+556423287+559073915
3548+561842466+563782571+564316960+564203213+563642336+561541553+558122436
3538+555776087+555950040+557382993+558463924+559383928+560817504+562221786
3528+562481502+561347468+559484711+557602570+556207387+555596399+555694376
3518+556084541+556369561+556420794+556384021+556503875+557000120+557955276
3508+559255598+561011153+563366166+565459968+565646637+563567668+560801548
3498+558947953+558416307+559193271+561387918+564518337+567240143+568447722
3488+568258187+567554830+566797997+565786249+564642056+564001649+563752716
3478+563000371+561802515+561342918+561717003+561420203+559724668+557678608
3468+556472587+556393183+557154940+557971419+557886530+556924954+555917319
3458+555011276+553643081+551778641+550100495+549337056+550082296+552544199
3448+555846453+558294458+558915543+558109473+556538030+554327552+551728468
3438+549731210+549380685+550626844+552152289+552343882+550869357+548798491
3428+546914668+545020248+542985594+541481652+541452420+543322719+546631517
3418+550040599+551813419+551162479+549248926+547865960+547178185+545820772
3408+543367532+541387788+541283079+542272452+542603843+542235617+542888489
3398+545340358+548017850+548766081+546990644+543474796+539650993+537556443
3388+538542139+541402871+543308446+543262574+543070421+544419793+546878082
3378+548920527+549698301+549570594+549388787+549818592+551250235+553654050
3368+556214492+557595402+557285202+556365074+556367317+557800706+559949356
3358+561661283+562289473+562093830+561785624+561875375+562491972+563317427
3348+563638409+563036832+561844024+560616937+559766676+559485458+559483963
3338+559335064+559319296+560242354+562235810+564301129+565207358+564693413
3328+563618963+562765711+561984135+561056963+560488482+560531736+560448592
3318+559736386+559235902+560001960+561673187+562617561+561668886+559569101
3308+558275448+559095418+561857425+565149831+567269997+567520301+566403096
3298+564763593+563485647+563748166+566260742+569850571+571881610+571004736
3288+568789148+567701672+568438872+570184517+572519150+575541931+578417870
3278+579542243+578516284+576709372+575443018+574529683+573019882+570813206
3268+568735484+567279658+566292653+565553147+564779735+563811615+563518243
3258+565232788+568627846+571621708+572791829+572629717+572218548+571797469
3248+570888995+569440150+568462556+568903704+569986879+569966623+568747326
3238+568098194+569137554+571031100+572238555+572181401+571488266+571025553
3228+570959612+570866371+570598865+570408831+570015799+568489232+565530585
3218+562260990+560305927+560298759+561513444+562716224+563042317+562318081
3208+561025488+559808311+558870170+558134777+557764744+557927416+558323253
3198+558568321+558679575+558687989+558325559+557609613+557051103+557008410
3188+557283208+557357813+556770446+555298103+553120036+551003235+549891888
3178+549749035+549332568+547835669+546053812+545190026+545216016+545006723
3168+543721174+541692690+539953526+538938225+538142999+537269802+536834513
3158+537220315+537989862+538562769+538929312+539271423+539257587+538216607
3148+536230443+534727934+535041312+536441979+536710358+534812199+531894501
3138+529627306+528911671+529867450+531744854+533044428+532667788+530835321
3128+528569124+526711726+525563482+525024543+524845791+524890354+525199370
3118+525683773+525917872+525429168+524284788+523211336+522697951+522366062
3108+521661583+520540825+519280019+518161536+517440073+517149444+516850463
3098+516014226+514661020+513361042+512593333+512263251+512058196+512071815
3088+512489466+512817647+512389089+511544967+511239099+511702124+512367555
3078+512670369+512342686+511436550+510319189+509333025+508631850+508367149
3068+508326917+507621753+505883057+504251999+503817395+503944199+503524803
3058+502876823+502927807+503514238+503854635+503833725+503747153+503635152
3048+503452628+503125881+502427604+501396191+500500962+499996272+499642537
3038+499202448+498693301+498181007+497674323+497088888+496284781+495343835
3028+494491860+493606884+492452999+491393415+491043045+491335918+491618383
3018+491422459+490749829+489890127+489187362+488747928+488331929+487736522
3008+487148844+486863637+486762325+486351748+485392977+484250280+483376958
2998+482751292+482156103+481570015+480994147+480415164+480037994+480031512
2988+480162180+480145102+480055352+480008015+479804954+479209953+478282750
2978+477221607+476137092+475190444+474726733+474922470+475268103+474964447
2968+474020821+473265889+473110540+473031198+472490016+471643464+470834027
2958+470081090+469406497+469133039+469454240+469946901+469880024+468972423
2948+467701801+466887970+466986321+467679830+468110726+467636607+466484467
2938+465502386+465124032+464897911+464369318+463947740+464161365+464529778
2928+464108699+462855372+461537880+460603634+459935710+459441211+459210197
2918+459217427+459248154+459082832+458705725+458354452+458234286+458119418
2908+457477609+456234067+455117454+454824487+455104957+455068901+454230950
2898+452961886+451971733+451556513+451387639+451031473+450505031+450050607
2888+449576488+448779361+447724544+446894073+446662529+446942625+447315432
2878+447394244+447096104+446629683+446221630+445873068+445478416+445167063
2868+445254850+445707934+445945959+445469254+444453609+443473990+442903234
2858+442796437+443060453+443452394+443585243+443133873+442012149+440452019
2848+439038793+438387199+438480907+438598767+438219166+437718558+437762062
2838+438255689+438423598+437813232+436777394+435951846+435576235+435386014
2828+434976870+434189840+433185321+432212215+431388225+430747008+430359773
2818+430228419+430182329+430109968+430096474+430057738+429614502+428734106
2808+427994195+427711076+427385669+426582839+425753863+425532385+425734947
2798+425651273+424985936+424066057+423308476+422789482+422307447+421737190
2788+421215920+420878764+420539614+419904848+419085657+418589319+418703813
2778+419105134+419160917+418548682+417526182+416599696+416000518+415586420
2768+415228571+415070635+415226234+415396323+415086092+414169828+413013918
2758+412055676+411416952+410930617+410459023+410068297+409814222+409499628
2748+408917154+408279303+408065118+408439545+409041091+409260824+408640704
2738+407252004+405767289+404913881+404839775+405123423+405197623+404689349
2728+403718861+402929774+402853673+403282075+403532005+403169326+402286781
2718+401289834+400503521+399858783+399062965+398100766+397296128+396886299
2708+396779347+396693055+396433371+396079761+395809450+395577502+395294289
2698+395171163+395385535+395608291+395372198+394668810+393819952+393094750
2688+392654817+392519069+392471826+392231370+391690873+390944698+390259915
2678+389996242+390289769+390806831+391001945+390617514+389813625+388904216
2668+388138439+387636990+387322054+386961961+386471326+386082501+386022979
2658+386164523+386218466+386091600+385812782+385354774+384804430+384465435
2648+384461446+384434272+383977480+383221582+382678872+382627235+382878785
2638+383029491+382794114+382227160+381667404+381371508+381294628+381307499
2628+381378052+381416882+381243894+380843165+380396439+380005526+379597130
2618+379103347+378575222+378119084+377795578+377580613+377423581+377304132
2608+377183779+376994805+376750515+376561416+376521496+376651229+376863233
2598+376945941+376790030+376616513+376691336+376890065+376873174+376591271
2588+376291105+376118990+376006927+375894677+375844472+375899320+375918548
2578+375632157+374907453+373975545+373326163+373248224+373478365+373471353
2568+373041455+372508344+372189574+372066884+372014374+372048996+372254051
2558+372633496+373082778+373428099+373547018+373489927+373385779+373222389
2548+372856563+372281631+371768090+371613676+371793395+372007736+372045973
2538+371905551+371618163+371250841+371027587+371130301+371440221+371717200
2528+371868872+371868935+371682266+371456457+371512114+371954260+372492980
2518+372764631+372681300+372412517+372183996+372141614+372273372+372435764
2508+372540411+372634649+372684946+372481855+371966632+371428410+371162711
2498+371159283+371262184+371386308+371481200+371509559+371526200+371630940
2488+371827612+372019734+372154484+372281942+372416724+372447638+372293192
2478+372035129+371801154+371667121+371707914+371931604+372173494+372237098
2468+372066448+371696570+371248597+371009855+371208864+371645431+371835029
2458+371638700+371499213+371840669+372413701+372536329+371942293+371092625
2448+370622214+370750295+371266267+371836961+372185024+372114252+371624521
2438+371031763+370741819+370852636+371149809+371435047+371652786+371799970
2428+371925558+372114844+372331710+372397652+372231863+372023318+372062895
2418+372412922+372848336+373168009+373406845+373658583+373888942+374037716
2408+374124069+374165828+374147660+374112539+374159627+374320305+374508750
2398+374646678+374815147+375210018+375923222+376811938+377589245+378026186
2388+378115189+378055386+378034008+378066855+378114566+378228125+378465870
2378+378833878+379483384+380778252+382867785+385298120+387405197+389112418
2368+390962399+393237073+395362911+396414705+396095841+395052524+394298745
2358+394413707+395163839+395842390+396019678+395854138+395588876+395084591
2348+394134639+393124916+393187149+395096963+398019398+400499439+402246580
2338+403777541+405003008+405344060+404908957+404489655+404407290+404126290
2328+403146484+401665820+400244273+399263999+398732135+398363441+397800226
2318+396859156+395649333+394454562+393474974+392701188+392050030+391498844
2308+391022637+390575194+390216411+390075552+390142055+390292979+390497909
2298+390778379+391046633+391188115+391225417+391312269+391620818+392164774
2288+392703120+393011793+393193662+393415514+393516203+393280109+392863861
2278+392548332+392346923+392192852+392181976+392350943+392537487+392643816
2268+392744567+392856787+392906835+392950370+393126194+393386314+393546836
2258+393605891+393766600+394145858+394666878+395240034+395870717+396580307
2248+397336329+398057480+398612249+398856071+398763734+398489715+398208497
2238+397914534+397471453+396850306+396211831+395715493+395325297+394875547
2228+394337512+393953674+393998798+394424115+394901506+395239317+395546930
2218+395960281+396449234+396968446+397606796+398478403+399557309+400724345
2208+401966889+403424398+405182821+407131121+409105973+411108311+413275440
2198+415605492+417790228+419493554+420802227+422190117+423981199+426050444
2188+428044524+429701603+431001208+432134836+433274199+434387135+435388164
2178+436332008+437276444+438068990+438441142+438287164+437775151+437193207
2168+436700172+436200343+435469500+434404119+433072292+431552799+429950193
2158+428520856+427405551+426273231+424648593+422522381+420289653+418204483
2148+416093447+413619110+411007653+409358801+409658218+411667724+414435963
2138+417540828+421037012+424666855+427997654+431002579+433937261+436895285
2128+439732115+442322848+444856084+447743523+451138488+454789958+458453769
2118+462129578+465857928+469619405+473500331+477722371+482432429+487615982
2108+493335857+499943761+507841922+517081695+527406794+538574611+550244158
2098+561588921+571588114+579836488+586505940+591632371+595256916+597790745
2088+599335262+599321176+597297554+593154887+586735676+578447476+569664027
2078+561491879+553851127+546255064+538822734+532243219+527009274+522873588
2068+519250538+515921764+512849122+509739052+506418910+503081660+499769091
2058+496266706+492615204+489185960+486372378+484393195+483076949+481898538
2048+480493508+478937242+477509993+476492666+476100101+476484096+477927956
2038+480899193+485753786+492562071+501180229+511313829+522695520+535192392
2028+548392994+561353887+573205740+583628941+592569515+600121513+606587282
2018+612036253+616127314+618751765+620328942+621128032+620720665+618470547
2008+614442125+609468083+604292538+598992839+593220268+586656958+579255354
1998+571311446+563387607+556063911+549590850+543717995+538026760+532495330
1988+527515741+523391896+520106003+517524682+515600751+514330066+513604085
1978+513210243+513035073+513156704+513646716+514460734+515616270+517183038
1968+518912759+520209902+520808986+521211117+522119715+523727027+525764486
1958+527980884+530323557+532781970+535230910+537474795+539498043+541547469
1948+543873562+546644980+550066153+553936453+557204427+559070363+560333039
1938+562345941+565252047+568215244+570775312+573163233+575646640+578221417
1928+580837454+583597715+586574001+589489331+591915895+593848022+595632123
1918+597318122+598540348+599167229+599690462+600756372+602519407+604528881
1908+606227719+607453249+608388647+609192661+609833317+610299708+610880031
1898+612006212+613703429+615456616+616859714+618014378+618955137+619249755
1888+618681398+617777599+617161189+616947533+616961743+617080538+617289083
1878+617578403+617778472+617635495+617263529+617294443+618272099+619841859
1868+620672673+619755786+617570799+615252310+613290079+611476871+609547113
1858+607428754+605207993+603226565+601900379+601251558+600853477+600335480
1848+599866472+599933473+600283625+599379389+596263928+592278886+589277171
1838+587675500+586614575+585361248+584354049+584550565+585836926+586629409
1828+585755215+583729848+581232854+578221354+574995388+572476518+571146966
1818+570639876+570367633+570117703+569985570+569962198+569734768+569032471
1808+568145749+567813424+568626537+570635638+573254106+575394279+576137711
1798+575629500+575050111+575643399+577645643+579622146+579685034+578204339
1788+577256475+577903301+579602264+581493255+583401636+585368603+587210917
1778+589085142+591715141+595688653+600611276+604654781+605871585+604534989
1768+602424297+600975451+601050617+602820756+605256420+606821007+607438415
1758+608178232+609224199+610215941+611819107+615122171+619683861+623281979
1748+624567405+624612903+625007555+626348451+628573451+631325111+633681621
1738+635095501+636806493+640472111+645016785+646871128+645491964+643175531
1728+641466907+641046452+642003415+643665231+645540828+648429482+653533725
1718+660156183+664702041+664659970+662056024+660028476+660065498+662294923
1708+666205360+670728344+674425750+676988061+679742402+683559910+687178784
1698+689266602+690430740+691000219+690867899+691142386+692916452+695778244
1688+698975041+703290602+709619751+715285495+716438538+714534520+712917081
1678+713170688+715644995+719611402+723693923+727685074+732155642+735984992
1668+737133486+736422463+736553598+738457055+740658308+741665507+742350976
1658+744606765+749406293+756661367+763906032+765451671+761835540+759569529
1648+760429076+761332190+758780162+753927158+749966111+748448207+749827683
1638+753896244+758629144+759444253+754392800+747892066+744245084+744135015
1628+745656409+746802596+747521908+748198776+747915190+746429633+745628798
1618+747181106+749940245+750854017+749495233+747728272+746453629+745624497
1608+745379429+745919552+747017436+748355901+749735627+750875519+751767539
1598+752959412+754721761+756459304+757623316+758619110+760175968+762406265
1588+764909491+767363479+769673493+771605869+772565326+772251511+771514685
1578+771707711+772793005+772818933+771132622+769565044+769190399+768922394
1568+767313618+764915163+763243063+763179552+765360674+770545318+777417893
1558+780040973+776377786+771651741+768403836+765950658+763727030+762282547
1548+762382519+764342568+768123740+773501348+780138515+786705876+789482342
1538+787043936+783633109+782457877+783008471+783344973+783619272+785881045
1528+790627595+795922806+800211754+804808221+811236407+817630189+821105649
1518+822369820+823697005+825933410+829036967+833179758+838986173+847413923
1508+858545529+868228351+869920209+865637681+861777790+861259045+864326951
1498+869245024+873197532+875344998+877732296+882306077+888855675+895053003
1488+898913766+901325185+903943217+906768111+908992737+910568479+912524103
1478+916150581+922113810+930054913+938361687+943781739+943690368+940430122
1468+938896325+941502453+946791245+951322643+953779436+955466432+957464812
1458+958997612+957563600+952666406+947467676+944241835+942773730+942004120
1448+941536670+940948618+938786256+934581450+930548727+929345137+931295775
1438+934861795+938223634+940179631+941132295+942526792+945169131+948255298
1428+950095929+950224011+949657960+949354616+949502954+949811346+949504013
1418+947458452+943914183+940974608+940199389+940958777+941516663+941155729
1408+940465773+940352837+941655402+944601522+948150340+950823905+952057973
1398+952472009+952988074+953640759+953573446+952442903+951374499+951852918
1388+953788785+955002160+953952330+952698629+954482231+959564286+965441940
1378+970309965+974748247+979513807+983327762+984584330+984147483+984108217
1368+985055333+986137199+987267057+989945172+994947635+1000222342+1002949320
1358+1003086626+1002553546+1002484488+1002706932+1003510447+1006111402
1350+1010781664+1015753774+1018471715+1018225276+1017329081+1019228860
1341+1025351458+1032886379+1035981521+1032140827+1026156345+1024617811
1332+1029330019+1036688742+1041826703+1043107890+1042366328+1042103060
1324+1043611864+1046621494+1049866096+1052127557+1052576683+1050991092
1315+1048526945+1047478112+1049624892+1054809847+1060738360+1064337476
1307+1064632531+1064104624+1065752042+1069543997+1072901286+1073741823
1298+1072008643+1069438665+1067442217+1065020078+1060445799+1054067786
1290+1047642779+1041686344+1035860794+1031027922+1028399793+1027328647
1281+1025912959+1023075288+1018673342+1012913672+1007063068+1003247304
1273+1002243969+1002368000+1001389533+998575983+994432381+989831738+985758814
1263+982516519+979109431+974478497+968723564+962649331+957177174+953117651
1253+950155015+946495442+941045910+934937522+929216183+922768177+914154507
1243+903897407+893835887+885388754+878869696+873440108+867729676+861074558
1233+853971312+847730294+843814246+842567526+842359293+841110765+838735184
1223+836874172+836621250+837576531+838643813+839119428+839300050+839929300
1213+840971215+841954232+843605016+847457178+853375407+858941553+862150504
1203+863746877+865937036+869794247+874776952+879754921+883733170+886286569
1193+888063690+890541611+894571280+899592628+904420390+907930254+909556357
1183+910269124+912379007+917006638+922342860+925942786+928110508+931119515
1173+936174769+942827019+950019455+957237943+965013818+973374380+980615867
1163+985307943+988073191+989573020+988896775+986226140+984393860+985700663
1153+989615402+994404147+998887491+1001804753+1001371957+997113612+991465818
1143+988721762+991380805+997226361+1001339485+1002076373+1002441545+1004348056
1133+1005864837+1005652490+1006071824+1008968519+1012571125+1014667732
1124+1015248990+1014840065+1013837104+1014254381+1018283427+1025054347
1115+1031189099+1033805011+1032533298+1029254790+1026714355+1026913364
1107+1029954407+1034843187+1040436445+1044633024+1045167475+1042274707
1098+1038935307+1036152047+1031134625+1023714884+1018546507+1018408267
1090+1021153258+1024106296+1027373585+1030775935+1031795849+1029724048
1081+1027195517+1026131975+1025096604+1020233628+1010527184+999746602+991096782
1071+984635563+979994532+978197530+979673425+982365127+983916937+984366062
1061+984885306+986052685+987441011+987320845+985057826+983454036+985944984
1051+991807306+996628461+996955676+992753425+987482084+985218754+986462856
1041+988046577+987359924+985051843+983170388+982780160+983681030+984125606
1031+981719547+977014008+973639206+973422247+974815934+976199710+978056609
1021+981146329+984838187+987856792+989646627+990916284+992077118+991079829
1011+985163034+975419131+966134514+959628981+954525237+948670892+941526885
1001+934401762+929258815+926257474+923503009+919694538+915444357+911270340
991+906060017+898903669+891422536+886487947+884767793+883834513+881198345
981+877232125+873682558+870696488+867302987+863729612+861064586+859293075
971+857647589+856171195+854797203+851650516+845191728+837707105+833522056
961+833990504+836309991+837250625+836706077+836850488+839210487+843541256
951+848399059+852328880+855063650+857540512+860719982+864923791+869943145
941+875047824+879658315+884567226+891453450+900559564+909959984+917795506
931+923957807+928871018+932672197+935881584+939018361+941391948+941865942
921+940523425+938181376+935361530+932646207+930930354+930668457+931340712
911+931749638+931039301+929223288+926874944+924737700+923462808+923307054
901+923926207+924830006+926270313+928768241+931956562+935283934+939026588
891+943329621+946804832+947404103+945121638+942942510+943809287+947497780
881+951973084+956485660+961285437+965231650+966226757+963901661+960061092
871+957135478+956582952+957712373+958669649+959233954+961216815+965183471
861+968809949+969998269+969389836+967889633+964965515+961451350+960351222
851+962865979+966965266+971602682+978406760+986452884+990503183+987466191
841+981083691+977657220+979347955+983815593+988075621+991070356+993032835
831+994380837+995588104+996967705+998227140+999652551+1002848164+1007958951
821+1012808589+1015574522+1016767954+1018126176+1020248773+1021810306
813+1021755957+1020711362+1019721677+1020650407+1024976625+1031992614
804+1040073142+1046356107+1046572755+1040518092+1031961077+1022738101
795+1013237646+1004997686+1000474328+1000513407+1003505025+1006528866
787+1006611137+1002861003+996429140+989934514+985543289+981997026+976236047
777+968515954+963059254+962522870+965035695+967525084+968820918+968847968
767+968083594+968099487+970489465+974914597+978899764+980382079+979428170
757+977799698+978131526+982539704+990294451+997324588+999800889+997256652
747+991694619+985827498+981917684+980184878+978839868+976638864+974517763
737+974057106+975384228+977614401+979217942+979749526+981352942+987421316
727+998709237+1009924360+1014556354+1012411257+1008646290+1007289937+1008963283
717+1012741090+1016630087+1018360649+1017179123+1013322598+1006293894+996246959
707+987088429+984031119+987493615+992895592+995364601+992584707+986287220
697+981323524+981802068+986870223+990183260+987784057+983990918+982990077
687+982117379+977420565+969450605+960581706+953079881+950109704+952449385
677+955126689+953540849+949753694+948477680+950676627+951896048+948662104
667+945475030+945890126+945384095+940723681+933662443+927857524+926194711
657+930645645+941515417+955870932+966894775+967071533+955717546+940594665
647+929752068+926377016+930409926+941108548+956792182+971758312+976164932
637+965618200+947136161+930326470+921382593+923381783+934351776+945214505
627+944072867+928309953+909561779+899094326+898825885+903847234+908471249
617+911113277+914498238+921861636+928928795+925222913+908610549+888402560
607+876490250+878110494+888792912+899455509+906724981+913860076
##END=
