##TITLE=<SNM>
##JCAMP-DX=4.24
##DATA TYPE=INFRARED SPECTRUM
##DATE=29/4/2025
##SAMPLING PROCEDURE=Instrument type and / or accessory
##ORIGIN=Admin
##XUNITS=1/CM
##YUNITS=ABSORBANCE
##RESOLUTION=4
##FIRSTX=4497.3318
##LASTX=599.83466
##DELTAX=-1.4281778
##MAXY=2.1522295
##MINY=0.39217299
##XFACTOR=1
##YFACTOR=2.00442e-09
##NPOINTS=2730
##FIRSTY=0.40354979
##XYDATA=(X++(Y..Y))
4497+201329959+200350584+199332373+198472420+197863861+197330059+196569739
4487+195780113+195654104+196633524+198525500+200670253+202148370+202259095
4477+201165234+199834803+199377736+200469798+202785105+204874176+205441015
4467+204704960+203790381+203406600+203759619+204759690+205722517+205748239
4457+204748167+203447369+202450598+201934475+201941151+202365626+203017363
4447+203929742+205053087+205620729+204701451+202626267+200844257+200131351
4437+200062600+200308760+200999571+201658638+201355607+200217692+199432496
4427+199542656+199829227+199536649+198871649+198537692+198901817+199825525
4417+200832347+201329261+201058435+200350153+199736672+199511343+199690462
4407+200037101+200163883+199915865+199513529+199198633+198974389+198706507
4397+198356240+198185090+198575829+199439410+200180580+200495863+200682980
4387+200931281+200859095+200068979+198806779+197736484+197199575+196979643
4377+196850601+197000131+197575475+198076329+197790709+196836863+196186850
4367+196492646+197352183+197934931+197961427+197817903+198009317+198688189
4357+199530256+200123843+200464966+200704465+200603271+199875691+198913950
4347+198449018+198569852+198628329+198131817+197401932+197113249+197347440
4337+197470252+196993916+196203622+195757736+195960748+196592591+197294643
4327+197900481+198338502+198413646+197963568+197255465+196922132+197320097
4317+198213028+199204313+200050483+200471181+200193040+199395965+198675581
4307+198456853+198805515+199555249+200209915+200174321+199396738+198351868
4297+197449556+196991954+197336452+198429511+199604761+200377526+200922479
4287+201310333+200977521+199585060+197816669+196705546+196613065+197272905
4277+198325789+199366303+199912817+199807728+199473533+199491330+200025920
4267+200753530+201185648+201075845+200615359+200123337+199664858+199244591
4257+199148854+199672471+200605769+201362149+201639993+201688033+201867255
4247+202150050+202175416+201786758+201286024+201039046+201093940+201314883
4237+201586646+201802653+201909675+201932914+201831423+201572045+201395276
4227+201575049+201876771+201718587+200961553+200221290+200245807+201110979
4217+202172606+202886463+203351647+203897730+204555831+205103564+205248203
4207+204748376+203716842+202720711+202281769+202364095+202602954+202811482
4197+203053359+203406214+203833529+204189089+204217176+203701052+202824759
4187+202275316+202651930+203756957+204735366+204948072+204548917+204244533
4177+204598934+205560646+206655176+207557102+208264238+208748008+208779589
4167+208257473+207529908+207191565+207486046+208004192+208141337+207753259
4157+207097835+206334511+205530077+204928862+204788118+205129762+205814879
4147+206535501+206755671+206198377+205308241+204691504+204367033+204124338
4137+204229130+205069680+206325055+207138678+207157710+206922880+207069065
4127+207527529+207818680+207747178+207408791+206880356+206267128+205768832
4117+205490542+205462069+205832646+206695603+207759489+208487932+208544833
4107+208019432+207367620+207135452+207527588+208243319+208853990+209195306
4097+209260980+208956893+208255659+207529060+207382979+208003731+208871296
4087+209310640+209237399+209135372+209299310+209423356+209100580+208451356
4077+207991390+208038567+208488170+209030194+209343900+209207855+208690438
4067+208176203+207987272+208033126+208006333+207824107+207672004+207674576
4057+207696091+207483251+206933109+206216293+205689494+205642258+206082523
4047+206781765+207445500+207819438+207814576+207599164+207448563+207538398
4037+207897467+208386396+208774831+209045672+209443667+209995043+210335794
4027+210294223+210172198+210187929+210212075+210270121+210646378+211278207
4017+211600700+211209664+210302043+209356925+208704043+208441944+208505625
4007+208746536+209099792+209634992+210283934+210696678+210637056+210300125
3997+209991385+209774828+209622636+209630056+209935421+210535743+211172761
3987+211482200+211426741+211413449+211728761+212075505+212029547+211742202
3977+211723423+212099651+212551454+212819619+212808676+212395233+211650123
3967+211046425+211013447+211566429+212583659+213909153+215002523+215181344
3957+214415315+213318539+212438975+212095859+212631133+214082726+215653978
3947+216277332+215929473+215645399+216070514+216673453+216641516+215935732
3937+215087763+214682067+215203573+216665751+218154589+218435585+217391101
3927+216209086+215972517+216494810+216792875+216659878+216982401+218258459
3917+219563881+219594138+218324816+216809543+215891975+215721168+216196686
3907+217538476+220126021+223757307+227396279+229836748+230161546+227921220
3897+224131557+221179708+220836816+222868881+225067561+225079069+223362093
3887+222535103+223803904+225619904+226364613+226561974+226505505+225187058
3878+223038246+222201503+223684750+226670647+230245433+233591797+234977731
3868+233851546+232181360+231569797+231368688+230171879+228009523+226074829
3858+225716369+228506689+235745441+244443874+246476623+240667176+232883917
3848+227317433+225351709+226553276+229386922+232305659+234895123+237465867
3838+239529008+240002147+238956831+237283091+235327567+233112086+231230146
3828+230411720+230624099+231788777+234702192+239284379+242475950+241947188
3818+239864035+238419223+236710899+233708231+230744383+229839930+231974810
3808+236077495+239218557+240356206+241841371+244894591+247047165+246373393
3798+244345252+242423970+240696035+239316361+238797175+239271042+240621976
3788+242899146+245912133+248812434+251056402+253529745+257431960+262230943
3778+266041005+268194768+269934300+273091375+278932864+286941467+294556060
3768+299816763+303013240+304804186+305856981+307941398+312542156+318652850
3758+324037644+328845815+335362146+345177931+357681936+369435924+376979863
3748+381637983+387063218+394129171+399139789+399653459+399136488+402169503
3738+410380701+421029201+428539567+429933828+427131063+423456481+421003509
3728+420646729+422229162+424746396+427053540+427993217+426788825+424273078
3718+422203054+421402544+422028470+424557182+428549678+431247383+430487018
3708+427744708+426056591+427262053+430947429+434600958+435952814+435434297
3698+434890860+435584258+438175952+442900742+449270917+455888769+460333648
3688+460477543+457196644+453279471+450770237+450595713+452748435+456851967
3678+462751383+468770637+470676693+467886954+464942733+464259534+463524683
3668+460165071+455546025+451864574+449458496+447850816+447227091+448320892
3658+451216048+454730439+457806066+461350164+466991049+474083051+478024430
3648+474866254+467660629+461457335+458210930+456984533+455985354+454987988
3638+455302542+457442239+460289251+462940567+466380854+472132865+478554426
3628+480312484+475974091+470157611+467255765+468926189+474334950+480511273
3618+484368319+485961398+487490157+489624085+491298167+492427890+494095222
3608+495777243+495815900+494835693+495393879+498687951+502822915+504669261
3598+503709899+502462626+502814054+503846271+504345072+505522999+509077118
3588+513506623+514962587+512736148+509592096+507603431+507185929+508086889
3578+509695342+511148451+511575350+510484551+508753762+508741332+512285281
3568+518303197+523009312+523974265+522226288+519403035+515793725+511359283
3558+507256821+505493441+507026303+510356327+512471373+511840897+509935435
3548+509293600+510884509+513647039+516164778+517957777+519146349+519745958
3538+519440265+518098312+516418669+515605908+516188330+517342824+517589102
3528+516131414+513467192+510871127+509211884+508278571+507599030+507475921
3518+508534068+510362274+511222079+509978851+507862675+506847229+507023984
3508+507253431+507444281+508562080+510853821+513094176+513761525+512521330
3498+510409258+508745733+507934637+507586957+507645062+508527585+510300601
3488+512608875+515030327+516713954+516342841+513635620+510264679+508047637
3478+507094222+506513109+505949243+505445208+504626916+503155608+501399067
3468+500222806+500490554+502422720+504917086+506033041+504831861+502404462
3458+500505066+499760580+499807445+500242313+500833715+501409534+501947053
3448+502488081+502758922+502206892+500584819+498133809+495271869+492633935
3438+491113205+491298672+492979683+495228156+496836847+496974528+495690323
3428+493746471+492004352+491025660+490824165+490630937+489651294+488392246
3418+488028032+488396290+488072251+486640255+485500302+486034639+488066155
3408+490236629+491231200+490649790+489102654+487587960+486695386+486342710
3398+486027294+485383437+484600680+484079071+483855422+483751581+483902822
3388+484652452+486015786+487618292+488986413+489769200+490051935+490484811
3378+491565737+492821543+493306845+492819789+492046459+491691404+491882194
3368+492161985+492095732+492152202+493395341+495934133+498429807+499577997
3358+499467318+499179824+499513945+500311778+501049305+501692924+502479993
3348+503206755+503361921+502878939+502294436+502262202+503088879+504365412
3338+505231877+505153789+504301122+503261233+502438421+501636900+500402236
3328+498847696+497692459+497471962+498193223+499538388+500945643+501826263
3318+501961327+501449024+500592491+499922763+499650733+499278906+498527284
3308+498073176+498332509+498469773+497774115+497005484+497152263+497912837
3298+498531774+498953766+499344030+499500682+499290385+499076995+499486409
3288+500949449+503201046+505149983+505746380+505118522+504539966+505113347
3278+506667085+507961817+508018614+507270619+506780798+506848062+507102845
3268+507020237+505991767+503954096+501945209+501071132+501295584+501863374
3258+502229253+502273085+502186195+502076110+501562202+500385465+499225321
3248+498974166+499373588+499235313+498013436+496513402+496048381+497344481
3238+500058184+502908973+504516296+504393008+503029763+501165754+499112917
3228+496919069+495075756+494362673+494817197+495476487+495468190+494907804
3218+494288926+493687681+493201874+493440689+494760251+496375751+496878122
3208+495608458+493173476+490697785+488910972+487847561+487169745+486734074
3198+486823105+487698521+489077943+490184293+490190776+488763924+486430820
3188+484190167+482643506+481718698+481060002+480338384+479395823+478415734
3178+477658819+476971576+476015574+474879249+473928213+473326552+473067933
3168+472990528+472711867+472129208+471710308+471709297+471531175+470405050
3158+468404163+466443688+465400914+465341352+465532885+465304895+464766365
3148+464335809+463874118+462945117+461757794+461057318+461050954+461130976
3138+460758198+460101138+459615985+459395815+459130565+458427680+457154864
3128+455684062+454626510+454114594+453654301+452859947+451905491+451054638
3118+450189303+449083815+447934673+447307707+447467362+447990340+448276793
3108+448232010+448138101+448131530+448142146+448110446+447967443+447488386
3098+446383523+444699004+443097330+442415470+442745517+443200219+442884981
3088+441946464+441248665+441135161+441147531+440940683+440622353+440078441
3078+438998050+437813433+437544317+438378310+439295416+439419121+438949996
3068+438442184+438011063+437641615+437459300+437235710+436385541+434868201
3058+433390886+432456176+431809969+431073186+430473547+430557969+431262667
3048+431694472+431206257+430303037+429920714+430291380+430969910+431372693
3038+431020492+429900017+428704011+428217460+428496092+428805829+428275060
3028+426765363+425131723+424306056+424264127+424308138+424062751+423594459
3018+422900912+422019965+421406023+421506593+422043219+422256936+421851061
3008+421186151+420615446+420138649+419615672+418989538+418361620+417893565
2998+417558404+417200703+416900839+416834972+416750015+416135567+414932692
2988+413567900+412369277+411425378+410898683+410980251+411469121+411756584
2978+411425378+410686215+410071233+409875685+409981933+410025706+409722601
2968+409129296+408491654+407911701+407430741+407257585+407536544+408064487
2958+408501913+408638434+408302440+407356964+406019263+404831286+404051533
2948+403395573+402577697+401706236+400936058+400242303+399728693+399646590
2938+399983773+400414508+400626381+400521024+400330472+400467231+400925561
2928+401110731+400633102+399818557+399093340+398438600+397673001+396808558
2918+396000942+395382926+394931256+394406019+393550556+392426245+391444788
2908+391053722+391447108+392464397+393575148+394041359+393454983+392227545
2898+391266101+391115693+391640901+392419614+393085624+393324498+392931499
2888+392005561+390874856+389816531+389037045+388780180+389066603+389430163
2878+389393200+389118761+389026429+388912032+388186221+386997738+386342730
2868+386779472+387568057+387501893+386343384+384893427+383846996+383264605
2858+383034503+383158891+383540382+383902306+383977481+383697183+383291665
2848+383130879+383293390+383413853+383083182+382321717+381581335+381243051
2838+381179325+380978455+380591373+380408969+380576208+380665239+380227814
2828+379347937+378459913+377842016+377480122+377289421+377218499+377148767
2818+376938350+376633193+376447042+376461405+376481656+376259642+375801282
2808+375361270+375119065+374992238+374824762+374554099+374105285+373373050
2798+372422966+371513264+370843149+370385027+370000116+369686722+369643694
2788+369980401+370409203+370449793+369927916+369066268+368167658+367406103
2778+366797246+366216788+365578848+365024082+364756839+364743279+364753925
2768+364631767+364358071+363980298+363626908+363417384+363206611+362614852
2758+361496637+360268099+359610652+359811345+360398494+360555741+360016973
2748+359336570+359095257+359148754+358926948+358202892+357266991+356522179
2738+356136406+355983530+355805170+355462604+355022116+354619333+354353904
2728+354286848+354392116+354511062+354467915+354257290+354041046+353923051
2718+353803301+353526573+353079691+352541072+351929211+351232988+350511935
2708+349875542+349404871+349105245+348936906+348922960+349120173+349366808
2698+349232458+348446817+347272994+346268611+345759639+345670786+345761423
2688+345848700+345816941+345613216+345326733+345121254+345014410+344865905
2678+344585132+344188357+343726101+343312762+343095923+343028867+342804445
2668+342203379+341460202+341080882+341262810+341645044+341729021+341443698
2658+341139790+341095601+341200066+341155818+340883698+340586778+340432802
2648+340369017+340290096+340170912+339977148+339657509+339250980+338857892
2638+338534298+338288971+338101155+337919999+337750858+337694923+337790467
2628+337884434+337763109+337381826+336942646+336727918+336805531+336949962
2618+336916151+336673322+336307770+335922562+335737333+336023072+336753046
2608+337455127+337561911+336919511+335917804+335124818+334828017+334921985
2598+335107749+335121755+334906313+334659440+334609185+334707762+334674665
2588+334350655+333871152+333465337+333209632+333057291+333019050+333166216
2578+333450588+333667427+333666743+333532601+333494330+333670579+333934254
2568+334053676+333909691+333534118+333061573+332729743+332760074+333102610
2558+333433162+333502002+333363638+333187478+332977657+332614305+332106225
2548+331658868+331506646+331773681+332401867+333093778+333480681+333475745
2538+333307465+333172431+333056607+332909560+332798969+332846459+333080307
2528+333393196+333641556+333722529+333562368+333191403+332846042+332780681
2518+332961391+333154381+333271097+333403693+333582380+333728565+333821284
2508+333911654+333971365+333889381+333651161+333396021+333274785+333325069
2498+333471998+333611760+333721488+333832941+333875137+333730469+333498107
2488+333439436+333604653+333764755+333725621+333524780+333359504+333389033
2478+333525732+333491386+333200503+332919254+332893324+333004836+332976200
2468+332818833+332866918+333292300+333776174+333870112+333539797+333098090
2458+332776370+332637202+332703128+332893324+332973166+332779195+332433982
2448+332216281+332246671+332409390+332582933+332779760+332999275+333159972
2438+333272763+333486123+333895239+334402575+334741602+334663722+334254368
2428+333963187+334103098+334482032+334725277+334725634+334606122+334506088
2418+334539453+334734347+334963765+335103616+335200081+335338208+335477256
2408+335560429+335661385+335902728+336339112+336983921+337816159+338691367
2398+339382683+339788321+340010304+340198269+340408358+340634178+340872844
2388+341089684+341151357+340863477+340095113+338849090+337223836+335335740
2378+333283736+331178265+329165989+327365081+325772299+324290702+322846960
2368+321482764+320393542+319808980+319704931+319747514+319737790+320020199
2358+321207403+323603311+327162574+331803626+337129214+341907529+344646182
2348+344691441+342667984+340177989+338654196+338236902+338302888+338520798
2338+338874247+339342271+339856566+340383053+341022568+341929445+342974687
2328+343731305+343983620+343979219+344120171+344667741+345712358+347148041
2318+348619260+349695011+350206748+350369854+350526536+350808855+351145414
2308+351548523+352163447+352974364+353706717+354169389+354520608+355021789
2298+355676232+356299541+356829953+357365122+357941923+358430109+358657297
2288+358615160+358531303+358659408+359013630+359422984+359751187+359893834
2278+359723532+359261693+358738626+358317764+357951885+357566469+357151584
2268+356670029+356114757+355653513+355498764+355608878+355700378+355617353
2258+355533139+355687264+356084396+356594230+357147539+357664986+358028070
2248+358273248+358536507+358740857+358693308+358487709+358406706+358460351
2238+358406082+358182522+357995360+357972284+357982454+357866333+357675840
2228+357555674+357509791+357471936+357507501+357706528+357961490+358101133
2218+358190759+358503826+359230589+360326531+361607971+362928335+364253755
2208+365592943+366910364+368183180+369532687+371158982+373075149+375039103
2198+376826214+378447870+380068039+381845396+383829809+385883508+387776213
2188+389409615+390860613+392264388+393732841+395223656+396437296+397083146
2178+397273282+397415512+397729233+398063235+398170465+397974768+397536451
2168+396935593+396271039+395646451+395079880+394480212+393706852+392685429
2158+391548450+390542461+389703859+388822912+387768154+386646103+385677730
2148+384999855+384538372+384315824+384986295+387466893+391839869+397261655
2138+403025590+409008298+415135317+421199086+427171892+433158049+439106202
2128+444847211+450347680+455737231+461017739+465918926+470177297+473714050
2118+476490497+478598674+480445109+482450189+484753348+487464434+490937640
2108+495680599+502122796+510319216+519676790+529072071+537471650+544463261
2098+549944848+553411660+554214251+552588432+549580277+545932250+541720654
2088+536729008+530639249+523116185+513955051+503317078+492003608+481087955
2078+471078792+461897080+453497470+445984220+439454180+434021213+429611304
2068+425848107+422509341+419697180+417387181+415359977+413530462+411935985
2058+410654962+409838633+409482477+409384287+409532197+410093565+411040438
2048+412274864+414001014+416702139+420889172+426826055+434438091+443700984
2038+454872283+467908067+482014161+496135956+509466548+521378676+531368747
2028+539114063+544620509+548489717+551541168+554030895+555836086+557011336
2018+557483731+556789560+554595534+551097855+546921527+542742107+538651480
2008+534074362+528644101+522685956+516643300+510641858+504665276+498690211
1998+492782499+487343109+482947295+479656553+476783581+473686008+470564021
1988+468054401+466360187+465228561+464495048+464201786+464330010+464757503
1978+465404215+466236751+467218594+468368568+469794468+471584284+473664300
1968+475753059+477490688+478766805+479930725+481471973+483471254+485565366
1958+487469073+489287794+491263137+493433879+495654847+497898831+500388022
1948+503303756+506554621+509940490+513155553+515632136+517110402+518249671
1938+519886909+522097766+524486091+526861332+529278502+531826751+534550505
1928+537378456+540208132+542998555+545592063+547784364+549738773+551774303
1918+553707480+555019935+555674318+556216595+557207716+558815515+560703016
1908+562313194+563399948+564138903+564765274+565358876+565935529+566570346
1898+567426463+568646793+570217362+572066206+574169714+576177291+577167937
1888+576576713+575156136+574157522+574045236+574420096+574666850+574486408
1878+574106494+574016570+574455601+575454751+577225150+579726890+581714009
1868+581281698+578219661+574466961+571890998+570919265+570800616+570509435
1858+569532468+567937040+565922920+563704510+561762710+560653832+560510085
1848+561153942+562395505+563499268+563006533+560523704+557528693+555325805
1838+553898032+552542043+550889461+549524848+549454313+550628671+551402060
1828+550456020+548336157+545933856+543314299+540534521+538137810+536539289
1818+535619833+535016953+534667667+534891762+535745797+536523172+536419807
1808+535621082+535126027+535699646+537330937+539306934+540647044+540853654
1798+540398684+540393212+541829669+544678079+547172385+547312682+545867840
1788+545213338+546117449+547580788+548830022+550229962+552021474+553723359
1778+555300172+557685702+561779600+567296752+572127225+573781710+572394676
1768+570035017+568310591+568171305+570000463+572860292+574927997+575873145
1758+576858854+578103034+579116398+580638258+583958766+588624737+592232976
1748+593318660+592945941+592830920+593799560+595814513+598294308+600403703
1738+602181001+605142707+610259009+615013357+615483849+612736782+610035092
1728+608434609+607890964+608454651+609968363+612353239+616340858+622624084
1718+629759799+633866246+633147869+630010419+627059239+625534049+626215493
1708+629486876+634229805+637903941+639898078+642903497+648786765+654751691
1698+657148818+656665420+654371954+650688481+647756749+647444634+649443588
1688+652796390+658119302+665917013+672086882+671596823+667163095+663862689
1678+663889690+667093868+671433926+674645539+677139369+680379886+683102451
1668+682682154+680241492+679198986+680615638+682558985+682952935+682433437
1658+683159486+686889764+694673856+704774013+709715939+707546594+705697691
1648+707051837+708113969+704841515+699298850+695620253+695145300+697826769
1638+703590972+710767842+714022930+710174537+704136876+701210437+702327820
1628+705579815+709131912+712996422+717127550+720109715+721988771+725288464
1618+731558011+738612901+742360665+742503282+741593639+740912076+740333997
1608+739327234+737587107+735655596+734936327+736626199+740607990+745507512
1598+749977161+753773039+757374618+760924930+763889908+765673985+766228513
1588+766004240+765753798+766443866+768537263+771154144+773123659+774860396
1578+777723198+781317699+783129907+783133535+784300221+787993151+792693021
1568+796130930+798145585+799980512+802865022+808528953+818717606+831025646
1558+835749068+831123836+826217118+824698529+825446464+826426583+825880738
1548+823759209+822559635+825176634+832332213+842173721+850150327+849783259
1538+841878734+834635313+831755799+831447430+830399334+828440524+828342155
1528+831379928+836276536+841538607+847207950+852960555+856703442+857806492
1518+858015600+857597979+855885388+854725304+857236144+864394696+874790316
1508+885559249+891295440+887917600+880743109+876792422+877977485+882796600
1498+887734006+889486563+888505076+888252018+890750190+895038506+898342362
1488+899070968+898522684+898234358+898597739+899935708+902488001+905657685
1478+908805067+912728039+918969633+927063521+932783654+932278548+927380037
1468+922062954+918178818+915897961+915075149+915823441+918604170+923531526
1458+928245848+927589145+921329173+915375132+912464275+911611429+911263273
1448+910245330+907937948+905242324+904280048+906125204+909659459+912938039
1438+914397392+912871726+909396290+907204524+907701244+909209901+909245585
1428+907859859+907691134+910439450+915307511+920741221+926017803+929855610
1418+929434837+924402749+918544043+915208072+914769695+915337664+915155022
1408+914578964+914831547+915448462+914975175+913888183+914137078+916200204
1398+918338801+918872989+918444663+919043083+921077661+922818264+923103854
1388+922742079+922656140+922474628+922052368+922195877+923271450+925277065
1378+928766120+933701683+938190959+940269012+940733557+942195944+945971065
1368+951071666+955428138+957986081+959190176+959557720+959283192+959158774
1358+960209190+962247158+964033734+965001541+965991116+968507606+973182438
1348+978773812+983236681+985944556+988342457+992214757+997596012+1002482688
1338+1005354649+1007622363+1011389634+1015925893+1018856376+1019848627
1330+1020691125+1022696443+1026051921+1030467688+1035073769+1038721023
1321+1040955789+1042270741+1043698931+1045760629+1048020611+1050405130
1312+1053423396+1056913521+1060088439+1063338055+1067782726+1072172682
1304+1073741823+1072325647+1070200550+1068773550+1068099600+1068290509
1295+1068883100+1067368793+1061912483+1055163106+1051274272+1049775309
1287+1045916092+1037640038+1028643883+1022939331+1020544107+1019241882
1278+1017657515+1015538485+1013197144+1011824502+1012353576+1013392216
1270+1011989600+1007016093+1000556470+994855189+988973824+980540999+970463739
1260+962673581+959093591+957152386+953209907+946765568+939945597+934801818
1250+931573850+927989757+920952708+910154574+898868283+890126019+883295758
1240+875442083+865409666+855148991+847023523+841332234+836620707+831688118
1230+826953872+823707706+822236457+821199185+819050715+815616613+811884610
1220+808890491+807299047+807418112+808948477+810903540+812328696+813227634
1210+814428874+816462203+819105906+822186916+825951154+830301619+834396112
1200+837323264+839064640+840957851+844853227+850993479+857017639+860346652
1190+861309643+862165105+863802403+865374161+866812580+869623938+874753145
1180+881214910+887257507+891992645+895372269+897803832+900464068+904957448
1170+912127241+921529063+931655864+940522665+947052824+951432609+953916627
1160+954717493+954949974+955688334+956320831+955855156+955337977+956948333
1150+961297550+966742619+971171649+974084111+976114348+976620584+973998708
1140+969829517+968504156+971433271+975442717+976896540+976015147+976614280
1130+981242783+987279670+989478871+986992177+984460700+985317530+988160409
1120+989973212+989799669+988664504+988693527+991899252+997962962+1003166630
1110+1003301991+999484168+997326599+999732528+1004531302+1007058438+1004217878
1100+997893973+992875088+992547212+996721697+1002151303+1004643944+1002091473
1090+996443719+990449414+984753189+978868255+973298530+970144725+970329924
1080+971950034+972525437+972157833+972996465+974663083+973088054+966214021
1070+959008664+958522113+965805738+974812539+978306531+974416983+966702772
1060+959405826+955323763+956247917+962032401+969021633+972107817+969440027
1050+962529478+953856975+947194608+946403911+951633569+958288978+961627388
1040+961563930+960653812+960030354+959504075+959252742+959018715+957717679
1030+955243653+953295251+952983314+952878284+951632737+950677894+952047265
1020+954461877+954203585+950839542+948618218+950307911+952906415+951802533
1010+947472050+943788339+941465851+937525632+929696757+918691893+907585747
1000+900031995+897598411+898006814+897265183+894014318+889693470+885024109
990+879290773+872500895+865861544+860554154+857022873+854856502+853047803
980+850878934+848382129+845493991+841722557+837402126+834333070+833861805
970+834654939+833846817+830396657+825751265+821341445+817258966+813566334
960+811310753+811368561+813243335+815686673+817785363+819053867+819584131
950+820550451+823430679+828443736+834404736+840210213+845621323+850408203
940+853954531+856434980+859728488+866259300+876548047+888009308+896941351
930+902098630+905139019+907933963+911051489+914039840+915696168+914503076
920+910275840+905317796+902477355+902160542+902304407+901484866+900730627
910+901452691+903063702+903486378+901976888+900534663+901379837+903868553
900+905291033+904730438+904270829+905705383+908295738+911031685+914578964
890+919022267+922193498+922633659+922004730+922101314+922112079+920889845
880+919512802+919989123+923001263+928116197+934527825+940005605+941562138
870+938993490+935466848+933729100+934447953+937576541+942788416+948865210
860+954137094+957474968+958687687+958485121+957347161+954809022+951266084
850+949325830+950628948+952601317+951498625+947690495+944835246+945482136
840+949964454+957661952+966842832+973993653+975827152+973307570+971591054
830+974508155+981305705+987906221+989492312+984953019+978899598+975631604
820+974549608+974034808+975952700+983589239+995576421+1003221107+999197864
810+986979628+975070237+968897750+968878778+972340654+976829989+982257336
800+989423085+996409462+998983641+995707084+989700825+984502866+981276028
790+979556182+976366871+968541624+958234203+950114980+945105314+941466505
780+939342895+940475503+944278815+947492331+947348049+943003114+936141928
770+930466102+928529000+929672016+931883170+934703747+939036549+945091932
760+951012134+953612957+952157707+949688557+949429016+952025379+956841817
750+963394040+970445838+976097815+979030320+979333276+977879513+975022301
740+970959686+966829450+964654158+965582237+968747461+972622379+976188809
730+978055019+976952445+973760874+971122821+970887307+972424273+974347697
720+977128366+980934474+982508491+978347448+970166730+963148296+959177924
710+956720313+954313729+951632439+949373528+948516340+948489875+947897819
700+947946528+949986221+951140239+947765551+942292766+941339113+947718805
690+956900755+960677184+955841477+947754310+943041653+943159291+945375620
680+947713987+952091335+959973616+966574845+963925909+951039908+935264698
670+923300175+919533737+925200166+932359729+932248633+926190038+920951340
660+918233652+913853094+906301899+899546575+898317442+903568867+911484097
650+918475233+925460242+935376329+944659205+942421228+926484966+907710582
640+896732481+897527341+907030267+918915810+930425898+940385758+944190081
630+939731671+928851583+917632497+912984012+913047291+908200165+892428702
620+871210207+854482237+848403361+854926680+871851864+892007156+903495953
610+900779217+895336288+895855787+898052786+900729021+903512903+901393813
600+889662365
##END=
