##TITLE=<SNM>
##JCAMP-DX=4.24
##DATA TYPE=INFRARED SPECTRUM
##DATE=29/4/2025
##SAMPLING PROCEDURE=Instrument type and / or accessory
##ORIGIN=Admin
##XUNITS=1/CM
##YUNITS=ABSORBANCE
##RESOLUTION=4
##FIRSTX=4497.3318
##LASTX=599.83466
##DELTAX=-1.4281778
##MAXY=2.1339884
##MINY=0.5642097
##XFACTOR=1
##YFACTOR=1.9874316e-09
##NPOINTS=2730
##FIRSTY=0.57523942
##XYDATA=(X++(Y..Y))
4497+289438607+291096827+292794726+293761209+293758900+293156895+292248894
4487+290943904+289439386+288579550+288884677+289674784+289811092+289110357
4477+288524877+288915627+290074741+291222039+292009507+292499407+292568865
4467+292248084+292338776+293479686+294856563+294948515+293477107+291764602
4457+291144603+291864922+293414876+294822434+294860192+293188265+291137585
4447+290370361+291167906+292576783+293497020+293400180+292709372+292342795
4437+292457300+292200339+291135366+290028106+289714732+289972713+289970133
4427+289331689+288209884+286844943+285676922+285358330+286257154+288145614
4417+290247608+291443281+291006105+289582982+288576491+288242274+287555995
4407+286152636+285137597+285507744+286756080+287690563+288001418+288202296
4397+288431876+288421139+288423358+288974109+289922418+290605548+290735079
4387+290437030+289781431+288854686+288106566+288203676+289250204+290217797
4377+289848311+288269776+286739675+285952447+285811280+286292003+287139003
4367+287309740+286195942+284877277+284869869+286230162+287935228+289452492
4357+290785733+291538532+291185600+289925927+288392618+287024648+286141239
4347+286076519+286911283+288244793+289456481+290271781+290807656+290900418
4337+290052158+288457428+287071074+286229532+285415852+284674569+284915875
4327+286428251+288241554+289217754+288995913+287885863+286432270+285114564
4317+284216880+283888871+284157978+284785625+285398457+285962404+286836666
4307+288092170+289173638+289543215+289317684+289035680+289027253+289148776
4297+288932932+288062149+286868516+286085696+286005201+286259823+286499719
4287+286946192+288119912+290016709+291722705+292261940+291652527+290631400
4277+289742713+289208757+289197241+289640295+290025107+289805364+289114106
4267+288832523+289588920+290719033+290783484+289297440+287362434+286402849
4257+286759889+287679917+288292958+288223620+287556684+286937375+287434142
4247+289316724+291208363+291502753+290398372+289483083+289582832+290026366
4237+289959427+289646053+289973462+290901108+291261747+290413817+289100131
4227+288244493+287945095+287862681+287786744+287671879+287607639+287729821
4217+287997129+288368535+289004100+289848041+290378008+290140271+289251164
4207+288353450+288204965+288980287+289942692+290265213+290017729+289844592
4197+290025736+290397292+290762070+290889351+290605038+290191735+290094655
4187+290165343+289880491+289232570+288643971+288178304+287654694+287269823
4177+287420766+288066528+288713249+288904651+288627536+288380711+288637673
4167+289121004+289036460+288170686+287329444+287465063+288585818+289696018
4157+289853289+289226452+288771132+288918326+289179816+289148596+289044648
4147+289045817+288917007+288604743+288506193+288787746+289074279+289103699
4137+289088704+289189563+289260611+289350464+289870114+290955451+292040068
4127+292313194+291452788+289909402+288668293+288543052+289336158+289938883
4117+289660179+289040359+288906300+289259951+289588411+289650941+289471776
4107+289121424+288953865+289509415+290691532+291516369+291272364+290438860
4097+289758848+289061862+287891472+286763458+286692050+287716595+288885966
4087+289530199+289863396+290372820+290995968+291137915+290490114+289611144
4077+289386933+289954358+290507748+290222476+289119954+287944405+287412279
4067+287743167+288659116+289399079+289017476+287340631+285416152+284415239
4057+284371243+284546899+284753295+285581041+287338981+289340837+290470860
4047+290293464+289388672+288621538+288315601+288273914+288323549+288462946
4037+288687997+289104179+289989717+291299415+292300508+292231709+291287719
4027+290470860+290385806+290566050+290295953+289732186+289589700+290037463
4017+290567370+290669579+290128155+289024434+287875427+287393775+287819674
4007+288747679+289707924+290591153+291407502+291991153+292198029+292260380
3997+292612892+293256464+293576796+293097543+292226401+291857784+292349093
3987+293210219+293615064+292984058+291408642+289738784+288965562+289324732
3977+290170472+290675967+290410248+289520422+288683618+288541312+289059343
3967+289795017+290558343+291326287+291855654+291833071+291253139+290522624
3957+290264583+290791521+291609430+291830912+291229687+290470500+290251747
3947+290570939+290909565+290951432+290867878+290844755+290759221+290594992
3937+290567250+290564491+290233273+289855239+290273340+291575990+292700675
3927+292767105+292040728+291353009+291085341+291010154+290990900+291372713
3917+292404696+293494231+293731189+293183737+292707693+292516771+291996281
3907+291052231+290505559+290899758+292011667+293752062+296142028+298273624
3897+298841469+297636290+295564406+293816752+293201401+293284716+292725177
3887+291293207+290299312+290651704+291639331+292424400+293052167+293505988
3878+293342388+292508854+291567833+291130177+291469463+292476434+293529441
3868+293810124+293172430+292370506+292341835+293318005+294602481+294941257
3858+293590382+291408822+290699060+292993745+296031362+297001055+296342727
3848+295374954+294794962+294728502+294951544+295342024+296166291+297504690
3838+298581869+298543931+297715765+297059477+297016110+297361634+297730521
3828+297800129+297233183+296232660+295880958+297015450+298747028+299597657
3818+299824718+300366741+300876165+300432481+299233449+298331086+298598814
3808+299952478+301116841+301130037+300734728+301113422+302071088+302623578
3798+302852888+303454773+304323486+304637760+304187928+303883971+304722844
3788+306676024+308957453+311073304+313098732+315210203+317553624+320260203
3778+323195611+326180415+329568205+333979640+339511172+345457296+350756369
3768+354853441+358181069+361453844+364550933+366674341+367641994+368373169
3758+369666522+371247457+372858892+375411528+380388830+387575433+393847138
3748+397022862+398735127+402173811+408595139+415955839+422078069+426511128
3738+429718343+432638696+436042471+440217009+445490950+451368006+455970902
3728+457960941+458099888+458229239+459232281+460391845+460369831+458696705
3718+456224084+453888792+451819157+449921970+448446123+447707420+448011736
3708+449630699+452230751+454811668+456659071+457987063+459339408+460762051
3698+461954065+462831356+463739837+465173427+467249599+469712383+472450242
3688+475204596+477169563+478207724+479280975+480911424+482056922+481325117
3678+478781958+475789957+473465310+471836990+471105125+472019364+474149041
3668+475482461+475147584+474265705+473827119+473850602+474257247+475091921
3658+475834883+475603564+474254068+472587570+471592146+471816297+472786019
3648+473333411+473288995+473537408+474575420+476159953+477794361+479037839
3638+479490760+478839030+477241451+475564726+475015564+476615603+480369640
3628+484136424+485670963+485385240+484684985+484219618+484062287+484117170
3618+484203393+484656314+486468268+489867454+493383544+495303375+495692296
3608+496017186+497327453+499424829+501161746+501595173+501302793+501918504
3598+503834435+505578880+506020884+506018665+507003742+508863651+510378306
3588+510802676+510349395+510012778+511046261+513884530+517387094+519859535
3578+521187467+522712319+524878194+526410543+526098099+524330622+522535973
3568+521763830+521773247+521476818+520628439+520282285+521191486+522548869
3558+523115635+522875109+522630984+522756885+523408105+525052560+527570407
3548+529552079+529608521+528244420+527311347+527579944+527991118+527339118
3538+525710918+523842492+522339713+521849244+522695764+524137721+525043323
3528+525364105+525478550+524592562+521954991+518841348+517230002+517389493
3518+518155998+518845666+519681630+520783011+521923081+522905340+523353822
3508+522868031+521938437+521743616+522685267+523923287+524590522+524624292
3498+524166692+523099020+521669719+521025997+522264436+525009614+527493391
3488+528214190+527404498+526419181+525777858+524461502+521626472+518305172
3478+516284873+515780068+515408782+514386156+513391181+513149935+513567767
3468+514254496+514832538+514965818+514971156+515935540+518368393+521136543
3458+522499324+521869938+519872611+517156705+514110240+511326315+509535445
3448+508983135+509009227+508677528+507978743+507907785+508879966+509427778
3438+507610036+503835995+500695449+499839422+500537668+501262095+501509819
3428+501763661+502479961+503413905+503903954+503825738+503532008+502761965
3418+500779693+497903517+495765023+495452159+496149115+496426440+496381724
3408+497171981+498637091+499106447+497899318+496323452+495728854+496063012
3398+496178716+494941086+492708212+491359406+492210695+494647956+497368181
3388+499765465+501398793+501563653+500299871+498767491+497914583+497731819
3378+498217370+499813690+502280643+504469101+505752886+506508654+506962295
3368+506754519+505911778+505126439+504979604+505662434+507145659+508979056
3358+510236750+510188884+509066149+507929018+507692511+508493625+509914409
3348+511252718+511690763+511002714+510199081+510612414+512121611+513145796
3338+512848108+512328307+512861304+513987338+514243999+513067101+511214209
3328+510040010+510671556+513103809+516056703+517997227+517956859+515689975
3318+512016763+508610709+506711932+506552801+507909404+510312806+512751717
3308+514052298+513821909+512541662+510928097+509735244+509784968+511417187
3298+513860717+515595984+515652907+514447517+513273977+513168289+514241660
3288+515777788+516738453+516540034+515678279+515322468+516130060+517635658
3278+518953033+519530836+519128299+517925069+516517061+515459106+515080862
3268+515458626+516149194+516453421+516100729+515281621+514431082+514257915
3258+515367994+517443897+519009176+518543059+516096650+513446184+512376293
3248+512876059+513404377+513178846+513051445+513582702+513766126+512487978
3238+510179467+508179381+507349776+507816193+509139447+510434029+511039663
3228+511078711+510990778+510874774+510615233+510217975+509721328+509334267
3218+509673583+511058497+512578611+512668823+510780063+507963448+505642820
3208+504200383+503015357+501731631+500833227+500755161+501136434+501259636
3198+500811064+500037841+499276525+498614808+498113362+497921061+497966497
3188+497948563+497784123+497382996+496073239+493494330+490834297+489690988
3178+490075230+490736047+490989290+491037815+490916442+490276229+489007288
3168+487535550+486468268+485912898+485316382+484255997+483168531+482716240
3158+482672483+482291060+481499154+480804987+480416876+480250967+480286176
3148+480220526+479467427+478142524+477155107+476871575+476699068+476247616
3138+475883798+475897534+475998603+475760176+475014815+473992699+473329932
3128+473477787+473970625+473694140+472022723+469542665+467514298+466625611
3118+466453403+466248416+465918518+465869933+466165792+466346936+465982278
3108+465065970+463915523+462945980+462519691+462727438+463226724+463445957
3098+463064144+462200739+461176134+460396853+460391875+461319820+462311405
3088+462115445+460715355+459434149+459214616+459666397+459961597+459820460
3078+459350205+458698415+458144095+457893402+457640040+456941164+456053167
3068+455704854+456042820+456469529+456543276+456413386+456257044+455878231
3058+455164030+454516469+454440652+454823275+454971339+454439842+453450566
3048+452396120+451382491+450416188+449582984+448802293+447832991+446787632
3038+446289845+446767958+447659404+447767011+446542457+444661795+443210390
3028+442727389+443145160+443986012+444436594+443877086+442556861+441347692
3018+440806329+440779817+440894891+441118053+441588968+442011898+441689167
3008+440393055+438840312+438012986+438183814+438706613+438689908+437913327
2998+437030578+436731480+436865599+436663970+435742953+434615150+434083953
2988+434280632+434529466+434167777+433274111+432486403+432303579+432661010
2978+433133874+433374610+433206242+432587922+431797125+431365617+431420530
2968+431347653+430584057+429423114+428534607+428115155+427948557+427855255
2958+427724165+427471223+427233726+427239064+427377172+427302315+426946774
2948+426564602+426295584+426009412+425592780+425084466+424474603+423711578
2938+422963547+422478956+422154756+421676253+421079376+420742039+420899881
2928+421477024+422109410+422178298+421311864+419940595+418943432+418859667
2918+419638258+420736791+421313154+420795903+419419505+417960843+417009266
2908+416570020+416228755+415721431+415313016+415350865+415609025+415592411
2898+415337279+415284225+415484024+415537887+415267820+414933813+414749729
2888+414537484+413973838+413054260+412180568+411759827+411791138+411891067
2878+411693308+411167269+410574321+410224659+410243073+410470643+410595105
2868+410425957+410042735+409655164+409395054+409321006+409450057+409624573
2858+409579287+409278179+408925248+408608215+408242657+407808841+407321010
2848+406746957+406175782+405849872+405901966+406143332+406163936+405680994
2838+404827216+403986004+403328816+402727261+402087137+401499258+401121614
2828+401143597+401707724+402605978+403221509+403054071+402189856+401066401
2818+400015524+399257116+399023278+399337912+399855673+400133147+399918143
2808+399206102+398275788+397551840+397237447+397238406+397408994+397597276
2798+397615480+397404945+397021663+396487437+395940165+395610356+395338969
2788+394659108+393638042+392949363+392885393+392975215+392723053+392147919
2778+391515503+391036701+390814409+390726476+390524368+390251122+390218012
2768+390412562+390400476+389957002+389331964+388811354+388428761+388134252
2758+387951728+387889077+387782700+387420981+386920944+386666622+386684887
2748+386514749+385894419+385101733+384526390+384343086+384481043+384571256
2738+384183385+383364906+382661382+382493884+382742957+382942846+382758312
2728+382272642+381858619+381821640+382118549+382315109+381944572+381077599
2718+380307255+379982305+379770810+379213341+378404819+377848160+377824317
2708+378137301+378416666+378506338+378514346+378550664+378507148+378173800
2698+377539855+376831052+376233906+375749914+375334182+374986289+374693339
2688+374414155+374131611+373899393+373843400+374007329+374159833+373980218
2678+373504324+373125780+373082653+373169807+373047084+372682156+372371362
2668+372369952+372622175+372896621+373054162+373021532+372628893+371797908
2658+370903642+370544173+370797535+371087936+370964134+370605324+370368967
2648+370249423+369982265+369457666+368896899+368620204+368647195+368659072
2638+368430542+368108561+367967664+368075481+368265383+368325574+368221866
2628+368134023+368201652+368285656+368088707+367514083+366845349+366531705
2618+366782428+367383743+367888428+367929966+367426210+366646510+366066068
2608+365977145+366217431+366415161+366448450+366456998+366490528+366451390
2598+366320390+366136546+365838048+365385247+364930856+364700947+364778803
2588+365000735+365032075+364700227+364242328+364022525+364100831+364287704
2578+364481234+364722810+365005384+365206892+365203083+364943483+364434929
2568+363804072+363348242+363273745+363400066+363411673+363306165+363273535
2558+363326169+363375264+363449161+363572783+363621039+363438755+363001129
2548+362464654+362098346+362050991+362212371+362453647+362866290+363502215
2538+364012748+363910930+363204856+362470112+362238673+362526315+362988323
2528+363336876+363494927+363468625+363277074+363025002+362848956+362740629
2518+362627534+362621595+362899010+363336096+363574973+363470185+363210015
2508+363000769+362875408+362818035+362875677+363081984+363366807+363581331
2498+363593177+363405495+363195529+363123072+363100938+362931670+362662293
2488+362581828+362847516+363282952+363561147+363497806+363151893+362718286
2478+362425816+362485227+362928491+363505304+363924755+364131362+364195062
2468+364124674+363938431+363712421+363506114+363374064+363373465+363476003
2458+363560847+363530346+363403126+363319781+363422769+363674662+363854697
2448+363787098+363513432+363236287+363141846+363269607+363558448+363956006
2438+364320094+364330501+363838112+363227439+363074636+363499486+364116307
2428+364534678+364680373+364681183+364652032+364635657+364650293+364731208
2418+364917031+365197655+365517356+365858082+366238035+366577321+366710600
2408+366617688+366491577+366525827+366761584+367122763+367511954+367912301
2398+368382767+368889281+369300155+369701582+370544743+372346259+375414407
2388+379961431+386350519+395147568+406943366+422106470+440614447+461965432
2378+485251092+509706812+535400403+562734790+590753986+616577677+637493075
2368+653398871+665773431+674644528+678221949+675402875+667303981+655747330
2358+641521318+624544611+604285112+580297937+554793948+533307046+520853910
2348+519446442+528378779+544287814+561768607+576227287+585558142+590044404
2338+592328803+595002542+598242447+601012996+602794809+603105754+600873539
2328+595621252+588683182+582054858+576308082+570489569+563757416+556173405
2318+548059936+539676970+531350327+523275786+515354918+507289615+498739480
2308+489617661+480317576+471426027+463219796+455569026+448267468+441329308
2298+434956955+429302311+424356949+420038096+416236043+412792410+409571639
2288+406559004+403864362+401656020+400009915+398758999+397600605+396395575
2278+395251066+394331519+393707410+393343922+393137196+392952332+392647656
2268+392130615+391453033+390790686+390277904+389906348+389583497+389215510
2258+388778304+388377447+388164812+388145198+388155275+388074480+387958956
2248+387917418+387951068+387997614+388041130+388075980+388033843+387877111
2238+387714291+387678452+387725357+387689188+387504565+387240916+386980326
2228+386799871+386746368+386686656+386375022+385801268+385235612+384848281
2218+384552931+384231730+383841640+383345802+382790463+382368462+382220308
2208+382295944+382532242+382979285+383606782+384159062+384387712+384329800
2198+384195021+384080696+383968741+383940160+384215775+384925747+385896969
2188+386765292+387319552+387631366+387854678+388085037+388419674+388916022
2178+389434742+389738729+389807228+389871558+390115803+390527127+391040059
2168+391615523+392150169+392511738+392693512+392778146+392793381+392761261
2158+392794401+392983913+393259918+393467094+393556827+393640501+393807010
2148+393964462+394015806+394093362+394380044+394822048+395274369+395771977
2138+396413480+397141416+397837562+398530919+399376000+400472043+401795297
2128+403291748+404935753+406692703+408543375+410541991+412731079+415018417
2118+417227149+419275250+421318013+423635761+426215869+428585621+430304123
2108+431396808+432088365+432489882+432724410+432919920+432971444+432666108
2098+432057535+431484891+431227450+431219442+431148184+430909547+430801910
2088+431049514+431363698+431241695+430501643+429309269+427861433+426230024
2078+424437205+422571448+420810718+419339580+418223053+417340364+416498432
2068+415676325+415082837+414893055+415031673+415312836+415669697+416116830
2058+416576498+416893171+417006266+417027230+417160989+417577081+418291822
2048+419148299+419955141+420630204+421181314+421659488+422209819+423036845
2038+424207505+425572146+426965069+428407776+430025449+431847120+433843846
2028+436101883+438732825+441622978+444502873+447262746+449994787+452759548
2018+455511053+458211574+460831420+463215178+465066329+466145308+466520013
2008+466585123+466729799+466984211+467116020+467070374+467091997+467328685
1998+467563783+467530433+467348599+467478429+468263348+469541165+470766619
1988+471597754+472211455+472961495+473977253+475226280+476699907+478375133
1978+480189036+482135288+484228706+486358532+488310392+489957007+491395845
1968+492896194+494662682+496627258+498590096+500580465+502886457+505662914
1958+508647718+511358105+513527699+515305253+517101702+519268656+521805217
1948+524357254+526560677+528366063+530032891+531960819+534508597+537750421
1938+541393223+545028767+548384916+551282986+553590058+555443009+557309156
1928+559532673+561948731+564190483+566280301+568597090+571235980+573762644
1918+575738917+577285662+578917101+580915807+583084321+584985558+586339282
1908+587250402+588080187+589131905+590435904+591742483+592752933+593461435
1898+594297398+595794659+597900912+599743606+600506452+600466684+600628874
1888+601400477+602256954+602756721+603152959+603855344+604765204+605425302
1878+605614963+605530869+605481864+605597089+605810743+606019839+606177411
1868+606212200+606052829+605827118+605701817+605475386+604770003+603724344
1858+602961378+602773396+602766798+602289165+600986305+599100424+597278783
1848+595943233+595011779+594235198+593421187+592358014+591001351+589685954
1838+588796008+588314176+587841761+587051443+585968476+584813710+583658165
1828+582344809+580858225+579469112+578321604+577205467+575996958+574965874
1818+574353282+573932332+573259878+572197304+570994134+570006717+569443970
1808+569284719+569343081+569371812+569213341+568975934+568986730+569409360
1798+569974807+570285811+570312743+570514461+571442016+572975565+574304037
1788+574980210+575360493+576098806+577527148+579492504+581621791+583536043
1778+585016688+586157298+587237506+588470008+589920962+591595708+593473012
1768+595307248+596578138+597081624+597440193+598517763+600273483+601796116
1758+602726610+603616257+604928054+606577248+608382694+610170085+611556919
1748+612407998+613206052+614440773+616138432+618192621+620571311+622871125
1738+624509402+625786170+627789914+630838058+633643337+635489990+637058269
1728+638593557+639620562+640045231+640361334+640846705+641374963+641982217
1718+643041851+644726614+646586283+648148143+649396300+650553105+651835631
1708+653328393+654852225+655916598+656209188+656240978+657234693+659874483
1698+663165672+666052646+668564434+670738887+672421370+673835196+675251421
1688+676510315+677459523+678705041+681121339+684174461+686520521+687797229
1678+688356977+688671880+689258620+690522732+692565405+695467074+699206266
1668+702895793+705417599+706871552+708183169+710135270+712906059+716073986
1658+718736389+719837591+719240654+719012664+721813264+725578248+727034121
1648+726666614+726985176+729448740+732485127+734119985+734143558+733366917
1638+732566042+732284129+733030900+734711824+736487338+737832365+738806766
1628+739867421+741598969+744133970+746955684+749516838+751866796+754471256
1618+757866334+762245589+766699522+769910096+771594439+772210509+772469390
1608+773213641+774769324+776526004+777853997+779073722+780630784+781913610
1598+782148078+781786989+781868744+782668658+783729912+784709112+785653762
1588+786737329+787999281+789295843+790569072+791968623+793472481+794653938
1578+795125093+794860395+793830691+792125115+790590006+790441192+791936053
1568+793420177+793139223+791365568+789599710+788980220+789695921+791135598
1558+791973481+791680231+791398198+792506897+795585212+799605898+802580684
1548+803471531+803018910+802759489+803647757+805412175+807223918+808922717
1538+810866240+812903395+814806010+816822531+819198941+821520169+823202832
1528+824237814+824898271+825226191+825422630+826508957+829605446+834241123
1518+839085535+843872785+848819226+853538397+857398572+860015389+861414279
1508+862577082+865336535+869578792+873020055+875373913+878184350+882803052
1498+889401445+896482031+901413177+902738530+901348397+899334635+899010555
1488+901785423+906798564+911723711+914894878+916313322+917368578+919627784
1478+923189791+926278122+926868281+925191316+924528879+927907402+934185794
1468+940312133+945254616+950017513+954883159+957970711+957853507+955579365
1458+953828443+954800684+956367163+954223782+948236720+941616673+937299738
1448+936458976+938697849+942111101+944222572+944064701+942649735+941010199
1438+939113761+937474225+937906692+941014038+945018048+947529357+947419111
1428+945582955+943877019+943895613+946561914+951095502+955104851+956579378
1418+955427132+952941795+950183002+947940891+946966190+947048605+946948495
1408+945687323+943421578+941164471+939805529+939247820+938909644+938722381
1398+939095647+940212384+942141571+944891787+947423849+948276668+947481252
1388+946645708+947121662+948807385+951302558+954977150+959992030+965222604
1378+968868045+970017112+969468880+968788809+968661588+968726248+968475825
1368+968246996+969600420+973954123+980854344+987164527+988959056+986509948
1358+984263998+985190533+988461029+992354013+997109833+1003497992+1010401392
1348+1015576843+1017746856+1017308631+1015975960+1015928935+1018513541
1340+1023105731+1027150889+1028030699+1025717569+1023274159+1023787722
1331+1026869935+1029591060+1031082442+1033255095+1036697917+1039527969
1322+1040683814+1040997277+1040456483+1038206214+1036024444+1036980671
1314+1041285669+1047163624+1053436018+1059146025+1063370887+1066900804
1305+1070934445+1073741823+1072448740+1067839035+1063099051+1059478323
1297+1057170711+1057737897+1062079244+1067135931+1067954200+1064003093
1288+1058789014+1053257273+1045540042+1036852670+1032186943+1034460485
1280+1040793700+1044925831+1043043129+1036089464+1027304922+1019840454
1271+1015553570+1014040954+1012774983+1010161826+1007776238+1007615247
1263+1008555999+1007900520+1005452911+1002646013+999130433+994094919+989147098
1253+986700929+986244529+984410533+979026586+971234138+963142383+955495211
1243+947800174+939394895+930356570+921757430+914610985+908566041+902328856
1233+895296495+888073513+881683015+876686190+872892175+869675662+866453812
1223+862956825+859143616+855395007+852848609+852653309+854655614+857249818
1213+858643550+858367575+857402651+856597398+856029253+856182206+857872727
1203+860574417+862885807+865149032+869184233+875298276+882026290+888503041
1193+894270990+897495840+896925175+894495561+893199419+894258394+897637757
1183+903083784+909614819+915560013+920141767+924176668+928813424+934383134
1173+940678501+947325000+953410731+958247886+963094218+970186800+979375259
1163+987266915+990653236+989275579+985108718+980725624+977827314+976894660
1153+977985185+981097870+985678783+990389797+993898899+995738474+996667049
1143+998347073+1001548650+1004902940+1006300631+1005714971+1005847050
1134+1009041010+1014193188+1017830351+1018502145+1017699471+1016462411
1125+1015020214+1014581628+1015976200+1018715199+1022988167+1028782628
1117+1033387054+1034867639+1035553949+1037341160+1037730440+1033437439
1108+1026221294+1022026542+1024415009+1031108714+1037529382+1042508093
1100+1047142990+1049836403+1047241120+1039439916+1030730950+1025633955
1091+1024975237+1026008480+1026306108+1026458821+1028558297+1032067339
1083+1033648814+1030958520+1024797572+1017731501+1011853306+1008274445
1074+1006371109+1003751774+999302400+995683771+996470489+1001227509+1005587630
1064+1006166572+1004016293+1002845392+1004875289+1008650650+1010006233
1055+1006692971+1002219364+1001900322+1005183654+1005558419+1000351718
1047+994643870+992740175+993216909+993542009+993809167+994293578+994246972
1037+993933209+993889422+992852700+990186099+988751460+991484700+996123616
1027+997183491+993754523+990719695+991840271+996596151+1002237239+1005776152
1017+1005410324+1001677611+997634132+996021947+995969283+993989351+986981043
1007+975648303+965095863+959979194+960507512+962181058+959335592+950636523
997+940007247+931585413+926118511+922195596+918715824+915277200+911661930
987+908491844+906831613+905922233+903193551+897930287+893069499+890883111
977+889107716+884469220+878360996+874720773+874457754+875162957+874465912
967+872062689+868563004+864238812+859807732+856988478+856970604+858916106
957+860771576+861053070+859664616+857966718+857954721+860456313+864580167
947+869295379+874299463+879178604+883460210+887230112+890612594+894164223
937+899635443+907746033+915960630+921071361+923068208+924063302+925526013
927+928299502+932760632+938027795+942595212+945576477+946156739+943331846
917+938355654+934975992+935677356+939867310+944863955+947209535+944784780
907+939210271+934435678+932555855+933130238+935449306+938578965+940531606
897+940431736+940208605+942656573+948032243+953041844+955012479+955589622
887+957756877+961446164+964763265+967036507+968116896+967845539+966730421
877+965218825+963523026+962362802+962987810+965487123+968224443+969681635
867+969800219+970008595+971475324+972431491+970353309+966866699+966422656
857+971291061+979322895+985623720+986390944+982537368+977646949+974227339
847+973308122+974905911+977820476+979277309+978408296+978507625+982519853
837+988732805+992760149+992594360+990630743+990700921+994436394+1000748556
827+1007855534+1014061468+1016626880+1014197506+1010639039+1011098738
818+1014954954+1017281279+1016541587+1015735194+1016525871+1017385647
810+1017056588+1017012562+1020559993+1027996629+1034080801+1034262905
801+1031367834+1030670848+1032645922+1034650026+1034438651+1031019581
793+1025571934+1021377662+1021153690+1024321678+1026733897+1025422220
784+1021763223+1017055029+1010331693+1002989708+999237380+999130193+995968864
774+984297707+969539539+961073858+961073318+964431387+964696746+960800162
764+957385471+958928137+965504098+972615214+975917680+976520555+977799123
754+980205824+983157337+987889524+995219634+1002704255+1007276951+1009684252
744+1011940879+1013552824+1012608834+1008193590+1002202389+998948809+999873665
734+1001902602+1002186554+1001085832+999929747+998926255+998451381+999094924
724+999265811+996106161+990332934+985878762+986294194+992314726+1000756533
714+1006477637+1007503322+1005838413+1003411978+1001975059+1004602493
706+1012740674+1022050895+1024482548+1018569204+1011738501+1009241468
697+1007991692+1001358569+989977663+982063873+980453368+979786372+977659066
687+979502540+989041171+1000480198+1001457178+988795666+974186312+965586033
677+962106141+959535031+955565630+951492580+948367840+947388160+952668279
667+964981718+973143412+970842099+963900310+958318784+955103291+952257825
657+949236493+949747896+957314752+966143382+965862548+954754918+938956789
647+927153314+926537003+938597380+957293939+971889017+976987092+974044336
637+965333030+953157909+942276230+938617593+942247199+944286453+938670197
627+931913812+932893611+941495810+950949387+953761623+948052396+936150251
617+920225261+904140000+894738247+896939151+906961594+916127259+922790133
607+932106653+942287387+942828421+929649687+912317049+903311294
##END=
