##TITLE=<SNM>
##JCAMP-DX=4.24
##DATA TYPE=INFRARED SPECTRUM
##DATE=29/4/2025
##SAMPLING PROCEDURE=Instrument type and / or accessory
##ORIGIN=Admin
##XUNITS=1/CM
##YUNITS=ABSORBANCE
##RESOLUTION=4
##FIRSTX=4497.3318
##LASTX=599.83466
##DELTAX=-1.4281778
##MAXY=2.1816006
##MINY=0.51205915
##XFACTOR=1
##YFACTOR=2.0317739e-09
##NPOINTS=2730
##FIRSTY=0.52794391
##XYDATA=(X++(Y..Y))
4497+259843834+258415598+257900218+258176038+258178942+257403379+256830677
4487+257524773+259039609+260192319+260792187+261383254+261787742+261224574
4477+259591982+257683717+256347186+255950472+256301891+256712188+256529012
4467+255944898+255762104+256320901+257288645+258276192+259000005+259122367
4457+258635268+258254043+258769217+259869913+260187948+258941861+257160182
4447+256547758+257386980+258397585+258577710+258197307+257777270+257279962
4437+256687868+256435078+256998128+258456551+260357013+261824618+262137606
4427+261462960+260683173+260345308+260021934+259011887+257570097+256728763
4417+256875708+257391909+257684245+257686445+257429283+256991880+256781597
4407+257076750+257446944+257249980+256550193+256157879+256733750+258014307
4397+259035268+259065103+258141685+256673141+255009277+253618767+253052196
4387+253358555+254057550+254856259+255770318+256566064+256886240+256880842
4377+257016640+257394520+257742067+257819778+257601429+257311381+257256815
4367+257541465+257988432+258201707+257755151+256602734+255197909+254022288
4357+253277851+253066454+253300821+253442632+253064840+252607840+252811023
4347+253564671+254065060+254004363+253784253+253546541+252960902+252177125
4337+252025662+252883865+254058488+254768925+255218444+256114872+257502272
4327+258612913+258814277+258307728+257736375+257398832+257081267+256516779
4317+255829959+255465250+255617505+255911044+255962353+255983299+256233039
4307+256225382+255356882+254063446+253432394+253881268+254784502+255263417
4297+255083996+254748243+254727121+254883101+254878701+254927370+255642206
4287+257014087+258019764+257735495+256640431+255990751+256025367+255797014
4277+254832790+253908991+253831925+254356809+254687253+254563512+254422874
4267+254643189+255082793+255412181+255495232+255262654+254688103+254130480
4257+254211037+255076809+256117513+256495158+255860527+254769951+254373443
4247+255305778+256869019+257804699+257747406+257257901+256795649+256488176
4237+256446401+256618693+256773853+256865411+256857256+256394447+255364040
4227+254418679+254322251+255085404+256080842+256721869+256965008+257310237
4217+258171461+259283452+259954754+259785777+259017519+258182756+257508403
4207+256908887+256454586+256367897+256555767+256693882+256781568+257079654
4197+257602837+258118304+258478553+258641018+258575656+258321634+257956984
4187+257491711+256931682+256440446+256321312+256732958+257382257+257685330
4177+257512100+257593449+258606899+259989869+260510529+259989371+259438318
4167+259533661+260007853+260421083+260598743+260483833+260279096+260455495
4157+261001149+260999946+259700790+257875605+257211139+258243423+259769994
4147+260503547+260345836+259743504+258928894+258106834+257519463+257263181
4137+257438612+258067934+258683760+258620805+257882529+257268345+257501509
4127+258418942+259072759+258737827+257767178+257142873+257255818+257588139
4117+257669577+257804699+258515429+259633610+260383034+260227376+259319067
4107+258192877+257270251+256730318+256747567+257581187+259149210+260681061
4097+261243525+260688982+259773074+259310823+259461318+259748608+259637746
4087+259139147+258864707+259387215+260482836+261219440+260920504+259806107
4077+258691887+258291476+258671175+259250860+259597233+260022051+260871013
4067+261729422+261988431+261597819+260749033+259535597+258283526+257550178
4057+257555547+257975436+258349738+258535084+258726386+259124772+259712906
4047+260337416+260861332+261218267+261376242+261205329+260549517+259636573
4037+259050522+259020775+259178311+259238128+259437057+260093632+261122249
4027+262092575+262600650+262597276+262381303+262254189+262260965+262282703
4017+262268094+262284053+262341787+262302212+262066026+261751629+261543547
4007+261441369+261338985+261338516+261776653+262792832+263980158+264679945
3997+264588856+263968893+263442454+263570800+264300627+264951364+265058354
3987+264837188+264544705+264011959+263198581+262611123+262747448+263496814
3977+264279183+264597569+264451034+264305820+264582461+265104206+265234987
3967+264763201+264432142+265157158+266784440+268077847+268105217+267186817
3957+266246707+265799886+265755207+265867418+266172339+266894569+267943457
3947+268839387+269354707+269741389+270100670+270066200+269309647+267944895
3937+266471305+265719300+266475588+268622240+270753666+271332235+270441469
3927+269631260+270057839+271312903+272269499+272884886+274125898+276085443
3917+277219935+276045692+273152961+270518007+269418044+269739218+270876321
3907+272851736+276258145+281106079+285995877+289043826+289278897+286592899
3897+281874748+277381607+275555835+277050459+279712050+280569666+279953106
3887+280599061+283102412+285158532+285507369+285328887+284612555+282010282
3878+278703176+277656194+279749542+283371044+286902778+289432267+289810558
3868+288364691+287345638+287588718+287200981+284650633+281291309+279353942
3858+280037536+284192870+292319425+300672220+301456379+294921991+287542836
3848+282974447+281804282+283305067+286338407+289953367+293859519+297716123
3838+299973372+299206493+296403648+293534503+291268160+289285381+287647977
3828+286818847+286996214+288599470+292493711+297911297+301124175+300378124
3818+298578521+297402460+295242108+291368695+287820621+286865755+289376998
3808+293942629+297109918+297580384+297849339+299500295+300812213+300568927
3798+299827923+298715785+296515243+294091100+293224742+294535134+297490351
3788+301301806+305020822+307649145+309240784+311168176+314312290+317698281
3778+320010272+321807734+324706860+329695931+336961701+345751871+354232925
3768+361112688+366727502+371422330+375252325+379243171+384284696+389127936
3758+391801467+392954968+395232636+400483298+408332683+415786998+420256729
3748+423732694+429485593+436905819+440975227+439840765+437945554+439784644
3738+446996817+457538156+466187630+468926903+466510710+462702952+460991914
3728+462996754+467980721+473357118+476928045+478155797+477041899+473883880
3718+470080023+467844718+468996459+473491449+477936362+477615570+472413371
3708+465897875+461055603+460134005+464249090+471098079+475400447+474933003
3698+472610012+471521431+472597104+476110179+482437864+490575185+496844461
3688+497703250+494066493+489593506+487149472+487528585+489575816+492203054
3678+495714545+499282715+499513767+496202818+493752771+494525019+496164153
3668+495426463+492371268+488642923+485169774+482406415+481233904+482527339
3658+485407045+486934467+485756059+484628373+486743664+492264543+497508516
3648+497730064+493306684+488335068+485332385+484294350+484241252+484459601
3638+484278450+482994402+481165873+481070031+484829913+491910718+497366118
3628+495507783+488387844+482124113+480143328+483205887+489706391+495867270
3618+499116261+500832080+502946051+505039838+506092599+506573068+506940006
3608+506176207+503882816+501797595+502033282+505006688+508859478+510990816
3598+510781707+509952605+510205015+511663027+514207478+518684602+524674831
3588+528292051+526239745+521171436+517458874+516052435+515970880+517040774
3578+519559409+522351751+523146177+521484454+519831649+521193849+526129968
3568+531721518+533936523+532020337+528836825+526932726+526324526+525693386
3558+524740310+524612345+526251186+529420323+533293355+537229401+540700173
3548+542824823+542583620+539949752+536436500+533903666+533032262+533203586
3538+533199479+531964716+529548875+527361563+526975733+528543580+530616949
3528+531705266+531637029+531118658+530736465+530483938+529749593+528008252
3518+525664930+523842561+523246097+523812990+525194318+526505883+526613430
3508+525934647+526447035+528991251+531919655+533036193+531940836+529805508
3498+527865560+526520493+525197075+523194699+520896204+519695236+520622144
3488+523313981+526220031+527474273+526031750+522765921+519996813+519121301
3478+519226912+518897407+518341309+518489457+519180032+519452332+519031063
3468+518588203+518576234+518561448+517943216+517023817+516797635+517525526
3458+518118705+517234745+514760994+512063349+510752899+511303012+512715612
3448+513331262+512039411+509193031+506370413+504820227+504399545+504489431
3438+505089475+506110612+506950509+507518400+508223233+508857659+508585125
3428+506991521+504533260+502145464+500677302+500139627+499562641+498430379
3418+497682715+498203140+499147122+498974801+497595293+496334538+496228575
3408+497299525+498905216+499979099+499447936+497321351+495227915+495204036
3398+497823236+501553341+503933509+503549908+501002230+498048831+496139217
3388+495676878+496133056+496768656+497341476+498031347+498600412+498150452
3378+496445077+494858220+494951509+496431347+497516730+497335491+496910585
3368+497514031+499098072+500709924+501622399+501650385+500970371+500065758
3358+499523741+499642846+500365575+501591772+503325310+505429365+507328477
3348+508305785+508335708+507963548+507213596+505804869+504398195+503968595
3338+504148544+503864334+503180565+503056238+504010605+506067018+508904538
3328+511172642+510946518+507943893+504345097+502638372+503318856+504934932
3318+505912181+505944627+505523065+504794646+503583469+502176854+501180536
3308+500745831+500768479+501610957+503733142+506453963+507952166+507271447
3298+505724488+505316068+506244678+506959603+506426152+505301870+504727935
3288+504906358+505261562+505489739+506181723+508182808+510929620+512261428
3278+510985711+508646320+507623424+508383468+509355437+509170207+508330428
3268+508338935+509732583+511676580+513155832+513727243+513396389+512613169
3258+512100137+512180636+512728050+513649385+514493154+514247199+512528153
3248+510278414+508914982+509268366+510840203+511874952+510933962+508548807
3238+506730839+506921700+508722067+510403093+510781413+510439646+510345359
3228+509950493+508100607+505304216+503418071+503223278+503731089+503903234
3218+503885280+504242713+504928712+505448316+505554103+505477946+505417278
3208+504952416+503499098+501418629+499924005+499542927+499419187+498560456
3198+497138821+495977398+495367321+495085400+495058880+495352477+495785304
3188+496122085+496386111+496507680+496016181+494608686+492695199+490952038
3178+489618471+488517804+487544221+486792920+486300334+485855655+485061376
3168+483732766+482271263+481373456+481215569+481174380+480655950+479784722
3158+478839361+477780909+476827099+476614440+477198907+477683102+477392262
3148+476637000+475919934+475209234+474288838+473156458+471877896+470541277
3138+469438498+468947468+469199994+469900456+470310841+469646169+467874054
3128+465900310+464687139+464534385+465206567+466073952+466190769+465109904
3118+463548012+462563194+462430858+462743172+462995581+462776556+462083722
3108+461578786+461885174+462666281+462887418+461995860+460465680+459092567
3098+458154599+457505270+457121024+457110287+457321097+457312883+456714893
3088+455467016+453954908+452921451+452840013+453441113+454013698+454030126
3078+453553588+453050794+452713545+452148910+451019933+449793472+449321481
3068+449759999+450505551+451154088+451759119+452026841+451185741+449155907
3058+447079927+446143015+446449285+447344276+448180036+448418335+447663425
3048+446207466+445092307+445049124+445654390+445859128+445150099+443940243
3038+442940844+442445531+442297823+442309382+442371017+442181710+441344453
3028+439988649+438869382+438407776+437983222+436842247+435433578+434962291
3018+435752669+436951642+437786112+438115382+437799694+436659306+435117422
3008+434040047+433863560+434209376+434318683+433781595+432798889+431643275
2998+430252355+428761809+427860716+428005667+428706803+429038773+428582623
2988+427583694+426476397+425530361+424899250+424792085+425309166+426163086
2978+426812004+426806137+425937461+424344736+422632496+421532563+421239024
2968+421315885+421372064+421524084+421935760+422198642+421716354+420594154
2958+419563836+419096538+419048075+419028126+418773517+418269314+417685288
2948+417145618+416584269+415950753+415386352+414995359+414680698+414384812
2938+414153936+413807944+413067145+412201637+411940281+412550739+413538901
2928+414240859+414186939+413171963+411588304+410303933+409793013+409781249
2918+409834876+409789639+409588891+409210512+408735998+408183039+407412698
2908+406390682+405466179+405227030+405839219+406605717+406669523+406088606
2898+405665724+405829274+406200465+406174620+405506634+404370206+403140899
2888+402160921+401635509+401621779+401903290+401976015+401490470+400676096
2878+400099550+400089429+400510757+400928065+400897144+400293639+399442917
2868+398802477+398522726+398468425+398580871+398911930+399308381+399399968
2858+398967200+398098700+397094168+396403798+396344362+396634527+396617014
2848+396155525+395774330+395731763+395583585+394909174+393921422+393090179
2838+392604811+392440850+392556699+392725353+392534462+391875805+391107693
2828+390520646+390059538+389678666+389479707+389423029+389323139+389146388
2818+389007980+388930151+388829850+388653598+388372087+387951581+387436789
2808+386936605+386472418+386015036+385672506+385552814+385471523+385194120
2798+384891897+384846573+384844255+384446045+383696680+383013409+382569845
2788+382219804+381823325+381386156+381023501+380832757+380682086+380241836
2778+379374627+378355867+377614129+377342974+377382255+377413029+377256579
2768+376989707+376788841+376702387+376588856+376274547+375756234+375211460
2758+374813484+374576770+374334306+373853485+373102183+372397702+372107478
2748+372179968+372164127+371754857+371130522+370656712+370442440+370333133
2738+370200974+370024340+369751542+369343005+368928191+368679096+368542389
2728+368304150+367882236+367394198+367002999+366794565+366709841+366533824
2718+366062566+365357997+364749505+364516751+364627759+364802691+364780748
2708+364542919+364302860+364225735+364160168+363811067+363198203+362675548
2698+362447371+362351999+362140162+361689615+360987599+360201944+359716283
2688+359806961+360284907+360618549+360413107+359716165+358916048+358394156
2678+358237676+358243514+358155828+357859063+357389272+356864241+356437134
2668+356240581+356282532+356388612+356326272+356030798+355643970+355311619
2658+355066573+354938873+355010600+355301938+355719217+356087475+356129543
2648+355601579+354658506+353866280+353616013+353702819+353684572+353461880
2638+353244410+353142467+353086816+353013241+352911033+352826750+352910916
2628+353219915+353480831+353387982+353027527+352623684+352147000+351567843
2618+351087081+350775031+350414576+349934606+349589054+349586091+349857481
2608+350189244+350384448+350389142+350343348+350405746+350557942+350684880
2598+350736102+350683443+350438045+349979842+349499050+349201082+349022072
2588+348794511+348597430+348596755+348657980+348490822+348075626+347654738
2578+347423099+347415090+347567727+347786077+348001229+348172377+348238970
2568+348156682+347984331+347836036+347720334+347523928+347207448+346894225
2558+346666106+346453242+346271944+346322197+346667016+347077137+347328402
2548+347408695+347373726+347240100+347058919+346921977+346848842+346747808
2538+346554981+346363620+346303099+346359220+346460752+346620312+346816924
2528+346907426+346818039+346672472+346655223+346835024+347083385+347175178
2518+347111196+347218273+347687213+348205233+348346458+348147147+348008534
2508+348176630+348530631+348768255+348695647+348426076+348274408+348334870
2498+348316916+348018126+347740752+347919586+348501999+349003649+349098933
2488+348934151+348853447+348968885+349112076+349143407+349101280+349014034
2478+348809032+348510682+348337276+348484544+348865299+349131349+349035801
2468+348744404+348616205+348725864+348854855+348883839+348900033+349011834
2458+349282783+349694400+350052567+350140311+349991929+349816527+349742570
2448+349826003+350121096+350566421+350977920+351247257+351390564+351397605
2438+351197502+350787440+350349186+350197194+350477004+350919600+351113425
2428+350993205+350801609+350696410+350693183+350812611+351030344+351261573
2418+351534635+351976497+352568914+353094062+353336761+353274187+353123809
2408+353208444+353687857+354422056+355105913+355490042+355525657+355405202
2398+355423097+355715814+356174721+356589565+356778550+356670592+356422055
2388+356326918+356449045+356502613+356193907+355430988+354139430+352218111
2378+349758969+347008578+344126613+341311975+339038620+337690414+337013392
2368+336369167+335479663+334506931+333563242+332714133+332398417+333261020
2358+335463293+338579889+342323812+346849663+351888019+356170878+358405714
2348+358361153+356920302+355534868+355215719+355761256+356429917+356973430
2338+357544021+358130658+358606551+359114537+359923514+360964658+361921460
2328+362685581+363369234+364051947+364784913+365672247+366765052+367965199
2318+369099280+370074622+370974453+371934805+372921032+373781757+374512142
2308+375239945+375950675+376420877+376483715+376302094+376247323+376400400
2298+376391012+376000253+375617532+375698002+376123290+376502461+376722277
2288+376840444+376844169+376820026+376981140+377332618+377623957+377716131
2278+377753506+377936974+378268592+378560605+378679211+378712156+378785672
2268+378817502+378681118+378519358+378598801+378900289+379128203+379111686
2258+378968789+378850271+378724184+378502284+378220597+377955486+377701404
2248+377493205+377491914+377759490+378089816+378230366+378169963+378131738
2238+378364492+378917304+379541551+379902210+379943985+379938382+380133146
2228+380466288+380650344+380455962+379901682+379209493+378613645+378233769
2218+378097503+378166531+378269032+378149193+377730623+377228416+376876674
2208+376686604+376570316+376484566+376357364+376109912+375821067+375673770
2198+375757760+376075618+376631012+377367470+378118331+378702974+379062225
2188+379327190+379729479+380361910+381073725+381669016+382113548+382489170
2178+382852206+383203332+383530108+383797450+383918491+383861051+383810768
2168+384057398+384632448+385228296+385554457+385618293+385623720+385761366
2158+386108590+386579994+386966235+387129638+387156715+387256840+387553430
2148+388016943+388524900+388927129+389125794+389176135+389275908+389584555
2138+390045897+390432431+390595277+390639252+390789102+391115937+391490033
2128+391765412+391910891+392009461+392219860+392660168+393266901+393871697
2118+394420667+394976706+395558649+396132320+396706254+397339331+398102220
2108+399022352+399961934+400645410+400990551+401289312+401850485+402586561
2098+403149641+403385182+403483517+403722989+404185886+404761874+405365643
2088+405999659+406584565+406980341+407265254+407691099+408258991+408667762
2078+408784873+408829053+408999643+409249500+409480846+409730351+410166552
2068+410991927+412179576+413266074+413693797+413424959+412951589+412730629
2058+412840581+413118894+413466910+414006345+414901923+416020720+416955343
2048+417472454+417759216+418193011+419014074+420155343+421264693+422007957
2038+422424326+422868771+423632481+424714432+425877439+426863753+427625029
2028+428324083+429099587+429953096+430895992+432074195+433666538+435634649
2018+437579467+439032844+440018865+441081190+442602979+444357815+445895505
2008+447173421+448581298+450389819+452380783+454128227+455518707+456786151
1998+458157357+459784228+461883296+464473571+466990857+468617640+469111399
1988+468995022+469035183+469801299+471411449+473433128+475285185+476848925
1978+478452386+480307934+482260174+484043320+485609906+487273066+489433770
1968+492009141+494404388+496287424+498005179+500038006+502494155+505215445
1958+507993882+510624406+512952942+514904273+516515127+518090190+520155287
1948+523015983+526513100+530274243+533836193+536574967+538238275+539499968
1938+541246356+543583869+546027521+548308004+550577281+553088054+555991464
1928+559303234+562947502+566724604+570163693+572841390+575007227+577141264
1918+578899151+579595829+579706426+580496687+582409587+584794507+586874800
1908+588472218+589872262+591301818+592633860+593615158+594326269+595236573
1898+596748505+598726884+600578236+602018588+603532984+605568158+607554927
1888+608454376+608156555+607512741+607299643+607668223+608264395+608739290
1878+609212308+610029734+611131662+612211002+613440543+615214741+617031184
1868+617503556+616099758+613838929+611945743+611019304+611087482+611554046
1858+611508809+610658762+609521864+608566969+607867769+607550057+607863661
1848+608908502+610555263+612079986+611993972+609697647+606563713+604002012
1838+602091870+600306993+598697899+598052912+598937342+600721749+601832889
1828+601453689+600078346+598014130+595106906+591990164+589961737+589456156
1818+589457095+588713773+587371228+586610598+586756458+586759098+585820103
1808+584561695+583993979+584415483+585679582+587478364+588995284+589205155
1798+588177858+587419398+588506131+591526885+594343870+594270530+591656552
1788+589345324+589175526+590824458+592924582+594630838+595871175+596803892
1778+597845212+599781581+603366061+608487996+613227034+615034206+613917375
1768+611805340+610072271+609613863+611084020+613898951+616345889+617728331
1758+618673428+619370164+619989570+621801729+625852421+630988261+634176702
1748+633881168+631812727+630641683+631704887+634544755+637614383+639545472
1738+640833686+643706762+649112848+653730199+653233301+649364729+645903637
1728+644025119+643670971+644565962+646060703+647992965+651601149+658230909
1718+666664907+672214682+671879076+668076216+664102209+661632331+661698690
1708+664817369+669847540+674231022+677177321+680540899+684983641+687997120
1698+688393805+687983391+686691012+683626957+680575751+679605718+680829627
1688+683905123+689722855+698340557+704830325+704116691+699670781+696794126
1678+697443279+701168984+705643878+708470837+710142652+712143795+713207059
1668+711220701+708169084+707697181+710177386+712502109+712175303+710625057
1658+710685314+714160370+721863661+731338686+734372466+730169988+727419303
1648+729093113+731329885+729147795+723968009+720233093+719752389+722662194
1638+728738437+735715538+737732582+732643445+726641481+724874617+727532130
1628+731674821+734162594+734360086+733220666+731481260+730276889+731242580
1618+734584978+737523180+736775223+733409239+730528360+729686233+730999676
1608+733557505+735932568+737238384+737516726+737295120+737305094+738339315
1598+740678999+743623244+746008634+747385150+748470768+750261629+752965259
1588+755887796+758187406+759710428+761143621+763393888+767074239+772724344
1578+780446117+787483006+788522155+784190832+780970649+781908706+784492291
1568+784630641+782209109+779931266+779888611+783697279+792817276+805140207
1558+810573634+805088692+796673469+789809840+785147018+782469791+781101548
1548+780870085+782838137+787839324+794725424+801052023+804310343+802075448
1538+796022321+791957607+792855765+796771569+798849809+797846157+797867161
1528+801970131+809164789+816666482+823171856+828236468+830811604+831533746
1518+832322304+832766514+831687820+830591054+832201028+837472695+845890324
1508+856232294+864170334+864464284+860900397+860187233+863988860+870495877
1498+876427317+878779909+877674929+877182491+881290271+890094787+898955334
1488+902780548+902156800+900640878+900039544+900663937+902423467+905403092
1478+910051188+916525465+923968778+930872598+936114811+939193065+940435514
1468+941320648+943041865+944926661+945545714+945874809+948846220+956640746
1458+968028202+975151691+971623889+963061808+956401069+953782808+954604399
1448+956380886+956120028+953347047+949881496+946824013+944665333+945166279
1438+950004943+956890105+960239660+958960775+956751872+955947413+956656236
1428+958316199+960024214+960461794+959007948+957153427+957400379+960099257
1418+962308981+961679894+959207317+956925073+956343629+957920101+960250690
1408+961156125+960203400+958514042+956763665+955573141+956351901+959350419
1398+962515391+964234965+964961096+965585137+966592192+967938374+968366156
1388+966020194+961418802+958705960+961367463+968172830+974820309+978882442
1378+981691389+985014542+988522923+991348592+993842995+996550028+999213526
1368+1002071816+1006371808+1012216295+1017539535+1020549904+1021770175
1360+1022155419+1021560597+1020385035+1019987470+1020538053+1020918603
1351+1021031841+1021678646+1022650733+1022775470+1022112706+1022780634
1342+1026111825+1030303741+1032474155+1032763059+1033866689+1036441356
1334+1038478466+1038675019+1037703519+1036805830+1036586043+1037807956
1325+1040279947+1042036602+1042247589+1042056785+1043175084+1046555090
1317+1050943325+1054866052+1059088479+1063701430+1066269526+1065239354
1308+1062774286+1061957682+1063158943+1065039046+1067243020+1070305256
1300+1073493638+1073741823+1068475495+1059888303+1053296680+1050954238
1291+1050501286+1049671070+1049513006+1051054099+1051883142+1049224338
1283+1044428446+1041186203+1040945059+1042154065+1042729759+1041714607
1274+1039111308+1035391001+1030972491+1025810248+1020536527+1017136572
1265+1016981677+1019248079+1021938096+1023324997+1022179827+1017795816
1257+1010813669+1003901225+1000143602+999818909+999867842+998142635+995517744
1247+992259189+986146334+975840213+963865094+954048477+947597727+942767160
1237+937389765+931154167+925497960+921671163+918958849+914960435+908246245
1227+900301223+893832930+889878168+887288656+884484462+881147110+878257899
1217+876786569+876738985+877451974+878016579+877650345+876449143+875217607
1207+874321736+873889026+875071571+879277745+885975858+892643462+897123050
1197+899263834+900364941+901618832+903281552+905232883+907774753+911287359
1187+915590108+920057082+924211976+928433874+932674665+935326780+935251152
1177+933825761+933694922+936384235+941868825+948568053+954195628+958603635
1167+964570689+973818241+984013236+991785820+996433504+998862781+999746507
1157+999425803+997978000+996286706+997010490+1002077566+1009578378+1015765043
1147+1019116887+1020421060+1020823436+1021028085+1020988892+1019783641
1138+1017044339+1014279924+1012928344+1012221223+1011147751+1011422573
1130+1015462410+1021695661+1025485671+1026059019+1027323647+1030535967
1121+1032312219+1029845978+1025465723+1024279364+1028514464+1036097300
1113+1042655832+1045856770+1047968980+1050952361+1053284124+1054598623
1104+1057703455+1063651558+1068042140+1065695943+1057980976+1051184587
1095+1049557128+1052255360+1055336958+1054904424+1048264338+1036918364
1087+1028077237+1027988641+1035338195+1044875765+1054727233+1064499259
1078+1069389730+1063819831+1050053028+1035650333+1025717780+1021711738
1070+1023606273+1029882121+1038912291+1049563113+1057545978+1056625524
1061+1046417327+1035220029+1029344563+1026424432+1023539856+1023472617
1053+1028510005+1034672966+1034810143+1027499782+1018498478+1013833075
1044+1014891409+1017909993+1018801346+1017968548+1018547881+1021918852
1035+1025428172+1024683853+1018983935+1013120555+1011482536+1012399940
1027+1011438766+1008265287+1006468383+1008269981+1011982074+1014064714
1018+1013308308+1011531938+1008889093+1003972454+998870996+997013072+998228531
1008+1000093496+1001102781+1000649594+997561894+991449626+984733618+980180982
998+977820704+975818739+972712088+967833057+960908585+952501693+944225407
988+938160487+935627947+935670073+935123598+931756558+926913904+923459560
978+922035402+920637763+917364013+912867527+909525306+908868760+910188247
968+910560934+907404588+901478722+896222838+893803535+892870290+890800089
958+887040119+883343985+881300656+881286516+883421433+887408055+892009505
948+896179655+899707633+902082051+902805366+903164090+905128739+908825812
938+913013270+916936936+920570642+924229519+928993904+935767000+942626757
928+945990217+945612953+945761571+950505302+958924926+965261969+965507044
918+962827235+962691232+965328562+966279174+963052010+957855854+954119940
908+953869115+957260445+961732582+962868541+958888901+952921554+949430950
898+950161833+953862485+958439000+962119938+963942248+964867220+967033057
888+970930262+974878043+977501643+979124407+980267524+980468712+979096362
878+976269227+973100559+971059518+970347116+969384711+967509244+966565379
868+969062951+975113847+981943857+986733412+988600137+989000400+989885534
858+992098309+995374466+997265129+994471378+987355340+980890978+980143314
848+986235986+996547329+1006232519+1010709115+1009591286+1006736985+1005688390
838+1007712123+1012468821+1016641611+1014060372+1003373055+992357055+989169377
828+995751964+1008512299+1021125247+1028278483+1029055073+1026464798+1023881095
818+1022941396+1024221748+1027489690+1030657419+1030344695+1025738667
810+1021708100+1024849192+1036274491+1050284433+1059627914+1058943206
801+1048270205+1033728456+1022153424+1018602916+1024304594+1035156545
793+1043522542+1042796177+1035149974+1029061761+1028219107+1029790709
784+1029806081+1026404835+1019673337+1013201406+1012437842+1017121904
776+1021596153+1021733916+1016082814+1005924958+995910380+991012868+990806341
766+990668812+989691328+991942827+998815843+1005347033+1006986696+1006156480
756+1006842479+1006818423+1001864937+994057854+989796469+992385335+998608847
746+1002934302+1003794089+1003029469+1002591303+1006041833+1017619916
737+1035252651+1050243362+1056812455+1055210929+1048234298+1038306438
728+1027755007+1019566788+1015281230+1013412393+1010198077+1004365560
720+1000447643+1003528889+1011309100+1015061912+1010958004+1005827796
711+1007478723+1014229231+1018342762+1018021236+1017834775+1018791137
703+1018313191+1016995171+1015485997+1010004341+998431304+985249818+975549843
693+970041080+966397634+963420356+963182204+968717663+980869563+996167953
683+1007060858+1007569783+998184292+984280138+971280420+961648504+956138920
673+954460886+953452951+950111375+947646836+953744612+965024756+969836430
663+968687270+968793702+970280992+967570439+960111050+952533670+947123536
653+945036965+945766558+948540477+953387590+956787486+954566145+946403331
643+937104734+931805608+931769172+935683861+942077464+950070656+950238929
633+935436674+921043484+919232615+926941598+933716396+932198479+925901627
623+922883454+927702052+941688935+961462747+975605875+969763031+944098674
613+920853268+914215763+919682340+920685816+908208108+894254140+891652483
603+896767964+894293451+880010741
##END=
