##TITLE=<SNM>
##JCAMP-DX=4.24
##DATA TYPE=INFRARED SPECTRUM
##DATE=29/4/2025
##SAMPLING PROCEDURE=Instrument type and / or accessory
##ORIGIN=Admin
##XUNITS=1/CM
##YUNITS=ABSORBANCE
##RESOLUTION=4
##FIRSTX=4497.3318
##LASTX=599.83466
##DELTAX=-1.4281778
##MAXY=2.0689852
##MINY=0.53004354
##XFACTOR=1
##YFACTOR=1.9268926e-09
##NPOINTS=2730
##FIRSTY=0.5399152
##XYDATA=(X++(Y..Y))
4497+280199940+282694380+285585042+286671255+285131130+282395876+280619454
4487+280708448+282045622+283645200+284885646+285364706+285019493+284445407
4477+284409988+284925859+285192501+284693582+283965604+283708860+283656954
4467+283121442+282111014+281091059+280385600+280394602+281349968+282672944
4457+283533872+283837170+283787801+283106872+281712318+280498413+280534821
4447+281963618+284015097+285452432+285062057+282839240+280464294+279594519
4437+280247237+281370694+282140988+282216867+281774803+281592514+282161373
4427+282937854+283199207+282959631+282480014+281828286+281222926+280858535
4417+280478399+279904375+279589879+280058112+281158369+282079803+281989942
4407+280893335+279832301+279751968+280371062+280719491+280339912+279434224
4397+278403411+277760375+277975421+278882904+279628823+279596436+279027887
4387+278555137+278546414+278960453+279484273+279823670+279959126+279950063
4377+279672253+279146608+278842072+279112706+279690163+280174266+280492288
4367+280607452+280468098+280374031+280625764+280871527+280563218+279856336
4357+279450432+279788036+280840439+282204989+283210776+283497990+283316969
4347+282868533+281925849+280553288+279388474+278843681+278666496+278462957
4337+278170176+277947582+277905049+277933043+277764149+277368453+277263683
4327+278077933+279607572+280666101+280391632+279472735+279322122+280178658
4317+280919071+280749620+280068784+279454237+278871737+278156039+277343707
4307+276404580+275444233+275076841+275844723+277459396+279123718+280206962
4297+280372206+279756700+279098693+278915879+278820945+278258397+277454880
4287+277104254+277525098+278482538+279443627+279772631+279063120+277596677
4277+276330619+276236923+277589934+279803564+281813995+282701340+282401475
4267+281889812+282204122+283154045+283406459+282041910+279668263+277836687
4257+277636581+278939697+280791194+282227972+282701000+282212722+281343844
4247+280802052+280683825+280415976+279496894+278112486+277061443+277110286
4237+278255396+279727252+280823488+281389748+281364631+280519571+279088949
4227+278017181+278040412+278924571+279943876+280767932+281468009+281829833
4217+281269357+279722055+278143821+277660863+278504500+280013661+281284174
4207+281682560+281221844+280634271+280684135+281300321+281652061+281146584
4197+280218407+279847798+280327013+280906017+280811486+280229543+279846716
4187+279816587+279861687+280025385+280468562+280817982+280611813+280206157
4177+280395715+281412299+282897951+284361980+285230333+284967185+283639508
4167+282041384+281065044+281081160+281694037+281973733+281371714+280424854
4157+279929059+279733532+279213176+278556035+278615024+279716766+281437880
4147+283186865+284270047+283985958+282543489+281326459+281490714+282702485
4137+283656954+283546338+282728716+282124006+282332062+283265249+284235835
4127+284434085+283653397+282522640+281855507+281900422+282267411+282390803
4117+282083638+281737590+281779690+281948275+281534113+280407717+279328927
4107+279087371+279743306+280900759+282335124+283913482+285150309+285433594
4097+284735435+283725595+283162242+283317310+283768994+283725533+282782447
4087+281313189+280067485+279546232+279757597+280358750+281099194+282125955
4077+283443238+284225782+283557319+281963525+281153977+281982518+283549586
4067+284486269+284336708+283473491+282472652+281911960+282200039+283188969
4057+284152192+284469998+284296062+284181053+284190518+284026697+283863371
4047+284166453+284754490+284955926+284642296+284312209+284262438+284269460
4037+283986577+283368226+282766640+282668304+283217922+283952860+284146222
4027+283561186+282758504+282467517+282793026+283231935+283321486+283147240
4017+283240256+283859287+284499261+284515748+284070529+283853689+284099544
4007+284477484+284756902+285057757+285496480+286011763+286570599+287171071
3997+287571005+287401739+286703704+286010185+285756349+285968086+286563268
3987+287480216+288406630+288920861+289145063+289708230+290682528+291142379
3977+290356865+288841177+287598195+286976719+286800030+286962459+287406070
3967+287982940+288667797+289546234+290458325+291048930+291262554+291402247
3957+291635420+291814956+291788415+291565171+291232548+290899028+290572345
3947+290111071+289528385+289110418+289009205+289123596+289402735+289724315
3937+289798864+289788161+290419659+291817925+292850130+292448650+291061705
3927+290007848+290073116+291074728+292284736+293137096+293557723+293710780
3917+293598184+293064558+292247709+291733849+291949978+292562422+292952178
3907+293339552+294796622+297739808+300866922+302611824+302816074+301779910
3897+299689734+297664084+297347051+298945021+300405586+299592511+297337029
3887+296160120+297070293+298831590+300184044+301405930+302276386+301338589
3878+298748751+296748559+296788184+298560771+301268371+303795383+304392608
3868+303030564+301888609+302102635+302482802+301734686+300342328+299437382
3858+299793143+302300204+307733592+313812429+314912254+310386750+304131935
3848+299043698+296663586+297392770+300226793+303587204+306707141+309238980
3838+310126974+308873413+306935334+305906563+305843429+305981019+306106886
3828+306390078+306529709+306399729+306959586+308899335+310686677+310748512
3818+310075873+309462904+308041283+305690434+303850877+303882243+306206243
3808+309620013+311493689+311329465+311806205+314142052+315649264+314446402
3798+312414194+311088837+309944005+308639590+308020929+308544007+309593194
3788+310661559+312007610+313772402+315614372+317588178+320196699+323205308
3778+325610847+327187659+328738951+331234319+335191830+339939247+343864588
3768+346427730+348555893+350891399+353715523+358027744+364813679+373322770
3758+381353791+387881714+394120228+401813862+411123253+419542484+424756835
3748+428533759+433864975+440502680+444512993+444442219+443713498+445492983
3738+450236224+455807079+459594737+461450224+462830209+464112229+464920911
3728+465663984+467262171+469735793+471887557+472525396+471464053+469716615
3718+468691803+469135661+471507143+476259911+482262498+486304921+487017123
3708+486570326+487143546+489137737+492075757+495178403+497269167+497730595
3698+497748351+499384368+503340704+508242786+512555316+516081218+518628554
3688+519312453+518548778+517704955+517215224+516948704+517468070+519973801
3678+524546818+528342178+528265340+526739475+527826029+531011390+532005268
3668+529187207+525755310+524383677+525281354+527215658+528769239+529511385
3658+529950015+530270296+530225876+530644462+533476382+539700851+546820338
3648+549973899+547791450+543550097+540884288+541160705+543241571+545066125
3638+546154597+547983606+551720874+556932039+562750234+568540466+572269877
3628+571236713+566321206+560814506+557522427+558714029+565067242+573254166
3618+577892575+578109725+577259561+577464771+578489397+579737422+581054798
3608+582051213+582204703+581739965+581289270+581162878+581717940+583582522
3598+587159742+591999154+596616715+599576450+600787911+600925068+600200122
3588+598711129+597503565+597864615+599524730+601216396+602573799+604000245
3578+605284647+605555806+604680215+604264475+606507677+612043392+619036981
3568+624161225+625396195+623948838+621806787+619385720+616757216+614496382
3558+612712783+611039430+609887483+610268516+612268770+615285546+619205257
3548+623402313+626147744+626479903+625476126+624729712+624936530+625945133
3538+626553957+625610623+623944631+623114450+622883195+622302644+621691036
3528+621334192+620335241+618833070+618641904+620120875+621304187+621009272
3518+619994359+619107385+618768235+619755246+622243005+624350473+624501612
3508+624116124+625452617+628453431+631339112+632914285+632836890+631201770
3498+629079825+628127397+629175284+631679809+634172455+635032827+634053239
3488+633225162+634201718+636449065+638659169+640108443+640003951+637855281
3478+635351561+634916951+636254496+636712429+635092465+632798348+631735612
3468+632558493+633851618+633217305+630227998+626577961+623330301+620643148
3458+619554367+621520100+625593177+628877337+629995814+629825744+629559411
3448+629457208+629010906+627761150+625832104+623544543+621036802+618529246
3438+616521073+615421837+615284618+615958834+617043470+617903533+618306776
3428+618748685+619242315+618453893+615242549+610564546+606758235+605278584
3418+605728598+606765659+607746731+609196253+611342017+612880007+612449790
3408+611058855+610989504+612363364+613117635+612288753+611065723+610578280
3398+610813928+611576613+612689274+613687483+614399438+615351557+616975851
3388+618569459+618312220+615010118+610124740+606522092+605157883+604796895
3378+604632022+605122063+606031309+606059272+605044483+604573187+605947047
3368+608929734+612501449+615327986+615750098+613313874+609814357+607541707
3358+607748897+610527921+614520386+617127856+616501029+613514011+610817392
3348+609977931+610242594+609959619+608795485+608061444+608940870+611162605
3338+613361882+614094438+612556509+609197924+605838348+604558525+606275432
3328+610126162+613976583+616105890+616668933+617092901+618156627+619156383
3318+618940841+617461933+615900495+615263831+615651051+617198136+620375701
3308+624821212+628777919+630166070+628445079+625384936+623595583+624498209
3298+627494754+630358906+630893862+628997172+626868051+626490915+627319797
3288+627398614+626212827+625278897+626145331+628484612+630126290+629349190
3278+627058165+625711341+626316206+627686044+628618180+629495008+630990188
3268+632235304+631789745+630348698+630836451+635056769+641017998+644206143
3258+641934111+636214654+631646587+630969524+633157233+635489831+636858680
3248+638039704+639020714+637996521+634034741+629234428+626809031+627649234
3238+629416933+629079949+626430410+624223276+624915125+628406289+632531952
3228+635308997+636438733+636696529+636392829+634890349+631718166+627427568
3218+623494679+621894018+623659429+627351720+630073704+630256951+628629502
3208+626756259+625482189+624590266+623610060+622673655+622019854+621315571
3198+620413192+619745038+619216269+618202593+616990142+616547923+616960137
3188+617708531+619008337+621130405+622877318+622488737+619913500+616805039
3178+614551567+613236851+612289495+611386189+610251565+608390510+605831605
3168+603581783+602781793+603643959+605266768+606147308+605234041+603213928
3158+602256303+603641731+606124232+607353201+606507739+604719624+603422107
3148+603046518+602853496+601810805+599943439+598285676+597206484+595916514
3138+594135328+592673804+591828775+591011586+590054765+589204973+588049810
3128+586223523+585008783+586113339+588889703+590761276+590638657+589825613
3118+589146015+587767329+585629114+584422663+585000307+585738740+584816441
3108+582907625+581983408+582386960+582622794+581839198+581007532+581014152
3098+581193502+580657679+579721213+579245834+579676793+580911516+582029374
3088+581577752+579323104+576979184+576125618+576407851+576479616+575704867
3078+574508996+573832428+574345112+575539066+575884526+574645967+572923616
3068+572034662+571722300+570981639+570068991+570352090+572181346+574109526
3058+574500396+573146705+570989744+568834701+566822692+564982362+563711076
3048+563317917+563438556+563519848+563514837+563479635+563186328+562755678
3038+562871986+563740772+564494857+564096502+562563089+561079541+560831953
3028+561718865+562468805+562168507+561074035+559573040+557330766+554223851
3018+551421318+550433440+551181773+551957264+551548576+550613038+550303893
3008+550518816+550350911+549474702+548275799+547080980+545927610+544895932
2998+544297192+544485450+545384179+546257542+546345516+545649893+544652612
2988+543511059+542130332+540759256+539825821+539355639+539033502+538697260
2978+538426163+538199671+537782941+537123634+536704863+537025453+537710310
2968+537811152+537073337+536194777+535770005+535627032+535242411+534347085
2958+533112424+531952744+531196307+530900649+530945997+531180717+531492832
2948+531826166+532095778+532178184+531961405+531248955+529872188+528103437
2938+526480689+525071751+523485258+521657734+520068580+519257144+519508011
2928+520633726+521770268+521949432+521123211+520139355+519710313+519740628
2918+519470520+518234715+516299637+514613600+513628167+513022003+512458990
2908+511890070+511299001+510823715+510842337+511323531+511554601+511031060
2898+510094067+509326433+508815635+508250427+507403542+506438060+505810893
2888+505762235+505967599+505913126+505528443+505161887+504939602+504478514
2878+503401580+501906989+500563165+499718229+499371438+499399990+499585619
2868+499565296+499055550+498107050+497140393+496799727+497482079+498772111
2858+499652929+499566626+498940850+498415762+498112804+497938806+497861102
2848+497551400+496522258+494882652+493264947+491991650+490927183+489979209
2838+489225030+488665916+488141415+487472086+486745376+486363075+486418321
2828+486208410+485003537+483210751+482172607+482757860+484423697+485680011
2818+485501157+484278404+483109600+482365413+481459848+479948769+478220262
2808+476904525+476179207+475870526+475786821+475749640+475623433+475438608
2798+475271972+475071247+474770083+474353817+473686623+472621289+471381988
2788+470479980+470157132+470143924+469979205+469455323+468758124+468153321
2778+467593928+466850885+466021601+465558039+465720221+466296503+466821251
2768+466809218+465975975+464567006+463253063+462441257+461945276+461485302
2758+461127871+460927146+460504199+459509733+458290074+457522161+457283791
2748+456983029+456184833+455126181+454358485+454106597+454085996+453947168
2738+453766303+453878590+454344008+454748581+454421402+452930708+450672071
2728+448789672+448115022+448378695+448760935+448844114+448663001+448328120
2718+448045361+447988753+447841203+447073971+445860313+444973648+444715419
2708+444708119+444694385+444739949+444661719+444004207+442744830+441548649
2698+441043637+441066341+440957395+440492719+440023898+439775815+439667116
2688+439707639+439928995+440105283+440006142+439662817+439174384+438520026
2678+437584055+436309799+435007332+434308029+434471974+435021685+435317003
2668+435132116+434546492+433730602+432950688+432396491+431980751+431534357
2658+431051523+430577721+430102652+429721990+429602619+429654401+429593741
2648+429408638+429335358+429394378+429412319+429366600+429289298+429093925
2638+428770459+428367710+427725633+426740571+425800330+425396747+425459541
2628+425487504+425192558+424738894+424402683+424126481+423537238+422535719
2618+421600861+421219425+421290107+421399208+421373719+421248008+421015206
2608+420701359+420422467+420189757+419863630+419401181+418961314+418690216
2598+418548048+418416768+418268661+418133112+418017887+417979685+418094632
2588+418264238+418299470+418227644+418202588+418166613+417932697+417483488
2578+416944294+416454840+416192312+416258972+416460996+416430898+416030439
2568+415460065+414951402+414542127+414194965+413947656+413862590+413965875
2558+414242819+414573802+414807037+414981314+415258722+415621504+415852234
2548+415753032+415229026+414358075+413496126+413047845+413046020+413106679
2538+412853956+412381083+412191402+412538439+413015674+413103308+412850152
2528+412643179+412657655+412867845+413237433+413645595+413890461+413885821
2518+413693634+413369950+412918514+412431937+412161861+412256887+412466149
2508+412398127+412084002+411929399+412123225+412484987+412822374+413039678
2498+413009147+412662635+412115832+411560863+411192883+411215959+411603055
2488+411894661+411642773+411034011+410648987+410652854+410692077+410609300
2478+410751097+411344950+412004133+412221345+412071103+412054739+412438216
2468+413047721+413563282+413760418+413592142+413253951+413073705+413167741
2458+413301248+413231092+413023005+412848760+412686361+412443630+412179276
2448+411975458+411745285+411376718+410963082+410731300+410755057+410830069
2438+410712369+410423238+410175186+410111248+410324685+410911300+411688802
2428+412124493+411925872+411473384+411310057+411461506+411598817+411637762
2418+411796820+412153787+412519199+412770159+413013169+413371280+413829182
2408+414294013+414667282+414878493+414919541+414837537+414736046+414786374
2398+415072969+415459755+415816073+416209758+416611393+416726773+416491280
2388+416332655+416497528+416501735+415658346+413772482+410970939+407347411
2378+403207148+399221890+395867449+392939328+389909437+386554006+383097023
2368+379985963+377638548+376262770+375814581+376070057+376792498+378022674
2358+380150001+383441029+387779573+393098417+399197700+404802519+407950327
2348+407606414+404563778+400970535+398584051+397468729+397039626+397289441
2338+398367983+399892920+400999581+401064076+400461717+400251496+400989775
2328+402349127+403805733+405073895+406070557+406962233+408035672+409306648
2318+410552755+411753390+413134952+414738366+416249569+417418838+418397559
2308+419391438+420256047+420776928+421101261+421569154+422355348+423452698
2298+424698866+425762066+426420259+426813542+427183934+427540097+427813019
2288+428135125+428689878+429357939+429749891+429653659+429280513+428932671
2278+428610628+428172090+427735037+427664541+428116565+428732225+428965460
2268+428717687+428398674+428341046+428505857+428735937+428857319+428599739
2258+427902601+427192502+426964804+427306986+428067846+429124642+430287260
2248+431251536+431816187+432022820+432085026+432192086+432300197+432205294
2238+431852750+431388445+430932771+430517804+430156475+429791898+429339657
2228+428886550+428634508+428586685+428492185+428150530+427632710+427168375
2218+426925612+426946430+427234355+427805348+428582757+429291402+429579914
2208+429353082+428954974+428913122+429491817+430517185+431569002+432324758
2198+432792063+433216217+433767258+434395848+434989979+435548444+436122469
2188+436641185+436926666+436953949+436947484+437076041+437260588+437439041
2178+437737204+438208655+438687591+439008923+439161299+439235106+439364437
2168+439651279+440083289+440590158+441128733+441642005+442005902+442109032
2158+442004850+441921238+442031329+442287454+442585834+442956103+443442772
2148+443977914+444492763+444932136+445109475+444843699+444322601+444057040
2138+444369588+445124199+446004832+446811442+447390261+447602585+447543287
2128+447494938+447561104+447642767+447790844+448231083+448986560+449753081
2118+450266786+450639808+451154905+451822749+452424242+452950475+453610369
2108+454399657+455075884+455559336+455986057+456351841+456416336+456071247
2098+455639112+455582722+455952340+456416769+456813857+457232721+457584553
2088+457667052+457647533+457899792+458376377+458629873+458435985+458028721
2078+457754437+457751128+457947336+458221403+458527516+458924789+459516693
2068+460314703+461119797+461632265+461744552+461598826+461352754+461117910
2058+461084812+461404381+461954897+462485244+462927586+463354709+463778121
2048+464188757+464643256+465212053+465959395+466922557+467990180+468940536
2038+469670122+470180239+470379479+470248941+470187694+470785630+472158623
2028+473814221+475278437+476556899+477830908+479067641+480206256+481426811
2018+482928332+484634753+486322522+487865307+489249529+490546954+491901419
2008+493371821+494827932+496116169+497214694+498168762+499030494+499853468
1998+500611142+501273016+502071862+503334115+504847359+505881142+506185894
1988+506439730+507372856+508961237+510735092+512508050+514488105+516794689
1978+519125803+521021936+522390476+523612949+525130091+527110981+529528460
1968+532217098+534726881+536524585+537661993+538909770+540892701+543350270
1958+545581160+547364202+549004767+550763620+552752738+555141820+557967491
1948+560934588+563804927+566739606+569809648+572479912+574241425+575494151
1938+577077799+579314814+582039829+585106717+588340642+591290478+593552612
1928+595261786+597032331+599403163+602251786+604860864+606829752+608498528
1918+610096591+611204612+611641510+612127654+613447938+615484322+617346057
1908+618363383+618781722+619300840+620096500+620720233+621032162+621684602
1898+623219499+625062490+626100231+626285582+626785212+628215927+629682586
1888+630110390+629733626+629435184+629572403+630029531+630557496+630739011
1878+630313435+629717169+629776437+630862001+632669914+634573780+635723005
1868+635164787+632742668+629630495+627259973+626004277+625151391+624017138
1858+622598920+621016201+619100641+616969850+615338874+614695034+614692250
1848+614918866+615580400+616477829+616040003+613248234+609531382+606780136
1838+605359752+604448403+603413446+602648595+602855475+603623852+603422787
1828+601691651+599593710+597919862+596169856+593918859+591652890+590012511
1818+589062681+588391434+587785889+587669395+588454909+589544494+589734608
1808+588817691+587885122+588017330+589391623+591386123+593102227+594017164
1798+594345116+594729861+595742485+597445782+598886890+598731359+597289199
1788+596344813+596982219+598775655+600789829+602768801+604762064+606379244
1778+607496978+609037691+612057807+616249791+619631452+620644076+620177482
1768+619702846+619626008+620287542+622324854+625306675+627535586+628441738
1758+629171944+630249527+631263512+632612440+635323597+639090004+641912334
1748+642587726+642091746+641901198+642704035+644466414+646644780+648440567
1738+649865095+652182103+656207110+660138761+661055183+659547445+658092603
1728+657865925+658842667+660286250+661386662+662574491+665630737+671773172
1718+679514784+684472545+684098318+680723090+677556660+676117284+676668387
1708+679063471+682900652+687098080+690680683+694124458+698455145+703212832
1698+706905680+708805030+708241245+705605688+703475515+703926952+706814118
1688+710977148+716357517+723205845+728669300+729275093+727109285+725863797
1678+726960064+730204878+734565385+738868480+742772971+746164965+748024102
1668+747838566+747418743+748811905+752001410+755008164+756027779+755653922
1658+755962077+758869473+765708211+775109813+779829143+777220127+774183369
1648+774227294+775323004+774097375+771008958+768604348+767936689+769119197
1638+772100524+775561931+775997406+771794101+766219658+762526068+761293324
1628+761514990+762379692+763803540+764905870+763972125+761398682+759879066
1618+761157157+764277311+766596175+767244408+767350694+767528311+767428707
1608+766973249+766846485+767407301+768183658+768785925+769697150+771813217
1598+775286936+779118116+782302302+785102422+788228577+791192024+792791386
1588+793184606+794088346+796649231+800220017+803486669+806165594+809150323
1578+813169638+817219701+818802483+817699844+816394470+816011642+815194763
1568+812534088+808699196+804788517+801467670+800155552+802758382+808755927
1558+812031859+809000669+803953449+800039182+797791959+796758981+796036014
1548+795339402+795523948+797327345+800508436+804625315+808772260+809968007
1538+807311601+804821244+805214775+807381943+808631947+808935524+810784083
1528+814953485+819563498+823259191+827513474+833333154+837815475+838259674
1518+837190133+837915451+840439154+843287406+846246832+850171306+855459928
1508+861149504+864417208+863358803+860534988+858624316+858224785+859440453
1498+862223189+865896116+869669576+873581616+878046428+882847607+887086485
1488+890305563+892788372+894543451+895637491+896966993+899695967+904304310
1478+910571529+918010615+925914625+933622644+941010814+948105369+954234441
1468+958364991+960371494+961784763+964403801+967870096+970660874+972797419
1458+975479376+978045704+977756171+974247498+969594984+965849364+963952302
1448+963387960+962899775+962128367+962019111+963268311+965547210+968332421
1438+971389966+973831696+974240631+973004547+972339672+973586274+975715023
1428+976940962+977242930+977825090+979269168+981397856+983775678+985267641
1418+984684924+982763054+980710957+978407930+975849458+973581943+971413908
1408+969036085+967589842+968672251+972163292+976141219+978772507+979957304
1398+981539838+984973901+988393795+988646828+986364774+984672180+984500749
1388+984358828+983366434+983270171+986449407+992768964+999331965+1003384441
1378+1005380055+1007889529+1011330582+1012790807+1010753804+1007754413
1370+1006095103+1005806436+1007262763+1011162863+1015801767+1018331347
1361+1018652061+1018748943+1019768125+1022167353+1026079578+1030414596
1352+1033562404+1035016133+1035535499+1036383930+1037888699+1038258411
1344+1035736192+1032156374+1031916086+1036949881+1044139152+1049085593
1335+1051012350+1051346179+1050214154+1047679748+1045824508+1046512211
1327+1048961489+1051012969+1051415222+1050511235+1050459391+1053730498
1318+1060638835+1068365537+1072792055+1072290321+1069005356+1066157289
1310+1065351793+1065908340+1066104456+1065893245+1066655435+1068845742
1301+1071735011+1073741823+1072870130+1069030845+1064736721+1061941982
1293+1060116562+1058489360+1057392351+1055964482+1052169246+1046097832
1284+1040370395+1036712006+1034331214+1032010927+1029848089+1028391081
1275+1027256642+1025526743+1022798325+1018742509+1013210754+1007344798
1267+1002812180+999486445+995491257+989839420+983724082+979078930+976300957
1257+974033751+970680362+965428056+958524358+950862554+943300230+936160081
1247+929289234+922451486+915037332+906652870+898568829+892632470+888487257
1237+883851694+877998111+872848255+869677371+866898223+862527261+857234123
1227+853061628+850496722+848819594+848166412+849031424+850506620+851038174
1217+850511446+850128681+850533223+851185291+851571336+852268071+854315405
1207+857798837+861595991+864590000+866924702+869837790+874037816+878555710
1197+882052752+884983162+889090080+894908275+900727832+904182310+904816932
1187+904778761+906514166+910255084+914462472+918136018+921562470+925513300
1177+930715247+937498430+945449210+953506648+960924824+968444027+977867530
1167+989146458+998579365+1002737260+1002939562+1002365754+1001642416+1000752844
1157+1001804319+1006281567+1012326811+1017128485+1019619213+1020057473
1148+1019348425+1019234406+1020873177+1022554573+1021364950+1017413131
1140+1013687494+1011811281+1010617204+1010032322+1012736550+1019182748
1131+1024664949+1024198602+1019236386+1017238607+1023997537+1037081285
1123+1047217485+1048121719+1043306559+1040108206+1041258173+1043761027
1114+1043644348+1040316819+1035662757+1031364921+1028778919+1029188349
1105+1032663243+1037591247+1041443400+1041693215+1037741581+1031901486
1097+1026873382+1023386919+1021017943+1019952548+1020318300+1021607836
1088+1023452683+1025510844+1027317704+1028365716+1028657600+1029203073
1080+1031446646+1035176428+1035745411+1028376418+1016507721+1008520563
1071+1007572403+1009486230+1009133532+1006456030+1004652201+1003582845
1063+999597495+992683837+987910560+989025696+994433533+998975864+998760942
1053+995209705+993155999+994383112+995863196+994413179+990688223+987526619
1043+985777479+984097877+982884250+984874667+989946263+992882736+989367506
1033+981871750+976380641+975503503+976591789+975856140+972930617+970339913
1023+970279965+973697199+980634305+988840592+993642266+992352606+987207513
1013+981811864+977374272+973175297+968123932+961856713+955345927+950023898
1003+946347939+943783404+941533706+938320259+932402954+923470730+913810898
993+906142908+901126064+897506156+893963828+890545294+887952177+885782225
983+882762356+878857740+875254660+872224892+868997030+865459342+862491503
973+860805219+860052865+858981964+856566526+853188762+850293925+848710277
963+847865805+846619637+844381322+841688168+840011535+840706415+843798853
953+847756302+850862722+853115575+855990182+860040430+864308200+868620389
943+874495316+882644253+891332725+898722257+905025915+910463263+913656481
933+914506521+916508136+923269665+934061150+944800854+952570986+956981109
923+957710634+953765867+945480886+935649933+928001616+924544477+925130102
913+928769807+934174613+939246579+941290078+939498807+936234444+934905251
903+936982095+940887639+943359312+942669939+940926058+941793049+946399783
893+952720021+957965151+960348542+959719240+958351010+959454762+963514167
883+967475390+968405175+967105555+966520178+967345719+967269685+965300921
873+963988432+965713258+969643487+972938598+973177957+970163471+966141681
863+963870021+965156959+970108163+976234451+979890427+980364445+980335058
853+981259090+982185287+983389696+986650719+991542593+994915099+994571680
843+991563071+989043266+989177515+991138175+992934332+993306148+991954869
833+990755100+992538080+997550841+1002689376+1004765787+1004494318+1005946130
823+1011915092+1020642602+1027098946+1028875121+1028645474+1029369740
814+1031098093+1032441576+1032401797+1030873828+1028334226+1025856366
805+1025082978+1026111130+1026690073+1025885195+1026792276+1032065369
797+1037786249+1037861107+1033449189+1030201653+1027931106+1020866062
788+1007998722+995301143+988099437+986281069+986147562+985135990+982789533
778+978921419+973074394+966158509+960441836+957228388+956341971+957010434
768+958321252+960604048+965483055+971837010+975139545+974053301+973005166
758+974504923+975119686+973180680+973220150+978147474+984227177+987325368
748+988623999+990593568+992037336+991022794+990041660+993511110+1000680213
738+1005509417+1004744690+1001474140+998417337+994948073+991286591+989233751
728+990545065+996201727+1004675339+1010276074+1007559040+1000485644+997873349
718+999939676+999970856+996784135+996422342+1001621443+1006178932+1003233178
708+995086715+988946878+987948917+990090225+992357184+992650862+990081688
698+985562433+982033777+981418705+981505379+980048742+979991392+985591510
688+995208653+1002084511+1001041634+993134531+984067810+977165350+972115841
678+967013498+961742199+957803371+954427772+949598939+942553754+935027004
668+932433701+938583128+946350723+949351661+947982379+945255198+944489049
658+946259285+948147252+947759661+945469936+943392411+941973698+940774177
648+940583691+942487496+946259656+949732756+949446811+944771653+938823415
638+934392010+934074142+939003755+944673162+945944881+942956626+936874077
628+927645514+916530902+908802406+906884867+907344470+905479951+900921472
618+899527939+904264097+911288062+915678759+916320929+918035176+923050350
608+927527598+931103333+936408597+939516068+939909598+945698654+955342772
##END=
