##TITLE=<SNM>
##JCAMP-DX=4.24
##DATA TYPE=INFRARED SPECTRUM
##DATE=29/4/2025
##SAMPLING PROCEDURE=Instrument type and / or accessory
##ORIGIN=Admin
##XUNITS=1/CM
##YUNITS=ABSORBANCE
##RESOLUTION=4
##FIRSTX=4497.3318
##LASTX=599.83466
##DELTAX=-1.4281778
##MAXY=2.1165862
##MINY=0.38413271
##XFACTOR=1
##YFACTOR=1.9712245e-09
##NPOINTS=2730
##FIRSTY=0.39646003
##XYDATA=(X++(Y..Y))
4497+201123729+201313877+201717924+202049976+202178106+201992555+201396319
4487+200340460+199076433+198378811+198929282+200457963+201943404+202586190
4477+202273445+201394641+200621759+200634307+201691028+203336440+204545738
4467+204493488+203293986+201773576+200679663+200372951+200879411+201806293
4457+202547955+202814981+202763426+202578358+202261320+201832841+201374246
4447+201010521+200962579+201263486+201533627+201493532+201398663+201514593
4437+201625503+201455962+201089863+200716311+200390685+200091441+199745419
4427+199358336+199187978+199487842+200042229+200208565+199492348+197952192
4417+196149667+194897930+194870097+196112460+197912778+199280112+199607597
4407+198952399+197884400+197102325+196962326+197332961+197945646+198605864
4397+198968289+198595462+197544048+196555951+196405717+197170163+198210162
4387+198809346+198751335+198286572+197825891+197764494+198199942+198703046
4377+198745046+198279239+197602467+197000728+196797760+197165416+197691349
4367+197736010+197227160+196624862+196265793+196162775+196262739+196572567
4357+197094902+197624570+197710172+197171221+196465753+196189157+196460235
4347+197004674+197540026+198023280+198666021+199523931+200083745+199705385
4337+198463400+197091304+196225699+196129347+196813937+197987116+199156637
4327+199974195+200222217+199688921+198610263+197853558+197980993+198519264
4317+198746875+198731182+199039845+199898012+201045535+202104796+202800573
4307+202953604+202506953+201691421+201036721+200983352+201535154+202371202
4297+203017828+202950414+202077340+201115641+200923497+201544014+202356371
4287+202891602+203096733+203053055+202855620+202694833+202701168+202719537
4277+202555272+202419325+202691492+203276252+203742815+204010733+204241187
4267+204239524+203698608+202827378+202102815+201705768+201751261+202514663
4257+203787868+204627318+204407236+203620837+203153156+203350681+204052823
4247+204840960+205194254+205065427+205142563+205908203+206794975+206972861
4237+206528750+206181050+206207644+206326447+206422360+206730811+207344282
4227+208021962+208477443+208502978+207883021+206533663+204782466+203345133
4217+202903743+203657742+205182990+206693937+207570095+207762147+207665554
4207+207617295+207748737+208234364+209083732+209672212+209242765+207933578
4197+206653706+206080496+206243823+206692485+206842190+206631481+206677487
4187+207328377+208096935+208460162+208538794+208648586+208849967+209165222
4177+209730842+210569732+211383617+211723182+211543693+211403528+211749610
4167+212326690+212669597+212674722+212406638+211958565+211606466+211473104
4157+211180406+210472429+209858202+209980421+210658540+211119100+211006209
4147+210715099+210734103+211008386+211129033+210954427+210800549+211078189
4137+211882684+212847589+213403443+213369335+213196921+213359084+213684348
4127+213716732+213492038+213369925+213350799+213249489+213287377+213794276
4117+214547005+215030833+215164754+215290693+215580004+215850674+215948522
4107+215992245+216074506+216008951+215733595+215696630+216303237+217199109
4097+217598228+217174300+216322543+215695345+215629095+215883708+216003448
4087+216000530+216331373+217169537+218159857+218915670+219386844+219722781
4077+220084238+220546099+220907814+220749052+219929620+218807329+217803781
4067+217105736+216888783+217317867+218123829+218699427+218868016+219056909
4057+219493597+219699317+219129917+218062220+217406931+217689015+218578977
4047+219451627+220027150+220315010+220304079+220006045+219621032+219413740
4037+219483845+219799584+220361606+221102482+221699383+221853956+221658184
4027+221399277+221242390+221334538+221873535+222838122+223939987+224916896
4017+225607321+225802957+225366117+224500134+223666777+223219642+223219929
4007+223492186+223743897+223771943+223665477+223670829+223803087+223828320
3997+223672507+223540899+223625065+224020781+224867186+226137397+227295261
3987+227600356+226924355+225968506+225488306+225553075+225778479+226031974
3977+226521291+227269635+227849633+227745148+226954819+226101535+225754879
3967+225874664+226210541+226807155+227646801+228310980+228487838+228337166
3957+228094057+227879221+227976782+228759854+230269364+232034727+233239112
3947+233311515+232636678+232169828+232145184+231828856+230780088+229578440
3937+229154331+230148218+232650587+235748058+237542419+236806698+234563509
3927+232873799+232644116+233219563+233652472+233900902+234579111+235887800
3917+237033705+236781072+234761866+232004218+229992465+229543531+230797868
3907+233991221+239400929+246058018+251353882+253324058+252220878+248899771
3897+244163193+239737969+237714076+238734905+240858914+241272818+240298842
3887+240724161+243352877+245863531+246749441+247144734+246942144+244538893
3878+241192493+240325164+242955558+247079648+250792313+253300382+253460686
3868+251409201+249574428+249458029+249719401+248487712+246244447+244745021
3858+245380036+249718252+258994139+268632422+268750408+260107117+250697625
3848+244817092+243208569+245123079+249218791+254077271+258825959+262836644
3838+264756747+263495002+260145669+256620808+253685818+251415747+250269177
3828+250570159+251687944+253420485+257194683+263149570+267070904+266070561
3818+263484842+261937294+259626584+255303850+251214548+249801480+251722430
3808+255538280+258474752+259969990+262349459+265972047+267477294+265452751
3798+262298842+259218289+255770896+252625650+251109821+251134903+251736158
3788+252847562+254887270+257189120+258857678+260516107+262941809+264882383
3778+264667124+263022604+261989816+263012081+266679632+272183015+277159270
3768+280047362+281344273+281756136+282051071+284034401+288928833+295149114
3758+299738481+302567913+306569164+314455463+325879625+335542551+338499070
3748+338020594+339669377+343955313+346248485+344605688+343177880+345929571
3738+353982750+365191199+374437787+377568050+375231548+371336430+369665937
3728+372047160+377651445+383730819+388313262+391461033+393673259+395211313
3718+396842257+400040524+406710615+418060575+431754052+441344499+443495857
3708+441823731+441225122+444308759+450893188+457861995+461734101+462617244
3698+462956750+464232585+466903724+471476915+478086501+484926799+488193856
3688+486182527+481731828+478265688+477416078+479431490+483470446+488838366
3678+496038428+503741186+506471681+503064867+499809633+500417797+502005228
3668+500953119+498817696+498413543+499648770+500712399+501318870+503300416
3658+507656956+512285148+514792733+517300076+524392433+536723172+546630265
3648+545812041+538195913+531655207+528557389+527968183+528987183+531280506
3638+534318454+537176853+539162965+540744500+543696514+549407204+555813475
3628+557584719+553766889+549034619+547463183+550935159+558936572+567260375
3618+571107597+571785700+573495381+576207008+577073248+576169756+576409417
3608+578257767+578945425+577217239+575026118+574509966+575819547+578092550
3598+581052849+584026755+585065046+583412694+581410678+582288288+587271890
3588+594071004+597905526+597344442+596110757+597120927+599197388+599835275
3578+599051099+598469756+597930563+596146679+594725644+598128315+607639782
3568+616571418+616115498+608019080+600850525+598381704+599337991+601788730
3558+604919084+608369954+611501397+613423465+613747489+613167778+613171346
3548+615185639+619221481+622816704+623186024+620787958+618719904+619053724
3538+620939992+622070325+621550847+620716114+621135930+622662675+623355958
3528+621489889+617837033+615209829+615482026+617677621+619782808+621108716
3518+621693326+621398330+620494958+619713564+619751663+621392403+625122485
3508+629973285+633639748+634586177+633480759+632391549+632905221+634847851
3498+636526328+636394856+634806366+633635575+634070267+635802143+637924988
3488+639324010+639340641+638557432+637882353+637405812+636759760+635679863
3478+634070932+632450451+632226513+634554730+638522297+640941347+638918346
3468+633157159+627826008+626750949+630224618+635072031+637536861+636890144
3458+635973347+637105071+639089489+639543352+638413865+637102652+635519484
3448+632623107+629115209+627030584+626862827+627358176+627713163+627921014
3438+627707901+626829324+625799016+625455520+626076172+627344085+628716922
3428+629518636+629405427+629160988+630320712+632967389+635022079+634932697
3418+633821353+633363378+633083259+631479408+628480103+625797988+625378172
3408+627940487+632821343+638324242+641877193+640932638+635361947+628406929
3398+623505451+621457958+621696289+624134207+628487300+633404319+637030566
3388+638195068+637322296+635988889+635358984+635825365+637560869+639744431
3378+640167814+637620255+634071779+632460067+633253677+634689166+635749651
3368+637217736+639500899+641302079+641504125+641108015+641883483+643993749
3358+646072689+646935059+646644538+646467952+647870966+650662117+652442251
3348+651363805+648842311+647470441+647830327+648739746+648714467+646982168
3338+644572311+643971736+646641272+651236204+654660404+654889483+652693403
3328+650043158+647713913+645219753+642567694+640473030+639320926+639757735
3318+642620367+646886074+650209766+651668719+651911344+651726533+651660797
3308+651669505+650875835+648623332+645703430+643639064+643175707+644033118
3298+645281619+646440254+648140683+650467328+651998790+652116353+652748374
3288+655425893+657927794+656206562+650183217+645273818+645995342+650540865
3278+653936219+655280996+657382614+660705883+662701609+662203660+660888879
3268+660036971+658943407+656762143+654209686+652889160+653497354+655485159
3258+658101356+660752690+662904502+664585700+665948740+665832024+662731121
3248+657934990+655180487+656076057+657758888+656306950+651720001+647447219
3238+645990987+647072215+649154965+650982028+651736027+651286337+650628735
3228+650913813+652022859+653062903+653714519+654108451+654112866+653391463
3218+651883888+649739575+647473102+646261672+646776796+648511272+650948283
3208+654076339+657188974+658253450+655733589+650700821+645931662+643354531
3198+643175405+644667014+646666309+647764167+647159359+645429721+643793698
3188+642403565+640187045+636987085+634601961+634748854+637105434+640086052
3178+642695840+644356355+644323215+642541085+639659101+636344299+633417080
3168+631501119+629994875+627849170+625582517+624878470+625902367+626297509
3158+623795548+619476926+616987847+618490281+622604740+626275436+627570926
3148+626400800+623835159+621062090+618452545+615975681+614225421+613913008
3138+614744415+615572738+615381214+614064316+612139224+610310286+609481843
3128+610131160+611362063+611476663+610076733+608614151+608296175+608665434
3118+608717079+608376365+608203649+608075866+607059285+604880018+602495982
3108+600870300+600219955+600438632+601189365+601744039+601692999+601395765
3098+601071500+600356447+599136187+597726582+596260734+594927992+594246684
3088+594195522+594039679+593811507+594532306+596217555+597303803+596688775
3078+595090125+593749884+593012515+592578367+591967935+590801680+589411365
3068+588770454+589293379+590190885+590352231+589453516+587845735+585969022
3058+584428247+583864138+584214227+584771320+585042247+584725782+583251529
3048+580513717+577733693+576488458+576911479+577502740+576911539+575646347
3038+575385943+576620655+578073863+578470094+577619275+575890060+573908847
3028+572450801+571636146+570808791+569836176+569561742+570382565+571416320
3018+571646911+571109351+570328017+569285614+567773443+566204486+565178351
3008+564677620+564187533+563192723+561549201+559814665+558879242+558932278
2998+559282548+559271299+558824089+558187108+557649367+557373965+557201672
2988+556733114+555656664+554056442+552380687+550961949+549737396+548718518
2978+548373086+548953220+549747919+549725241+548666933+547059212+545302965
2968+543601810+542273664+541723586+542085890+542877202+543107006+542140076
2958+540445452+539082715+538665620+539140105+539985361+540240624+539132909
2948+537069329+535134682+533751624+532774776+532306883+532462001+532871596
2938+533138108+533292500+533403109+533239343+532540376+531356220+530125257
2928+529417823+529348096+529386074+529020383+528216190+527138107+525952621
2918+524813337+523589086+521999810+520302949+519153022+518640015+518258903
2908+517818526+517559815+517499522+517314469+516775216+516030349+515635932
2898+516163030+517369078+518043432+517193822+515189145+513188520+511753333
2888+510627838+509539534+508619411+508080642+507859546+507702312+507436102
2878+507065966+506739584+506619209+506645395+506474795+505759379+504478857
2868+502967865+501617585+500680953+500311029+500451390+500661359+500405097
2858+499600239+498573801+497553290+496605953+495917902+495699316+495898036
2848+496182479+496113295+495427724+494346738+493409137+492844727+492363015
2838+491649322+490807756+490152089+489776148+489548702+489355969+489085012
2828+488402464+486959083+484974635+483157127+481934569+481145979+480481966
2818+479923784+479750101+480182193+480926274+481203158+480542804+479437084
2808+478807965+478874790+478948024+478424011+477536423+476823577+476318432
2798+475645862+474564785+473185296+471839582+470775771+469980346+469450013
2788+469368221+469615684+469534315+468759664+467822759+467371285+467252452
2778+466797258+465687517+464254507+463108904+462626709+462636022+462496386
2768+461602357+460033491+458605259+458021315+458105194+458090498+457537669
2758+456666863+455853054+455083906+454031797+452643055+451485780+451257488
2748+451921924+452586148+452384495+451302269+449972369+448903025+448121177
2738+447416828+446724301+446206849+446013118+446027209+445897279+445319685
2728+444348007+443423711+442948803+442815305+442543471+441837428+440776732
2718+439660307+438906913+438763497+438954597+438950757+438595347+438153972
2708+437806575+437373939+436542865+435225544+433658704+432201625+431140445
2698+430617852+430551935+430664448+430715821+430582565+430140979+429396595
2688+428634462+428135092+427855759+427538025+426976789+426195455+425478921
2678+425143467+425257916+425603831+425748124+425249056+424072369+422675765
2668+421550481+420941138+420898322+421179922+421303321+421038623+420537953
2658+419885340+419016832+418018787+417016932+415985868+415022596+414472004
2648+414487123+414758684+414864818+414678888+414329858+413937014+413494641
2638+412946619+412334948+411882355+411802981+411964751+411975335+411686175
2628+411252873+410704579+409983538+409383599+409331772+409746659+410125503
2618+410142406+409794767+409183306+408460603+407835143+407447198+407285851
2608+407201821+406986138+406560487+406053467+405569971+405049011+404512691
2598+404237531+404480458+405137728+405751395+405811507+405162371+404240555
2588+403738131+403858536+404104850+403968781+403523899+403091384+402692129
2578+402191338+401726590+401653627+402135792+402904214+403399926+403208916
2568+402450654+401693117+401429840+401666236+402015326+402167269+402148582
2558+402043296+401740076+401242066+400934582+401119726+401504859+401561645
2548+401194140+400692865+400250946+399895324+399742807+399964144+400478089
2538+400916651+400988314+400755789+400456439+400146748+399713930+399215648
2528+398958147+399158590+399733796+400443013+401010539+401167652+400888894
2518+400510594+400329774+400237429+399992779+399631835+399378416+399375090
2508+399655783+400152160+400609772+400712307+400418340+400025103+399802707
2498+399724785+399652246+399588717+399632954+399824901+400121288+400408573
2488+400545578+400525682+400523475+400685608+401008573+401406860+401676305
2478+401477192+400694618+399775402+399358369+399579495+400013794+400269330
2468+400342565+400389342+400476335+400631060+400894639+401228248+401499416
2458+401644767+401775151+402012030+402236785+402194604+401905081+401718244
2448+401859543+402147222+402255865+402086414+401806568+401596085+401421797
2438+401135298+400748985+400492542+400584071+400986621+401374052+401393706
2428+401052145+400745931+400805348+401151566+401509606+401804058+402168539
2418+402601901+402828742+402659896+402343523+402295324+402562351+402836664
2408+402937264+402994140+403146778+403322034+403399472+403428772+403590482
2398+404042984+404819903+405751667+406496505+406834740+406926480+407083472
2388+407326309+407307622+406620629+405135127+403107530+400957684+398877413
2378+396730348+394382900+391961643+389655892+387479950+385412047+383518643
2368+381762820+380036659+378557749+377782040+377762083+378109722+378757770
2358+380236498+383033636+387099504+391992515+396954770+400822371+402497340
2348+401607364+398762602+395467273+393318545+392745365+392952310+393031592
2338+392748842+392510663+392764868+393507286+394362127+394982779+395302539
2328+395457808+395576853+395745729+396114352+396839868+397879731+398983607
2318+399936235+400695223+401287059+401749661+402247005+403066559+404319565
2308+405747374+406984143+407887000+408549108+409181220+409964852+410830003
2298+411494500+411879603+412273263+412948948+413840829+414642361+415065443
2288+415068436+414920847+414907180+415003184+415027343+414956528+414844770
2278+414638098+414335331+414093825+413946962+413685137+413203909+412697675
2268+412369751+412208707+412143273+412188266+412360680+412621658+412962766
2258+413447441+414124607+414942407+415784336+416575618+417292697+417857047
2248+418099914+417876278+417220037+416403960+415787662+415492757+415274534
2238+414846010+414243198+413710566+413326098+412951094+412506666+412116543
2228+411938838+411952233+411998859+412026466+412155882+412436817+412694379
2218+412758271+412725403+412856875+413292988+413950167+414650616+415308007
2208+415967000+416646010+417217013+417551075+417731502+417998619+418507846
2198+419206148+419900489+420412498+420733982+421039379+421483264+422048763
2188+422684353+423433695+424269305+424939456+425169774+424981455+424704330
2178+424668952+424913542+425238957+425515992+425808931+426184510+426579107
2168+426924388+427252221+427635903+428113896+428687196+429327200+429948518
2158+430434160+430811069+431359424+432318735+433496087+434441912+435017873
2148+435514915+436244603+437279145+438543339+439930992+441351393+442795923
2138+444297329+445776027+447092925+448321802+449751213+451544622+453605813
2128+455765608+457924132+460126895+462619300+465574036+468696861+471404284
2118+473393420+474785609+475881955+477026047+478466071+480192685+482127575
2108+484478953+487670719+491905584+496973246+502528637+508388398+514384105
2098+520055305+524756551+528071897+529959798+530414265+529041428+525277057
2088+519269194+512100700+504770799+497502370+490338381+483731032+478129317
2078+473470646+469407439+465788147+462751922+460485600+459004997+458142567
2068+457662367+457334776+456938666+456294731+455382167+454428511+453773358
2058+453558884+453629247+453745177+453804775+453916925+454331510+455182873
2048+456337608+457636515+459115545+460819723+462670704+464779035+467678375
2038+471982332+477900481+485211907+493535529+502392781+511176465+519449349
2028+527181830+534337080+540402697+544762865+547455382+549160044+550277859
2018+550295215+548520826+545320442+541862799+538715331+535500070+531798895
2008+527668531+523352812+519038544+514873285+511014150+507627988+504708661
1998+502019894+499581371+497974859+497634386+498052932+498255704+497896514
1988+497341568+497004602+497192074+498188758+499911049+501739442+503121955
1978+504174185+505394717+506993639+508755600+510451312+512164380+514066069
1968+515961407+517430460+518478729+519529357+520756147+522081149+523744325
1958+526124913+529010465+531679760+533689698+535200902+536732727+538888167
1948+542058495+546161827+550675480+554741560+557375295+558315012+558603174
1938+559621932+561775316+564399436+566680302+568396454+569823597+571274265
1928+573068006+575712748+579369898+583107176+585686121+587255864+588896725
1918+590597456+591358652+591273443+591652862+593091435+594789202+595750448
1908+595950801+596064917+596513216+597129877+597539412+597693744+598088039
1898+599278182+600946680+601873032+601600291+601501475+602978389+605235790
1888+606115214+604970064+603098250+601740653+601159007+601144856+601465795
1878+601848237+601958604+601633129+601228613+601611539+603357687+605547901
1868+605802076+602857258+598301999+594506846+592388295+591349641+590286314
1858+588555769+586419075+584547745+583146545+582019659+581298074+581509615
1848+583110079+585998957+588664260+588311511+584126175+578717859+574639080
1838+572466948+571499836+570863400+570612248+571614012+573668944+574692721
1828+573411624+571004125+568418890+565217478+561601875+558887889+557750239
1818+557570145+557464435+557400211+558049951+559577906+560940100+560945180
1808+559852159+559097374+559811157+562103997+565163293+567660355+568622266
1798+568385568+568492609+570536231+574728219+578812441+579708919+577684527
1788+575769292+575800013+577517254+580084286+583076092+585814086+587372822
1778+588182760+590261156+595256249+602586211+608714116+609913693+606884271
1768+602949482+600250676+599776736+601840859+605267661+607815038+608865000
1758+609566991+610372273+611345251+613723662+618787091+625558629+630811284
1748+632584040+632132294+631545749+631927042+633627713+636340973+638835072
1738+640695759+644050051+650810885+657740383+658636316+654376838+649854779
1728+647242089+646886618+648563583+651309862+654518349+659451213+667966540
1718+678963993+686505435+686241039+681363267+676830141+675096149+676912387
1708+682209551+689498087+695820238+700184397+705305035+712971600+719698507
1698+721819477+721110471+719147340+716098688+714124974+715470839+719939015
1688+726414650+735703329+748252442+757551763+756158183+749203105+744892828
1678+746324809+752755088+760628718+766248394+769822269+773081314+774733907
1668+772977418+770571068+771250018+774599713+776690386+775432027+773740246
1658+775395017+782036716+793794638+807419838+813537161+811195700+810301762
1648+814102902+817386983+813944881+806841821+802629392+803397240+808331979
1638+815688489+821501865+819730560+810972488+802842022+798916788+797840700
1628+797346622+796936905+797259961+797401714+795507585+792535433+791477669
1618+793031144+793887345+790430065+784416699+779659756+777346295+776296997
1608+774917145+772896261+771089457+770206224+769985672+769515179+768470054
1598+767652678+767769636+768291231+768207413+767371289+766352894+765434343
1588+764362610+762954939+761531546+760477713+759783100+759803843+761930800
1578+767035593+772527607+773253667+769766935+767936365+770267726+773637621
1568+773648385+770899385+768576611+768476827+772487512+783165779+797816087
1558+802244471+792582724+781671569+775097965+772210477+771672857+772254019
1548+773511168+776539743+782465240+790895055+800890199+810342462+812559224
1538+805120831+796598730+793335332+794422184+795226196+794355601+795461563
1528+801150906+809845541+818282251+825467194+831568853+835427988+836968461
1518+838026890+838940724+838984750+839290933+842344303+849875283+862460983
1508+878390997+889122361+885373471+874502592+867160233+866023490+870196610
1498+876965668+881645808+881731561+881047169+884851332+893722916+902428739
1488+905563991+904714442+904288700+905437538+907245552+909354669+912473593
1478+917339269+923790170+931097575+938513290+943855568+943881149+939432809
1468+934993963+934014514+937093948+941720991+945055689+947511024+951192908
1458+955781731+956867555+952421634+946923815+944324973+945319601+947983271
1448+948971610+947052747+944783493+944983301+947997604+953050994+960061891
1438+968670470+976078626+978758262+976912149+973307492+970095739+968659706
1428+969651189+972789526+977451282+982817810+987926111+992502658+996490846
1418+998929672+999195760+998215586+997017097+995758195+994318352+992860064
1408+991806957+991554596+991770914+991773696+992379592+995271373+999831108
1398+1002885869+1002865791+1001323383+999546272+997315722+995065396+994322041
1388+995849028+998310713+999647567+1000061577+1001870195+1005932163+1009882796
1378+1011104870+1010109395+1009189514+1009137566+1010099961+1012978800
1370+1017479512+1021454516+1023056009+1022364419+1020800301+1020591663
1361+1023754008+1029428353+1033893687+1035008599+1034702476+1036207087
1352+1040501036+1045704161+1048768416+1048615657+1047757279+1049213390
1344+1053033216+1056475075+1057614661+1057417030+1057701019+1058665229
1335+1059174184+1059474018+1061571040+1066108459+1070972806+1073741823
1327+1073737469+1071660887+1069350631+1068512814+1068173309+1065812738
1318+1062039719+1060508499+1061785967+1061475973+1057146103+1052668432
1310+1051801950+1053307771+1054777912+1056833449+1060422624+1063109396
1301+1062081568+1058156031+1054210054+1051861216+1050768437+1049170694
1293+1044934802+1037773867+1030283587+1026107201+1026880552+1030048219
1284+1029960772+1023368542+1013072899+1003766865+997133693+992532896+989166811
1274+986021762+981779882+976387047+971018825+965580574+958652165+950321164
1264+942236599+935083344+928681851+923546820+919965687+916491232+911398473
1254+904718312+897395184+890137127+883768169+878917611+875009129+870386077
1244+863693156+854823689+844661937+834625670+826353089+820850734+817570524
1234+814837428+811521114+807992958+805322454+803960441+803466302+803207350
1224+802814989+802158476+801464649+801346118+802284324+804108605+806293255
1214+808700149+811642245+815417018+819788495+823728001+826287352+828043116
1204+830701706+834824390+839057924+842126231+844530465+847602279+851415514
1194+854512728+855679406+855513947+855944225+858592414+863847609+870489549
1184+876142063+879366092+881696546+886505377+895207631+905402403+913843709
1174+920711462+928798991+938861806+948031651+953297066+954916217+955231713
1164+955592506+955829264+956397606+958903135+963590955+967820861+968954944
1154+967992609+967549087+968009240+967821042+966290789+964624166+964120774
1144+964828631+966423350+969142234+972945490+976556860+978703472+979757970
1134+980691337+981936028+983856887+986387573+988281945+988306558+987114359
1124+986701558+988484475+992189520+996246831+999278853+1001073864+1002067162
1114+1003031794+1005903679+1012760003+1022055877+1026542014+1019052218
1105+1003287058+991061787+988742218+992266746+994006242+992537189+992110359
1095+994930719+998018438+997509483+993027277+986891872+982304500+982261866
1085+987542399+994839704+998533502+996549386+990829504+982216086+971257943
1075+961794795+958507267+960859069+963198655+961800661+958277463+955231471
1065+953321861+952437236+951723936+949447425+945581154+942376537+941044037
1055+940558485+939653541+937780699+934917281+932081741+930856281+932224038
1045+936421529+942572052+948441489+951715531+951461899+948286673+943960613
1035+940794216+940571548+943150433+946186265+947345202+946685181+945615020
1025+944481421+942580095+939707243+937314802+937692950+941601977+946983019
1015+951134187+953703577+954912709+952836309+945967588+936290541+926540199
1005+917116118+907752149+899458522+893035318+887517966+881513792+875129534
995+869844526+866868685+865507277+863692914+860425343+856447617+852455800
985+848190940+843689443+839944605+837566557+835859476+833815913+831090801
975+827709839+823947524+820432491+817545850+815023751+812474075+809775692
965+806853372+803720115+800880040+799211965+799091439+799981083+801375267
955+803726888+807916215+813848908+820207101+825841049+830630709+834875068
945+838874141+843127935+848030622+853287207+858123009+862039656+865175815
935+868369486+872971432+880141620+890059114+901127262+910001386+913737878
925+912319866+908263946+904167025+901034252+898226833+895099805+892937712
915+893755210+896645116+897652262+894637657+889895288+886555389+885407156
905+886040508+888438573+892432143+896939930+900320892+901867714+902585550
895+903590640+904697086+905386135+906110199+907584754+909730156+912350345
885+915877172+920198697+923354208+923123255+920226636+918036059+918734240
875+921223260+922715051+921364771+917294216+913084206+912638024+917213784
865+924408162+931593287+937640761+941230843+941652897+941315024+943556097
855+948786739+954604227+958031694+956958932+951804852+945981618+942725779
845+942839774+945781810+950267281+953715007+954204187+952999772+953081413
835+955597223+958195459+958686272+958905977+962406497+969669090+977547860
825+982289019+982030429+978317219+975875975+978774711+985967153+991166469
815+988918804+981660989+977243067+979905044+986298917+990928017+994182042
805+999713606+1005510170+1004693761+996314502+987115992+982137953+980303936
795+978520233+976361950+975410259+975690560+974786825+970385534+962973810
785+955154185+947883549+940264155+932683646+927022969+923499287+919782570
776+914811909+911142181+911672484+916172954+922156748+927685167+932396391
766+936407741+939319539+940446547+940170177+939034824+937140997+936025057
756+937950331+942729045+947625563+951660982+956201910+961279611+964764346
746+964994574+963781632+964114424+966388517+968613564+967950458+963793183
736+960950749+963719403+967534815+963594826+952601606+943713815+941429624
726+943231529+946285383+949792494+952581650+953918081+954982195+956656982
716+959201396+963164366+967691142+969881114+967602547+961614641+954459753
706+949492116+949812874+954236662+956191085+952274740+946685121+943102053
696+940705983+939611814+941186878+943134891+942830703+942554152+945446900
686+949236369+948581246+942341281+934804072+929671037+926348615+922932457
676+920264735+919879148+919238721+913209994+901411251+892692608+896141119
666+904661647+906340124+901697720+898644713+902282329+911026493+919308932
656+922188799+918892503+912347684+905644120+902154486+904392898+909603220
646+911840362+907514967+898512939+889818546+884432061+883569026+887974550
636+898189459+911667767+922784838+929877860+933484997+931448933+922871982
626+912652780+907186952+908511590+911104324+907328221+899313322+893653128
616+892917695+894819202+895571266+894142127+892122089+891890411+894826096
606+897616824+892505015+878177038+864470619+860886463
##END=
