##TITLE=<SNM>
##JCAMP-DX=4.24
##DATA TYPE=INFRARED SPECTRUM
##DATE=29/4/2025
##SAMPLING PROCEDURE=Instrument type and / or accessory
##ORIGIN=Admin
##XUNITS=1/CM
##YUNITS=ABSORBANCE
##RESOLUTION=4
##FIRSTX=4497.3318
##LASTX=599.83466
##DELTAX=-1.4281778
##MAXY=2.1922631
##MINY=0.51684541
##XFACTOR=1
##YFACTOR=2.0417041e-09
##NPOINTS=2730
##FIRSTY=0.52930576
##XYDATA=(X++(Y..Y))
4497+259247040+261352043+262420003+262208933+261728786+261453520+260815757
4487+259466459+258038164+257585430+258658878+260673409+262092130+261864974
4477+260792519+260705989+262183768+263830403+264068797+262910134+261461344
4467+260460880+259855639+259300611+258666059+258209997+258342740+259188945
4457+260372891+261319551+261813185+261952497+261691535+261002246+260328517
4447+260224646+260643019+260963126+260584194+259510775+258572815+258848169
4437+260547673+262638049+263752456+263313472+261818002+260412506+260169382
4427+261269455+262671826+263074318+262397582+261609268+261071493+260288784
4417+259483596+259823584+261525453+263177342+263554786+262921548+262184994
4407+261831256+261631192+260829799+258987802+256825200+255724982+256310721
4397+257922002+259510775+260605213+261218074+261340278+260868627+259768759
4387+258268647+257053815+256918035+257894385+259037401+259347437+258602680
4377+257148840+255433075+254046351+253677227+254624413+256515281+258547679
4367+259916186+260154698+259319295+257857893+256272799+254990004+254376063
4357+254562260+255275109+256046169+256519339+256527951+256182299+255876467
4347+255863447+255979520+256053059+256144844+256172431+255950093+255666565
4337+255586137+255418537+254703790+253726769+253455852+254472927+256170359
4327+257188280+256838483+255771224+254921078+254434625+253972374+253463735
4317+253144123+253293098+254097294+255220341+255884554+255916316+256060678
4307+256806808+257553609+257367179+256197012+254994617+254688522+255314724
4297+256207055+256783278+256900724+256716716+256569610+256820033+257497294
4287+258111615+258028909+257160984+256157864+255645312+255416230+254902015
4277+254309064+254440055+255404319+256500830+257332205+258016619+258435955
4267+258300672+257899086+257883992+258257875+258264443+257461240+256376786
4257+255888641+256395208+257603355+258725526+259026220+258553635+258055271
4247+257981587+258146910+258557371+259621536+261041365+261529365+260423279
4237+258754370+257934351+258101485+258407200+258377948+258332552+258734051
4227+259625710+260542768+260883662+260554300+260096982+260000118+260141444
4217+260057571+259578154+259104284+259170174+259658845+259838999+259378003
4207+258775389+258601016+258849628+259098241+258965206+258558043+258477235
4197+259072200+259957758+260604045+260879720+260751969+260183892+259543676
4187+259350648+259532583+259600283+259458110+259367114+259286744+258957090
4177+258553810+258655783+259528875+260832135+261962423+262404822+261961868
4167+260966892+260074941+259684623+259688039+259705672+259545340+259534305
4157+260263940+261702249+262769391+262396852+260796665+259025257+257743221
4147+256992333+256704163+256853226+257299771+257867031+258578128+259599261
4137+260839346+261777219+261968057+261659481+261586497+262106814+262714887
4127+262567664+261451564+260050273+259266250+259419662+260175250+261151425
4117+262261014+263221600+263250969+262025773+260603958+260420389+261585855
4107+262968784+263727875+263980925+264052391+263851889+263124940+261913202
4097+260632714+259769197+259414174+259067062+258150909+256870275+256187291
4087+256665599+257846654+259128047+260533251+262032983+262915213+262632094
4077+261767409+261493778+262206247+263046701+262928292+261839109+260670490
4067+260004526+259754279+259743740+259956590+260357214+260859227+261287934
4057+261371311+261102146+260918986+261112364+261321302+261034563+260295469
4047+259552522+259082272+258872633+258955981+259453994+260205991+260717171
4037+260727388+260631692+260929145+261386317+261368333+260936619+260790446
4027+261195916+261858085+262667827+263597467+264063251+263466184+262209575
4017+261324835+261285540+261675216+261818673+261544954+261400592+262048748
4007+263421809+264759196+265455843+265426532+264819627+263884907+263012545
3997+262602433+262773303+263214681+263541415+263797998+264250995+264761094
3987+264873051+264519284+264142365+264114807+264330722+264410100+264311951
3977+264567307+265515368+266522751+266672572+266082921+265689420+265820032
3967+265782198+264953363+263741070+263184641+263868646+265479869+267262691
3957+268521781+268798157+268179341+267465674+267440276+267912686+267982897
3947+267431635+267288674+268582825+270871105+272434771+272078960+270249457
3937+268259214+267224360+267700566+269464033+271307432+271846550+271114463
3927+270538970+271070701+272050905+272336622+272036717+272170628+273049033
3917+273735024+273106311+271238973+269358995+268510775+268677821+269346325
3907+270627193+273102253+276482928+279318616+280627832+280683212+279753367
3897+277865302+275923754+275449738+276941500+278758538+278636217+277245201
3887+277426931+279943943+282326431+282703028+282268744+281858049+280331254
3878+277672858+276009291+276909387+280086875+284309638+287834704+288639979
3868+286950401+285306657+284946058+284660077+283295453+281501770+280310877
3858+280330816+282711552+288678048+295190726+295269519+289421141+283347622
3848+279983442+279291029+280163187+281868588+284326453+287448881+290465045
3838+292000890+291353143+289361790+287419659+286358005+286261958+286735653
3828+287152158+287045076+287004351+288616449+292195611+294965089+294576289
3818+292684983+291440256+290424203+288534970+286344576+285277200+286280496
3808+288943826+291497359+293293669+295853420+299553122+301729299+300773063
3798+298590639+296803467+295348254+294306336+294386968+295615463+297212410
3788+298939560+301404462+304750863+308352212+312045870+316008548+319374538
3778+321135670+322365829+325271261+331065543+339637011+349490222+357990049
3768+363946910+368749691+373434180+377538067+381075949+384622180+387472524
3758+388512633+388709310+390384350+395098645+402559297+409678939+413051760
3748+414193346+417177688+423185230+428682468+430487244+430649940+432608537
3738+437799476+444965769+451193488+454900459+456840080+458228819+460119190
3728+463423261+467684735+470682419+470689250+468245573+465087616+462777149
3718+462305410+464143058+468273394+473679402+477734185+477557272+473336465
3708+468022125+464272444+463592671+465871609+468687680+469048454+466811643
3698+464573809+464740417+467803232+472557464+477424121+481218877+483026864
3688+482880575+482195373+482171434+483056787+484611404+486110786+487020808
3678+488252193+491016971+493801220+494212032+493332780+492826739+491438526
3668+487784453+483482955+480822078+480155997+480010992+479248135+478501655
3658+478680846+479157781+479114808+479748834+482916863+488629608+493696299
3648+494018129+489612438+483591059+478228520+474099381+471353112+470616325
3638+472135383+474625391+476026011+476099725+477396941+482412719+489376204
3628+492233817+489055775+483980268+480703435+480802168+484125360+488199265
3618+489874159+489410127+489593200+491441504+493540346+494780139+495560075
3608+495952787+494869355+492248356+490082134+490401979+493314563+497185807
3598+500424600+502522568+503787700+504618491+505303489+506398132+508135266
3588+509411492+509020882+507648025+506629053+506708576+508474437+511971535
3578+515570928+517050926+516246935+514933165+514481249+515060916+516377313
3568+517642271+517447550+515757183+514528484+514995815+516059162+516140962
3558+515709598+516257736+517638476+518268823+517674676+517307362+518378416
3548+520224851+521326675+521323814+521058561+521063933+521325508+521629296
3538+520990774+518225208+514269187+512023325+513176354+516547628+519423604
3528+520067440+519124954+518278691+517871849+516879092+514825908+512544430
3518+510863814+509651288+508495223+507525471+507498145+509171054+512181671
3508+514810903+515664873+515278992+515140323+515472487+515192404+513949342
3498+512721110+512333302+512453930+512219389+511462575+511024262+511681643
3488+512943682+513577357+513360683+513300193+514165199+515456314+515779779
3478+514314495+511850908+509895755+508809754+507818633+506576679+505425285
3468+504503702+503811289+503629354+503909846+503864479+502619957+500165070
3458+497697161+496683794+497224751+497951379+497853639+497243785+496736459
3448+496327107+495459941+493781894+491898266+491065665+491804029+493068286
3438+493262248+491985321+490445594+489965943+490513031+491127497+491210466
3428+490741850+489965827+489408025+489506115+490059830+490399935+490065318
3418+489128497+487954827+486754650+485489605+484394379+484158816+484960676
3408+485786358+485586352+484616367+483766016+483274601+482855469+482431695
3398+482178586+482301374+482936919+483782423+483997521+483093834+481602130
3388+480448721+480321291+481590277+483818915+485638988+486257454+486550762
3378+487459325+488354546+488162861+487327428+487449165+489162828+491248125
3368+492055503+491478755+491004067+491951982+494094149+495887393+496131568
3358+495422398+495378140+496559429+498081991+499045613+499260069+498828996
3348+498036391+497444929+497421107+497526496+496843249+495151773+493457086
3338+492937207+493576079+494412767+494812719+494835724+494672824+494310415
3328+493733783+493213787+493331788+494520316+496330201+497428172+496817734
3318+494817390+492435778+490413072+489262086+489283018+490019017+490538721
3308+490533992+490467664+490797493+491512911+492112605+491978607+491133628
3298+490464219+490649657+491065665+490536503+489318722+489219055+491242637
3288+493990920+495365179+495407509+495697985+496570465+496919036+496220550
3278+495150139+494477577+494314327+494237547+493848981+493290333+493120368
3268+493715741+494950279+496173257+496416439+495185171+493033137+491069052
3258+490396140+491727425+494645674+497438156+498475053+497736865+496455267
3248+495680644+495620681+495812891+495696350+495294238+495108859+495263643
3238+495200060+494290738+492527096+490697476+489850629+490269381+491060060
3228+491010490+489797905+488318141+487845351+488696694+489634480+489134540
3218+487398952+485979356+485464294+484992467+484011622+483120459+482966784
3208+483429006+484035327+484368863+483943250+482435607+480198561+477935446
3198+476041075+474725408+474397856+475359288+477304923+479349992+480442590
3188+479983959+478195882+475752642+473310512+471517413+470868907+471202619
3178+471678620+471486235+470573644+469596768+469012488+468339605+466863023
3168+465019361+464103179+464500446+465081777+464550191+462939086+461467963
3158+461153665+461769241+462111886+461221803+459186543+456963044+455585924
3148+455364754+455757670+456015537+455850039+455530136+455388488+455186994
3138+454348817+453005242+451961922+451352009+450472349+449228936+448432506
3128+448416157+448578766+448500994+448543149+449056577+449656709+449623808
3118+448753051+447500121+446461064+445952395+445824264+445501734+444570050
3108+443340066+442435124+442032340+441937957+442020808+442107134+441893787
3098+441389964+441022096+441050881+441260812+441326060+441089913+440457054
3088+439451161+438371349+437580203+437243309+437369746+437771245+437994401
3078+437692744+436939812+435891033+434550523+433160967+432218715+431858846
3068+431778067+431717928+431538913+431077450+430360806+429744793+429634178
3058+430098356+430679046+430687541+429938638+429015829+428583998+428730842
3048+429105132+429355672+429307648+428928891+428304177+427660839+427278432
3038+427182794+427022229+426430651+425391768+424173257+423081797+422255823
3028+421596807+421014863+420654585+420619115+420713643+420777373+420897183
3018+421053515+421006543+420626617+419961267+419068498+418080266+417243549
3008+416692579+416382368+416291371+416458475+416751053+416780393+416279927
2998+415544950+415195415+415432088+415798613+415788921+415374489+414806820
2988+414232494+413690370+413278127+413110089+413168359+413297891+413298096
2978+412988614+412346443+411581280+410809781+409788210+408365228+407011493
2968+406415681+406671154+407230298+407597554+407754527+407800274+407488340
2958+406532192+405262564+404481373+404582762+405188733+405684236+405741251
2948+405264228+404236760+402877507+401713851+401243835+401558425+402272383
2938+402691836+402270339+401198059+400281352+399979081+399966207+399871182
2928+399850863+400102249+400343359+400081376+399102544+397670541+396457139
2918+396085797+396471386+396808455+396463445+395669204+395092135+395021428
2908+395282682+395652798+395979999+396041569+395647922+394885474+394061106
2898+393386938+392834246+392332846+391979487+391908605+392065958+392290865
2888+392500884+392595063+392365076+391767074+391071421+390525034+390105318
2878+389754820+389523782+389291167+388746736+387922689+387355283+387400796
2868+387738127+387834145+387558382+387106583+386652331+386205435+385603376
2858+384756325+384031361+384024237+384773841+385618761+385991359+385919251
2848+385641883+385224181+384676801+384072670+383464421+382939871+382711782
2838+382873573+383106333+382928340+382288329+381669863+381490206+381566576
2828+381318694+380444404+379246417+378277073+377826937+377817829+378025103
2818+378284605+378534502+378700468+378573242+377954659+377029661+376405969
2808+376529487+377108717+377374758+376971303+376330154+376042626+376145417
2798+376245113+376086271+375693792+375123642+374418850+373775365+373460221
2788+373487984+373540649+373300765+372797060+372342136+372139328+372015256
2778+371618340+370894777+370230506+369967326+369865616+369340569+368303935
2768+367426025+367334591+367806389+368022450+367507855+366524995+365593515
2758+364973327+364657482+364539540+364425305+364099593+363578400+363166537
2748+363100442+363228923+363195438+362861522+362403475+362063428+361948172
2738+362010705+362089673+361997130+361668176+361198102+360692994+360169378
2728+359674664+359395048+359428562+359502276+359215274+358571380+357941675
2718+357537607+357287009+357119146+357007013+356857893+356644750+356526078
2708+356680045+357082070+357444742+357380895+356774049+355958730+355391996
2698+355246582+355385339+355541875+355490728+355179554+354676081+354003345
2688+353220636+352605498+352427534+352523435+352400209+351846202+351188909
2678+350834324+350807612+350905176+351022856+351102146+351006566+350716703
2668+350484643+350581478+350918051+351050298+350662461+349971420+349446374
2658+349210168+348994340+348601395+348142005+347881802+348010458+348453004
2648+348849657+348851233+348439750+347877803+347409800+347081431+346794458
2638+346470935+346130480+345851593+345737009+345853111+346112555+346294781
2628+346231402+345896493+345349464+344725042+344239874+344049824+344080594
2618+344111510+344062640+344079660+344275578+344535956+344676143+344641111
2608+344467292+344204229+343923883+343711354+343631393+343675125+343702567
2598+343563780+343343573+343280106+343370081+343304687+342897992+342364158
2588+342046094+341996085+341966425+341801014+341683364+341884478+342353561
2578+342708321+342634666+342199419+341738481+341515705+341547293+341670811
2568+341699362+341571874+341408740+341359052+341397267+341375080+341222572
2558+340975770+340712006+340583087+340743155+341088282+341245139+341003504
2548+340624133+340537399+340854675+341351696+341827989+342255003+342599049
2538+342740930+342642022+342434544+342269600+342159745+342042678+341952091
2528+342013981+342224817+342347372+342179801+341852278+341666723+341707098
2518+341804342+341827171+341807553+341814414+341864860+341939421+342004347
2508+342050239+342088892+342059143+341844950+341492788+341289251+341464237
2498+341893032+342243647+342381178+342471386+342678806+342936119+343081123
2488+343080510+343025714+342982098+342915595+342800835+342769248+342996578
2478+343397056+343633465+343525391+343247380+343069270+343089180+343202919
2468+343203794+342998418+342765015+342756578+343005891+343359688+343658134
2458+343780046+343700027+343555986+343499525+343535375+343620474+343750853
2448+343872882+343927912+344008457+344230182+344494880+344626631+344640031
2438+344627769+344541444+344334724+344152148+344157140+344315427+344469248
2428+344504806+344425137+344350022+344419999+344693951+345160114+345709450
2418+346093112+346174445+346208952+346554487+347177624+347749001+348110446
2408+348374210+348653301+348899140+349017111+349054391+349172596+349447483
2398+349829452+350259707+350672095+350970716+351144126+351280372+351401380
2388+351418662+351236202+350778622+349988819+348830681+347166326+344714036
2378+341394464+337661598+334183972+331237669+328665744+326273797+323964761
2368+321728942+319794896+318478295+317768833+317498646+317823221+319065553
2358+321301197+324404241+328361430+333375427+339244095+344598226+347610506
2348+347479106+344970619+341948091+340137214+339964329+340852953+342260550
2338+343999699+345806256+347053697+347341225+347185798+347585779+348918670
2328+350601768+351852479+352589558+353453396+354973739+356967135+358900246
2318+360519497+361847454+362921778+363858337+364892490+366121569+367401736
2308+368603899+369718101+370639479+371170306+371334140+371406978+371563368
2298+371723729+371790845+371827307+371915560+371983960+371900496+371718269
2288+371714007+372110748+372809321+373463549+373800851+373809960+373674823
2278+373646242+373916779+374441884+374899844+374965179+374597077+374015161
2268+373519776+373355357+373557523+373901336+374138329+374233092+374251921
2258+374154181+373842861+373329521+372751050+372274816+372010293+371960926
2248+372063075+372295952+372697568+373227023+373709417+374013585+374197767
2238+374379235+374566511+374746285+375005320+375370940+375642616+375627406
2228+375468739+375453237+375563355+375545255+375342506+375103702+374855615
2218+374524969+374141745+373720277+373141164+372386831+371676844+371234152
2208+371121845+371295459+371591686+371768103+371770205+371802464+371994382
2198+372225683+372400436+372648406+373098337+373625281+373974378+374071301
2188+374114157+374355529+374860870+375529403+376251740+376921674+377407309
2178+377683743+377904592+378205111+378537889+378803083+379047112+379438598
2168+380053444+380727144+381199000+381403472+381506029+381674505+381960952
2158+382338717+382683873+382825520+382783686+382824644+383124550+383514109
2148+383682731+383526341+383207518+382995631+383122273+383652603+384388719
2138+384963891+385103378+384819237+384430700+384381888+384869421+385620046
2128+386185876+386444706+386640361+386998537+387520781+388120125+388753276
2118+389384966+389969684+390519808+391094980+391701710+392312644+392960333
2108+393656453+394282626+394752906+395180475+395709725+396346349+397057359
2098+397813122+398487990+398978851+399404873+399934736+400504507+400967196
2088+401396605+401944101+402488532+402766776+402829484+403014045+403421617
2078+403767794+403859199+403890583+404122058+404558853+405099080+405748024
2068+406502765+407189836+407614778+407787575+407851567+407895211+407978179
2058+408199438+408570284+408931350+409144959+409298722+409629514+410282253
2048+411187809+412147226+413007590+413773425+414566907+415459617+416354692
2038+417117579+417815860+418672691+419750868+420850065+421774684+422558765
2028+423369996+424311810+425390367+426604352+427976801+429492444+431060314
2018+432567636+433955061+435255781+436579418+438008385+439519911+441068601
2008+442694012+444442036+446264678+448115668+450014009+451860649+453365870
1998+454414591+455402735+456939893+459200936+461691206+463679639+464849542
1988+465505639+466224093+467341710+468722946+470034876+471213392+472507718
1978+474103994+475945174+477896093+479844647+481734143+483702082+485970365
1968+488399591+490484013+492023974+493422346+495166312+497418888+500111178
1958+503064400+506020951+508739048+511028349+512796371+514327983+516303745
1948+519161972+522640445+526152899+529262715+531663245+533312565+534725768
1938+536533784+538813510+541239029+543651178+546129421+548686603+551191937
1928+553622010+556297835+559572362+563158442+566324544+568951498+571444513
1918+573570856+574725754+575348920+576610608+578907092+581622853+583989343
1908+585686482+586848620+587896553+589292006+591174991+593165351+594729017
1898+595817938+596787223+597710908+598476830+599444072+600957875+602329039
1888+602518330+601893588+601952092+603334641+605048713+605784508+605535778
1878+605369901+605879095+606615766+607114684+607768270+609270863+611404680
1868+612756401+612291464+610749226+609525431+609105452+609077543+608945705
1858+608459632+607558251+606440721+605493681+605015607+605100502+605693657
1848+606739722+608196598+609490515+609244122+606853460+603679768+601321861
1838+599968680+598656604+596798842+595238562+595195355+596436725+597301438
1828+596913573+595944404+594765743+592986570+590762019+588812647+587262935
1818+585586582+583651398+582205265+582029228+582869185+583511853+582981347
1808+581399231+579600731+578475494+578624498+579979080+581604403+582345161
1798+582040847+581826800+583045223+585850375+588448954+588529703+586347366
1788+584282446+583931656+585159071+586993070+588769266+590173593+590963805
1778+591524438+593079230+596703846+602121473+607097109+609070829+608095880
1768+605922009+603843310+602918866+604033594+606797058+609508615+611185144
1758+612124652+612377176+612181579+613076654+616501528+621730156+625976361
1748+627365041+626720038+625848318+625831911+626827237+628419163+629930923
1738+631282294+633610948+637847403+642246934+643541435+642023720+640062612
1728+638753630+638450368+639300601+640989683+643337664+647020901+652706408
1718+659227319+663170904+662526777+659142482+655772551+654147228+655033545
1708+658270178+662575705+666107310+668589815+671766719+676339892+679640927
1698+679427872+677349932+675213779+673545016+672864280+673381649+674755440
1688+677387124+682818122+690828314+696087128+694263230+689337982+685940024
1678+685416175+687575332+691105185+694173080+696490466+698788526+700317160
1668+699612485+697672981+696880317+698032471+699779298+700324750+699757286
1658+699762716+702130139+707960914+715486376+718408944+716167462+715111647
1648+716962052+718398084+716179373+712203675+710016959+711007672+715000945
1638+720910600+726227568+727027939+722656551+717617740+715433010+716191576
1628+717999826+719524373+721334199+723887528+725934114+726567089+726874498
1618+727955594+728892591+728015441+726018133+724779275+724947371+726062274
1608+727549687+729125322+730524162+731479901+731960252+732158476+732377487
1598+733001820+734358388+736392421+738631685+740781967+743178292+746162284
1588+749307892+752004678+754472119+757301619+760251279+762605683+764713926
1578+767850542+772033690+774789271+774643595+773580365+773627192+774481338
1568+774385232+772831375+770997493+770321895+772072050+777102687+783676497
1558+785573904+781566210+777499428+775924843+775809879+775217074+773216905
1548+770917036+770586973+773723939+780201118+788703922+796470172+798640481
1538+794545031+789992585+788634675+789605653+789719859+788134706+787953764
1528+791998884+799688356+807712852+813811565+818291086+822034812+825387752
1518+828321707+830451962+831961445+834388832+839126833+845894488+853370028
1508+860627668+866669687+869406060+868587880+866786754+866864876+870736294
1498+877720565+883711087+885264594+884127271+884150333+887098418+891944376
1488+896244298+898992114+900962213+903067946+905724094+909008488+913318277
1478+919460372+927514529+935826349+941281986+941086039+936281944+931748357
1468+931111762+934679976+940262955+945245715+949436569+954407652+960661675
1458+966233852+966984419+961645148+953838377+946472020+940702844+937592736
1448+938113316+941593365+945022209+945692785+944182777+942942225+942783003
1438+942371315+940720127+938845082+937973537+937921280+937843450+937451088
1428+937176143+937506089+938964250+941850268+945449369+948652839+951088400
1418+952435100+951820634+949485731+947158595+946210563+946852471+948889073
1408+951698780+953636824+953364507+951819174+951330765+952612772+953862374
1398+953100130+950797224+948985062+948741354+949946173+952298474+955192141
1388+957349488+957946555+958262313+960231244+963829178+967831208+971567635
1378+974653163+976548935+977230080+977186932+977146528+978273809+981244080
1368+984934148+987997955+991388847+996563350+1001888609+1004291240+1004089454
1358+1004075558+1005267590+1006421904+1006304546+1004844750+1003237119
1350+1003691371+1007520867+1012903462+1016493454+1017491174+1017556801
1341+1017688756+1018312564+1020965209+1026475672+1032563116+1035768454
1332+1034900004+1031570068+1028494466+1027584327+1028855532+1030963075
1324+1033115809+1036351158+1042068078+1049535327+1056163670+1060719036
1315+1064479986+1068412361+1071607189+1073008480+1072512306+1070355835
1307+1067242749+1065003602+1065457620+1067959860+1069302881+1068006103
1298+1066504152+1067264819+1069791815+1072246294+1073741823+1073563392
1290+1070428936+1064226235+1056649568+1049988645+1045764101+1043598872
1281+1041991707+1040194200+1037931932+1034387131+1029330337+1024381558
1273+1021419111+1020534195+1020916281+1022546801+1025300923+1027281298
1264+1026281593+1022557193+1018156554+1014221026+1010797904+1008406717
1255+1007402808+1006628828+1004359203+1000189543+995325076+990927939+986492501
1245+980478157+972645696+964848792+959408803+957062749+955800127+951905645
1235+943503851+932822797+923547006+917144271+912747017+908851894+904555242
1225+900084888+896378880+894213943+893308592+892065062+888740848+883270556
1215+877620840+873912672+872871863+874114108+876739252+879413092+880723416
1205+880127459+878313253+876835533+877899288+883329001+892515753+901852209
1195+907688471+909796131+910349816+911158595+912920135+915233376+916915510
1185+917436849+918192554+920974526+925382347+929141896+931088582+932152046
1175+933511240+935940963+940143612+946137637+952671568+958574451+964400729
1165+971417230+979594876+987679628+995054860+1002321491+1009393460+1014508174
1155+1016354843+1016080657+1016022971+1016285129+1015039731+1011653860
1147+1006636302+1000810665+997187509+999982619+1008745946+1016936729+1018842486
1137+1016266562+1015256464+1017964577+1021950785+1025304543+1028338923
1128+1031034191+1031032556+1027258177+1023857475+1026417402+1036107684
1120+1048927400+1058839553+1060986566+1054009652+1041961696+1033099111
1111+1032574210+1036233800+1036555513+1034889844+1038851646+1048933706
1103+1057033172+1058148717+1055497473+1053852240+1054303456+1056338481
1094+1059800489+1063329292+1064850277+1064321173+1064121489+1066005409
1085+1067205031+1062212579+1051551085+1043864183+1045244456+1051368917
1077+1053325004+1048601717+1041937524+1037210617+1034462217+1033459126
1068+1034648822+1037634391+1040894963+1041695801+1037960308+1031924711
1060+1028446472+1029290283+1032279355+1034708728+1034616709+1031063618
1051+1025801417+1022235247+1021570801+1021657798+1020558718+1019204136
1043+1018886627+1019622305+1021247570+1024296196+1028674299+1032393794
1034+1033745807+1033398520+1032592660+1031078214+1028745414+1027110457
1025+1026814668+1025418865+1020656341+1014639429+1011164809+1010167090
1017+1007661814+1001154098+993304997+989510533+991780975+996283559+998055609
1007+997429582+999154339+1004052553+1005393356+997119897+982304624+968230693
997+958745233+953874752+951883867+950265200+946841144+941624544+937235582
987+935841530+936474563+936439122+934197815+930060268+924972178+919766963
977+915146671+911746670+909887448+909205954+908659683+906841449+902801117
967+897029663+891304745+887289168+885745646+886619760+888770450+889975094
957+888812314+886548527+885567214+886375701+887483422+887922786+888443891
947+890144942+893380291+898036550+903647380+909239001+914086127+918525594
937+923145127+927593644+931207166+933995562+936163126+937686739+938881048
927+941172510+946451877+954740458+962689460+966571447+967390619+969177849
917+973162422+976107295+974356381+969195599+965621721+965614131+965731840
907+962734243+958899609+958714580+962305506+964743695+962841209+959463979
897+958394093+959404774+960621154+962294763+965245650+968563091+971740228
887+975913508+980911740+984504185+985574538+985795241+987296492+990022004
877+991579073+989771640+984792384+979118204+975653101+974955141+975299684
867+976043011+978670024+982618980+984098511+982686242+983492219+989726448
857+998481135+1004728443+1007220407+1008940025+1012230842+1015676735+1016719296
847+1015059349+1012309081+1011672777+1015890081+1022917793+1026657840
838+1024244816+1020884051+1022343380+1026853437+1029686498+1031048320
830+1034227150+1038105225+1037606832+1031741142+1024738304+1019502378
821+1016561650+1016750942+1020266082+1024748347+1027584561+1029261323
813+1032688065+1039261991+1046878128+1052070614+1052906018+1052613848
804+1055974963+1062431414+1066599790+1064875033+1058667778+1051605619
795+1046721884+1045366251+1047333665+1050826851+1051847575+1047318484
787+1038976361+1030783476+1024170664+1018632409+1014953435+1015401264
778+1020234202+1025177375+1024464819+1016539580+1006609327+1001057876
770+1001410185+1005100720+1008603131+1009815015+1008945163+1007097911
761+1004312143+1000904085+1000496309+1007184791+1019660724+1029985207
753+1031497317+1028045119+1025960230+1024787116+1022471364+1020847851
744+1021199926+1019786023+1013854355+1006312253+1001468105+1002232976
736+1009844676+1023170726+1038047655+1047935519+1048206669+1039889536
727+1029170006+1023404508+1025266591+1029854069+1028354454+1019158477
718+1011835327+1013348956+1019816033+1024286738+1026799954+1031145126
710+1032966922+1025701225+1015688763+1013506368+1018283020+1020165773
701+1014246016+1005351317+999437399+998517919+1001700719+1004794537+1004791968
691+1008489276+1023454838+1047851092+1068358411+1063750263+1035294584
683+1004639695+985966900+980747205+983596265+987848718+988514681+984156664
673+974610657+958883611+941157096+937542056+960807467+993729939+1009532538
663+1006432297+997677844+988197522+977277665+966436981+958887289+958352813
653+962437520+962776282+957334775+952347870+953098845+959711599+969263211
643+980904967+995360225+1007647684+1011670208+1013209527+1019719344+1026878543
633+1022903429+1003314773+980106114+964700839+955808768+945899593+933183572
623+923934872+923656657+932649037+947314021+958899200+958119031+944473837
613+926995351+913812116+903817812+901101758+910364880+928420348+944464728
603+947860116+939800996+930577344
##END=
