##TITLE=<SNM>
##JCAMP-DX=4.24
##DATA TYPE=INFRARED SPECTRUM
##DATE=29/4/2025
##SAMPLING PROCEDURE=Instrument type and / or accessory
##ORIGIN=Admin
##XUNITS=1/CM
##YUNITS=ABSORBANCE
##RESOLUTION=4
##FIRSTX=4497.3318
##LASTX=599.83466
##DELTAX=-1.4281778
##MAXY=2.1481805
##MINY=0.39361545
##XFACTOR=1
##YFACTOR=2.000649e-09
##NPOINTS=2730
##FIRSTY=0.40560266
##XYDATA=(X++(Y..Y))
4497+202735546+203376356+204115691+204137186+203458152+202618952+202030399
4487+201685310+201342903+201158114+201836195+203548185+205009053+204650782
4477+202721260+201073950+200836145+201373426+201593311+201318012+201040731
4467+201089323+201465977+202021610+202487507+202627131+202464478+202264316
4457+202320966+202753734+203384773+203840183+203935237+203808514+203474255
4447+202569765+200891142+198934763+197640213+197657120+198878172+200603718
4437+202199487+203455962+204265786+204440714+204097830+203774029+203818301
4427+203961752+203734196+203064546+202233182+201434322+200706547+200137522
4417+199850261+199844437+199973246+200062877+200077341+200142736+200307832
4407+200460192+200654142+201132120+201809844+202296179+202521933+202710639
4397+202831657+202721886+202531049+202543607+202833996+203277787+203550465
4387+203205689+202175578+200969140+200097838+199634741+199374279+199019747
4377+198305110+197342763+196743886+197019200+197988861+199041599+199742144
4367+200036659+200110351+200129493+200003306+199508987+198785010+198390079
4357+198653699+199323349+200025710+200663526+201242919+201711915+201980541
4347+201844865+201103132+199957709+198962202+198452807+198347550+198425517
4337+198458766+198203636+197725762+197578423+198251439+199526758+200608157
4327+200910463+200548989+199982958+199428085+198889016+198514031+198408178
4317+198322762+198015287+197709674+197858161+198612913+199658218+200418229
4307+200581924+200462024+200479691+200539500+200406922+200296451+200537712
4297+200979656+201153407+200806978+200120243+199575216+199524732+199777761
4287+199852228+199674187+199648521+199988708+200341140+200210499+199602446
4277+199085961+199156897+199743991+200525229+201447461+202538393+203372811
4267+203271114+202154828+200818553+200110619+200123520+200471811+200967009
4257+201491345+201679828+201433488+201245213+201426874+201687128+201879946
4247+202341493+203236480+204354449+205460055+206201772+206100209+205212209
4237+204280221+203822933+203602915+203214240+202677867+202245948+202045772
4227+202175548+202773383+203648989+204216271+204203237+204084438+204373025
4217+204871054+205082448+204966778+204859852+204936613+205043494+204899193
4207+204395623+203809005+203540529+203661412+204003313+204465084+204939070
4197+205180450+205014386+204582095+204215317+204098426+204106842+203991783
4187+203720327+203554636+203757628+204308762+204928151+205314071+205385484
4177+205399352+205780251+206711555+207900326+208801986+209105424+208891275
4167+208344579+207682631+207365474+207723686+208310795+208394750+208047651
4157+207848979+207712811+207082145+206120051+205732911+206425932+207722509
4147+208726194+208928128+208458417+207779472+207241640+206885931+206618289
4137+206541588+206943848+207817071+208602480+208725270+208285858+207889050
4127+207845761+207891701+207714792+207423435+207325045+207522913+207957632
4117+208524855+208905799+208684528+207954176+207339196+207150207+207067905
4107+206830353+206628403+206685248+207026642+207742663+208905039+210151593
4097+210804231+210540179+209737595+209084629+208968155+209259408+209560552
4087+209575776+209306644+208961883+208673073+208361665+208012034+207932294
4077+208447468+209313541+209750152+209276970+208345518+207849753+208134809
4067+208799632+209280188+209255773+208736993+208145996+207996393+208242867
4057+208379333+208267580+208318511+208807259+209454326+209765853+209625872
4047+209424936+209515565+209709262+209604094+209267213+209155744+209407432
4037+209583120+209288887+208841327+208927994+209651896+210368216+210522467
4027+210229397+209986855+210149016+210628142+210958021+210797245+210345812
4017+210068546+210092678+210092991+209739755+209147045+208857251+209328318
4007+210387238+211313209+211640883+211698056+212018461+212447013+212355103
3997+211622442+210802965+210379880+210370137+210586313+210895516+211248142
3987+211646127+212088220+212494994+212681407+212466423+211944337+211613549
3977+212002983+213098146+214235645+214660175+214269787+213728738+213690231
3967+214090018+214454189+214646530+214884335+215208539+215376495+215230109
3957+214904445+214639946+214508844+214442346+214502215+214849925+215354746
3947+215649336+215773989+216217050+217021601+217426543+216861957+215754177
3937+214960634+215062317+216301304+218395489+220162447+220285535+218945059
3927+217725869+217793856+218864470+219932656+220586217+221153276+221850543
3917+222311406+221925487+220474987+218482096+216899883+216321712+216759232
3907+218427799+221919111+226828285+231017237+232601565+231676980+229168826
3897+225936338+223137690+221911097+222452176+223550050+223697986+223383539
3887+224419117+226786888+228111991+227491648+226925558+227211344+226766689
3878+225318825+224814227+226317818+229008303+231929711+234321108+234853384
3868+233672135+232965229+233637694+233942369+232280073+229611426+227759291
3858+227827516+230918221+238037667+246004596+247030848+240728421+233042735
3848+227868004+226334591+227841801+230935337+234448367+238122815+241684005
3838+243734142+242984186+240154584+236995476+234587872+233168356+232646150
3828+232757530+233088973+233889115+236436476+240850392+243893622+243040778
3818+240522434+238726265+236860470+233855196+231002534+230220685+232391453
3808+236603836+240207764+241939269+243519188+245992440+247573745+247120003
3798+246045873+244998423+243344707+241461946+240613376+241149048+242517648
3788+244494495+247249809+250422727+253370979+256330581+259961173+263875392
3778+267081856+269807199+273270893+278302575+284835687+291634132+296762908
3768+299624046+301327947+302899361+305139560+309197885+315502756+322616497
3758+328572436+333513757+339465525+348395545+360621795+372946272+381154536
3748+386134825+391538319+398257575+402731717+402799436+401877740+403707486
3738+409432145+417382970+423977127+426864483+426866896+426330360+426946800
3728+428912698+431015225+431722592+430631406+428189928+424685627+420731962
3718+417612105+416342611+417289749+420445238+424831193+428193712+429216642
3708+428691636+427960584+428239086+430271511+433224797+435220160+435922790
3698+436630723+438259965+440842243+444488268+449734427+455938211+459794542
3688+458495583+454095923+450256126+448511617+449153351+452192768+457324255
3678+464110277+470873686+473630132+471275142+467972030+466155900+463691273
3668+458848834+453626271+450409260+449556446+450186411+451769504+454589468
3658+458439870+461457390+462355251+463368440+467948733+476109060+481969126
3648+479547162+471479937+463747670+458912650+456716157+456008373+456030002
3638+456955779+459160048+462087683+464815439+467897281+472633389+477248450
3628+477237725+473325145+470459002+470867132+474323824+479869012+485380236
3618+488696844+490274454+491746152+493235248+494204791+495091063+496238765
3608+496918276+496613229+495591103+494070188+492431264+491796084+493431135
3598+497531111+502522006+505500020+504819199+502728291+503354473+508260310
3588+514025189+515093375+511185412+507003537+505554243+506419958+507896720
3578+509014600+509952116+511116770+512447131+513994979+516489280+520339444
3568+524077648+524842604+521833963+517281049+513444172+511196555+510410923
3558+510494938+510815507+511073928+511394199+511887744+512762457+514707738
3548+517901392+520687303+520686648+517930946+514963181+513479089+512934003
3538+512139671+510915729+510198918+510926633+512767343+514006777+513162215
3528+510877416+509476863+510199573+511485842+510890584+508513071+506745949
3518+506643999+506715203+505643204+504206423+503575892+503476563+503029554
3508+502363867+502625566+504630552+507585387+509438133+509276835+508486615
3498+508462364+508499485+507050192+504343589+502536962+503385814+506460774
3488+509664795+511294394+511379303+510793579+509670754+507492792+504339299
3478+501250694+499455478+499590111+501286147+503056069+503185370+501575553
3468+500209739+500904503+503198300+505142628+505610372+505030488+504175677
3458+503240248+501755322+499216958+496226133+494322055+494380299+495774268
3448+497282015+498429032+499502670+500366746+500020257+497999571+495627420
3438+494538826+494572194+494364539+493331836+491761853+489861796+487969635
3428+486725702+486149423+485490260+484612182+484461758+485617147+487419394
3418+488879443+489546948+489404777+488634190+487578785+486661112+486136791
3408+485917874+485758662+485720587+486102708+486942950+488065955+489321328
3398+490207600+489873475+488118181+485736854+483751025+482973377+483767232
3388+485375142+486236537+485853314+485344336+485591228+486199832+486671420
3378+487246925+488092053+488694818+488627278+488227610+488075637+488332658
3368+488904082+489718970+490638252+491616196+492956032+494800882+496614927
3358+497687552+497822602+497422189+497370499+498440144+500133112+500773058
3348+499557786+497741238+497190074+498519125+500669022+501903809+501348295
3338+499742054+498439995+497930511+497952141+498171623+498005767+496708595
3328+494379644+492427421+492284237+493659585+494664938+494310614+493990760
3318+495076494+496464474+496530137+496001705+496468973+497574012+497896101
3308+497496462+497646021+498556187+498795660+497133349+494331827+492481286
3298+492870020+494992062+497361233+498623161+498206242+496830328+496114828
3288+497040932+499007039+500781341+502048958+503417991+505107592+506451002
3278+506844563+506412569+505714468+505419461+505974737+507045246+507498333
3268+506426632+504165905+502018749+501080340+501384106+501985738+501859179
3258+500805056+499501835+498703690+498526871+498613687+498692041+498751865
3248+498934822+499395446+500062801+500579406+500680820+500349943+499429827
3238+497804846+496136725+495383448+495512629+495782193+496015290+496306424
3228+496018836+494618372+493004117+492600069+493449666+493977175+492666387
3218+489766043+486958085+485499198+485350295+485901727+486666623+487346373
3208+487965166+488771892+489533422+489300622+487412691+484641974+482786726
3198+482861178+483927159+484320154+483905470+483884347+484412005+484046955
3188+481952412+479171715+477178110+476317162+476107809+476243901+476654593
3178+476931814+476432995+475016533+473143171+471294895+469756968+468711454
3168+468078450+467520552+466938851+466482159+466075728+465504841+464807455
3158+464265616+464142870+464445623+464728653+464358658+463333523+462507074
3148+462558765+463071079+463049688+462184360+461121180+460423912+459825110
3138+458822170+457475274+456133085+454867403+453640214+452647046+452151088
3128+452089089+451960802+451295741+450327479+449811322+450029046+450473255
3118+450578065+450284846+449873588+449629884+449561719+449227922+448155446
3108+446580636+445309324+444792928+444786224+444861868+444785986+444388641
3098+443591271+442608739+441711384+440902394+440130616+439503212+439008416
3088+438456715+437913774+437667210+437653624+437477103+437069510+436784245
3078+436748524+436693854+436483071+436270590+436133335+436036896+436002545
3068+435850484+435211252+434194876+433378349+432866898+432252276+431565913
3058+431227379+431140682+430927069+430790142+431098198+431544641+431657793
3048+431551552+431367851+430755820+429538761+428064769+426588573+425156768
3038+424092634+423777100+424064539+424514676+424893788+424999582+424513812
3028+423477624+422434285+421797229+421452081+421074846+420520852+419873070
3018+419339305+419129356+419309423+419708049+419969300+419762092+419009828
3008+417934313+416848967+415910170+415080683+414270234+413465891+412786649
2998+412368837+412127844+411784334+411271305+410897348+410888320+410992207
2988+410762417+410112311+409436137+409199256+409466823+409892531+410125420
2978+410029458+409571276+408848715+408178619+407810799+407645241+407473397
2968+407319428+407361287+407631506+407825278+407458173+406433633+405329279
2958+404771352+404674168+404448340+403839229+403202322+402969075+403146490
2948+403398000+403399668+403037956+402391068+401639697+400979939+400506682
2938+400087172+399453780+398624472+398050516+398032164+398211456+398037139
2928+397465508+396778996+396079911+395442587+395201385+395548201+396044517
2918+396014099+395390718+394721843+394298072+393794814+392904044+391896873
2908+391351846+391548865+392196289+392624529+392346921+391499141+390632264
2898+390164371+390143427+390357368+390455862+390100376+389249230+388306114
2888+387797315+387793769+387766479+387139284+385920914+384694946+384066917
2878+384183376+384731174+385283172+385522169+385255048+384525902+383743934
2868+383407754+383587225+383860245+383840582+383575338+383297283+383007937
2858+382583540+382114753+381776428+381537729+381344792+381321285+381483774
2848+381598059+381544253+381447546+381304780+380880682+380155737+379603411
2838+379726693+380339021+380613978+380003347+378832973+377817192+377276962
2828+376990267+376586934+375964179+375358077+375049186+375092118+375314460
2818+375374612+374891703+373855425+372840955+372478706+372785094+373234367
2808+373322613+372911117+372238696+371711873+371481337+371227653+370596376
2798+369736471+369081926+368741307+368476986+368185495+368021278+368042550
2788+368047406+367866058+367620090+367511496+367444701+367093356+366361589
2778+365556293+365011415+364688999+364286798+363704322+363187152+362902185
2768+362663337+362297215+361933000+361672850+361352222+360842053+360251383
2758+359727956+359350424+359157933+359027263+358689384+358099758+357581366
2748+357425908+357543708+357579101+357215631+356395499+355390920+354589766
2738+354102716+353696642+353185966+352724358+352606290+352894713+353312168
2728+353451269+353094145+352381117+351678994+351258649+351080876+350923005
2718+350689818+350476413+350348156+350234199+350042513+349712202+349161723
2708+348414493+347785392+347650193+347929678+348063238+347665297+346960582
2698+346369555+345977782+345648305+345344897+345080010+344759233+344289939
2688+343736361+343282828+343078659+343122424+343283990+343382156+343199498
2678+342608054+341813186+341236430+341056929+341137518+341341509+341552917
2668+341558101+341338827+341251862+341527921+341843306+341690947+340950152
2658+339909078+338973946+338485168+338559709+338957351+339236747+339134260
2648+338719248+338189624+337668908+337237213+337008107+337038257+337202743
2638+337269448+337106095+336756330+336324753+335872948+335434132+335078199
2628+334918302+334989863+335112967+335021384+334704569+334467747+334566957
2618+334909960+335161559+335055854+334627376+334203039+334120752+334394338
2608+334697925+334703884+334380485+333952275+333663137+333610702+333716108
2598+333768692+333581416+333210706+332931995+332893295+332939295+332896274
2588+332832011+332868448+332948471+332972722+332960984+332939533+332880812
2578+332842379+332939622+333127554+333232007+333215085+333193188+333187110
2568+333049945+332686564+332237469+331966415+331970586+332076201+332070690
2558+331948063+331845576+331854753+331980805+332146899+332161528+331856540
2548+331336837+330909491+330734489+330738690+330834354+330975959+331060302
2538+331020082+330959692+331011233+331160107+331330670+331498403+331642510
2528+331715025+331701797+331669472+331769605+332133076+332644973+332923713
2518+332708223+332214499+331942283+332144367+332612380+332985682+333115608
2508+333036687+332751869+332239048+331586797+330985343+330647197+330759336
2498+331347801+332134893+332683972+332763369+332478372+332064552+331722414
2488+331619242+331792516+332020340+332023528+331794482+331526527+331335467
2478+331263279+331361416+331568594+331713029+331754828+331816827+331941181
2468+332025524+332007142+331949404+331931171+331942373+331916900+331831008
2458+331727627+331671707+331727747+331908796+332085199+332076172+331899054
2448+331747588+331682909+331578753+331416086+331364961+331495423+331669204
2438+331807531+332018553+332356521+332654090+332695203+332470060+332252127
2428+332413484+333035495+333743249+334120097+334187517+334260539+334490062
2418+334776429+334985186+335079152+335135520+335291127+335596859+335956546
2408+336257094+336457211+336497491+336299161+335967867+335846521+336182642
2398+336818298+337372799+337671947+337840961+338050403+338361528+338790453
2388+339336552+339861171+340029023+339532022+338391261+336895789+335238215
2378+333396284+331379262+329359916+327522186+325979492+324817251+323995867
2368+323294489+322556912+321893727+321587429+321959420+323201923+325101711
2358+327141912+329107602+331433931+334792010+339159197+343317804+345696688
2348+345629297+343789869+341772430+340861102+341000621+341392096+341493362
2338+341193975+340791238+340866614+341801745+343424820+345184612+346584599
2328+347394542+347548093+347115742+346481010+346266473+346826426+347939926
2318+349141434+350180334+351014886+351557738+351729433+351747457+352042732
2308+352765621+353578424+354029277+353999007+353748838+353649361+353882756
2298+354341206+354792326+355134733+355487478+356067243+356969842+358024025
2288+358881785+359279428+359201162+358847524+358500320+358351029+358403732
2278+358538872+358608438+358461500+358018841+357381189+356764928+356311364
2268+356008939+355776407+355586807+355526179+355712204+356100432+356423683
2258+356454101+356306091+356291224+356469980+356593441+356532843+356501412
2248+356756973+357284750+357837374+358177457+358273181+358297879+358392292
2238+358450060+358257331+357809667+357315109+356908260+356583848+356409352
2228+356482702+356616233+356459821+356080531+356002712+356503855+357264282
2218+357863562+358270619+358728979+359469743+360604575+362065369+363635501
2208+365152096+366596980+367965298+369229668+370455487+371809563+373457216
2198+375430205+377496564+379300241+380776080+382223168+383889233+385736169
2188+387576968+389190568+390436020+391427311+392417589+393480979+394499798
2178+395386517+396124898+396644214+396790704+396476183+395834717+395141651
2168+394549492+393996391+393386387+392761694+392228197+391700421+390884787
2158+389673328+388350773+387246597+386413505+385709803+384985007+384225026
2148+383553917+383037640+382849499+383734460+386537294+391064318+396256313
2138+401561104+407233477+413395938+419715735+425862436+431721966+437363086
2128+442994971+448748737+454471846+459832022+464590266+468734782+472322711
2118+475301143+477691318+479776119+481874266+484198421+487063521+490893903
2108+495979956+502450146+510345021+519421771+528867830+537450974+544164094
2098+548655575+551029632+551604333+550813636+548864719+545681970+541385393
2088+536194559+529912062+522229967+513259279+503320032+492729607+481921875
2078+471397769+461670258+453168120+445886914+439465584+433781354+428993138
2068+425068403+421746551+418798270+416143804+413936109+412375421+411347693
2058+410611755+410169215+409973001+409711093+409320035+409203993+409767789
2048+411156991+413375322+416455704+420668504+426424356+433847047+442827685
2038+453452610+465812957+479517638+493777802+507660584+520146507+530487716
2028+538595191+544792004+549391096+552623480+554731072+556003099+556603838
2018+556379321+555087273+552739492+549541787+545777009+541794207+537761235
2008+533419075+528343777+522479331+516275249+510254869+504516922+498810467
1998+493091767+487800889+483480716+480194974+477420145+474573159+471573307
1988+468773751+466559084+465129036+464421163+464203379+464372243+464979984
1978+465904539+466839254+467669009+468552868+469713232+471357578+473561758
1968+476020099+478153611+479651109+480739702+481859906+483269337+484998950
1958+486994045+489138103+491248168+493268944+495417173+497938883+500764001
1948+503565166+506229345+509081813+512316759+515372115+517491862+518814835
1938+520160748+522026662+524360380+526974924+529802187+532843898+535944539
1928+538716626+540998326+543163895+545519421+547821202+549904126+552050210
1918+554181099+555614007+556215699+556813042+558132023+560108110+562148788
1908+563605291+564170398+564170755+564316859+565035100+566225614+567615859
1898+568999489+570160509+570984336+571740771+572881413+574369377+575528252
1888+575911981+575978061+576341710+576909201+577219045+577136221+576802603
1878+576330449+575895595+575823497+576427156+577940206+580312535+582507837
1868+582605616+579973435+576296783+573360121+571390648+569808777+568481038
1858+567694094+567379305+566946001+565916188+564550314+563516747+563020699
1848+562904389+563372372+564416783+564655363+562693397+559324563+556216772
1838+554006753+552453900+551413779+551339476+552640521+554386788+554486176
1828+552323408+549504010+547076207+544597100+541948831+539929008+538930776
1818+538428054+537774225+536934132+536394706+536539975+537088755+537264890
1808+536715930+535988691+535986844+537203398+539291863+541134181+541738078
1798+541373595+541435861+543232656+546792461+550024130+550205925+547757624
1788+545655693+545656348+547318242+549539821+551908456+554220962+555931060
1778+557031661+558602389+561835488+566712963+571295967+573235707+572640926
1768+571198724+569979310+569696816+571018776+573542810+575656479+576628673
1758+577328562+578384414+579789257+582045157+585925412+590934212+594993700
1748+596645166+596468734+595761933+595502380+596350636+598375822+600706322
1738+602773396+605724597+610665113+615304008+615648292+612575478+609412630
1728+607567690+607353898+608808971+611340930+614416545+618775150+625450672
1718+633007161+636888489+634955899+630475858+627030457+625947553+627200811
1708+630355555+634508234+638140793+640910974+644715079+650781876+656362875
1698+658125408+656873700+653967009+650328730+648132714+648843626+651791549
1688+655952868+662026339+670079890+675144105+672838153+667474761+664253579
1678+664631945+667821785+671557486+673879466+675678406+678710822+681786377
1668+681985869+680147483+679866122+682197218+684434110+683914467+682057550
1658+682084542+685904616+694140855+704522106+709144972+706394574+704289544
1648+705872011+707302714+703990545+698234902+694775379+695005319+698398404
1638+704368554+711172303+714100921+710687398+705397414+702682588+703243822
1628+705697247+708948877+713224123+718337496+722552203+725271677+728796684
1618+735275693+743003908+747327120+747451117+746328410+745255637+743470818
1608+740647607+738027640+737095190+738271106+741087167+745006153+749651721
1598+754407940+758416721+761224142+763216079+765215643+767591726+769911442
1588+771571667+772433450+772866754+773550555+775046146+777439629+780743038
1578+785107960+789426703+790894647+789464421+788883881+791586790+795972746
1568+798239788+797840805+797810595+800612594+807064551+817630814+830689411
1558+838487698+837563113+834797938+833992940+834297719+833995860+832321989
1548+830103628+829398198+831521937+836100532+842458642+848972627+850221714
1538+844256510+837774045+835617653+836962136+837871467+836493974+835054095
1528+835581484+837655172+840529329+845072709+851269045+855995114+857450485
1518+858125289+859496764+860440833+861213357+863808237+868680647+874518220
1508+880197713+884231579+884547202+882596737+881747825+883455302+887298375
1498+891500689+893543214+892765089+892121806+894821021+900525420+904932052
1488+904569535+901567746+899842752+900600081+903018946+906128406+909640304
1478+913608090+917672345+921054526+922979310+922916031+921439566+920238922
1468+920014047+919980322+919272151+918013768+917061714+917493767+920245179
1458+924807805+927799583+926500147+922736143+918624816+914447826+910190456
1448+906538770+904673511+905379001+908344741+912334037+915753817+917642194
1438+918330584+918383853+917623425+916722436+917122789+918893009+920448722
1428+920789133+920695644+920522787+919344249+917283193+916434758+918406019
1418+921997702+924552303+925046623+923961395+922070813+920544476+920474165
1408+921456906+921496470+919080048+915309251+913111864+914234451+917904847
1398+922118362+925381254+927006622+926657631+924913509+923534884+923715368
1388+924611531+924246451+922386436+921230541+922749371+927059295+933179064
1378+940029408+946321736+950383786+951218397+949755578+948079086+947629991
1368+948552610+950115831+951840706+953807200+955864264+958139410+961567949
1358+966176217+970473867+973323892+974828719+975332036+975080050+975029819
1348+976469758+979475062+982686174+984667803+985444676+987116044+991883346
1338+998456022+1003267655+1005914673+1009133114+1013445184+1015774135
1330+1014234927+1011592676+1012028483+1016852868+1024483243+1032347789
1321+1038070124+1040482137+1040180397+1039163038+1040394666+1046010224
1312+1054994974+1063432492+1067840971+1068820434+1069875451+1072184621
1304+1073741823+1072986281+1070734910+1068813045+1067309827+1064066241
1295+1058139052+1051867341+1047529053+1044197877+1039857445+1034744072
1287+1030411266+1027020862+1023468982+1019516450+1016318626+1014898469
1278+1014852589+1014899304+1014621040+1014430963+1013545406+1009833599
1270+1002696590+994487939+988022754+983809834+980297518+976066306+971177450
1260+966547553+962593114+958913006+955160323+951337389+946873675+940769577
1250+933256823+925831897+919112045+912185610+904305930+895784098+887130822
1240+878306416+869196656+860138080+851457335+843034534+834877484+827872039
1230+823417263+821944612+821887648+820835610+818103147+815249904+813786310
1220+813721839+814381627+815222078+815783967+816092679+816911321+818603842
1210+820297137+821097130+821753224+824155703+829066367+834797521+838793371
1200+840758554+842980550+847152475+852437811+857212859+861193992+864649344
1190+866916267+867356185+867114924+868345778+871715268+875760931+879038839
1180+882108674+886499873+892401321+898435466+903490147+908052118+913762357
1170+921840456+931589507+940685919+947470601+952494059+956967963+960609102
1160+961927784+960234489+957262076+956092237+958048661+961789606+965778366
1150+969802400+973492876+975962449+977061976+976960324+975090239+971416626
1140+967982486+967242258+969391619+971619395+971586563+971321468+974387073
1130+980712530+986318614+988310849+988841813+991392422+995269162+996987066
1120+995967859+995584070+998292341+1002685149+1005738181+1005990823+1003638157
1110+999522838+995795836+995343882+998801260+1003737187+1006766981+1006410780
1100+1004212202+1001967027+1000128105+998920728+999157401+1001508459+1003689996
1090+1000958367+993590167+989578526+994726280+1004517159+1008739374+1003543297
1080+994172017+986804353+983430573+982253644+980659976+978504835+977449996
1070+976663410+972286929+963525266+955835782+954696571+959370800+963932175
1060+963388518+958201974+952366785+948989371+948398940+949081549+949575511
1050+949230393+948204036+947099205+946083812+945170608+945612850+949406766
1040+956617422+964334733+969116156+969802102+967617645+964490906+961792287
1030+960485105+960850839+961410703+959527569+954549395+949497276+948263264
1020+952058074+958724121+964506934+966659156+965089381+961700109+958127195
1010+954383569+949696887+943971275+937773389+931440961+924837716+917874398
1000+910765394+903566118+896339195+889793808+885182144+882754698+880451606
990+875502570+867788357+860374574+856201815+855146798+854730475+852902219
980+849385792+845243481+841889722+839781117+837994928+835625458+832884594
970+830023486+826542274+822551309+819280910+817366434+815979467+814238265
960+812627793+812239714+813238006+815054166+817518377+820820952+824864232
950+829342485+833986684+838551276+842943071+847133884+850966233+854443453
940+857987408+862022704+866653913+872054725+878462649+885611575+892796967
930+899631402+906366747+913269348+919384707+922528607+921752091+918886574
920+916528545+915755187+916183665+916702296+915949733+913789706+911209186
910+908415111+904972093+901158693+898570963+898503691+899935347+901101193
900+902732818+906968976+913133195+917379602+917388421+914941490+912957359
890+912680704+914340870+918221721+923652028+928157214+929636121+929223970
880+929812017+932288025+934959890+935990835+935054571+933450416+933589249
870+936592885+939723855+938796231+934031372+929822564+928760098+929786396
860+931393829+933266416+935475184+938121368+941490440+945875561+950541747
850+952540059+949121114+942683278+939533718+942833553+949203937+952642903
840+951546176+949894829+951259094+954872764+958674605+962625230+966401449
830+967732764+965852132+963150117+961850383+963025227+967987849+975776602
820+981437147+981834879+980016574+980347212+983355317+987489823+992758892
810+998997474+1002700999+1000782352+994723479+986729574+978182180+973176955
800+975771001+983512742+988893414+988088595+983485034+977884432+971873824
790+966091248+962523578+962360314+963774750+963167278+958600541+950989828
780+942512507+935654119+932361673+932204665+932370372+930084203+925098164
770+920447233+919900835+924299363+931200534+937058127+939610583+939807215
760+941056361+945484026+951669577+956477635+958406233+959669024+964239694
750+972348600+978793704+978926937+974478000+969738763+967110336+967879582
740+971736361+976149725+979300537+981705936+982989106+981583727+977838850
730+974430868+973253105+972950530+970866236+967375014+965884130+967109263
720+967692425+966535576+966834754+969998436+973797416+976851044+979599298
710+980579714+976938516+969640507+963945820+964514859+971193955+979210146
700+983720396+984338594+982870769+978602614+971048686+962358229+954820329
690+949890896+948062819+949053365+951087310+952148465+952428873+953041470
680+955535949+963245513+975569901+980929361+967149662+939762109+913930328
670+899651006+901135395+912541215+920259777+921372294+922106505+926006006
660+932473276+939916494+943991891+938782228+925585274+912516666+905467069
650+905065821+908287956+910516209+910056508+910542545+914475533+917769647
640+916239914+912152600+908286228+903391295+898372663+898374212+905232064
630+912635956+911763389+900566296+885151874+876243036+879686650+889522159
620+893355520+887428331+878762482+872338113+868024196+867270501+872270126
610+879568790+882754876+880427772+878095841+881999037+891201928+898903627
600+901611184
##END=
