##TITLE=<SNM>
##JCAMP-DX=4.24
##DATA TYPE=INFRARED SPECTRUM
##DATE=29/4/2025
##SAMPLING PROCEDURE=Instrument type and / or accessory
##ORIGIN=Admin
##XUNITS=1/CM
##YUNITS=ABSORBANCE
##RESOLUTION=4
##FIRSTX=4497.3318
##LASTX=599.83466
##DELTAX=-1.4281778
##MAXY=2.2384608
##MINY=0.67484921
##XFACTOR=1
##YFACTOR=2.0847291e-09
##NPOINTS=2730
##FIRSTY=0.68366969
##XYDATA=(X++(Y..Y))
4497+327941746+327330783+328260593+329700240+330808573+331652781+332621590
4487+333738300+334542138+334436237+333486413+332631826+332547768+332812836
4477+332703246+332276410+331995074+331756796+331201128+330606605+330572468
4467+330954702+331124161+331286930+332213481+333818069+335223321+336093547
4457+336828166+337549262+337574736+336181007+333768092+331638972+330495300
4447+330083474+330330044+331335077+332490100+332819840+332216369+331337279
4437+330446581+329494555+328709216+328428880+328885194+330149606+331720542
4427+332526896+332009455+331067579+331401780+333611327+336176890+336821333
4417+334934465+332161874+330580302+330858121+331998276+332436863+331448184
4407+329417617+327296331+326324777+327366608+329746128+331614698+331822384
4397+330431857+328012280+325611030+324495377+325028429+326367864+327505045
4387+328227142+329022145+330040588+330373903+329008679+326604398+325379871
4377+326963673+330846999+334719146+336279103+335045141+332426399+330207931
4367+329141398+328797105+328375472+327535867+326609287+326132731+326460070
4357+327829640+330061574+332195440+333366044+333606981+333121562+331881138
4347+330340623+329456787+329606861+330137683+330178797+329563117+328823637
4337+328444520+328383649+328405093+328470109+328473482+328050249+327183911
4327+326626270+327109945+328330298+329184371+329041902+328473940+328499386
4317+329398261+330578958+331178484+330658098+329384051+328694005+329575411
4307+331136484+331530183+330480604+329427281+329221596+329366296+329466508
4297+329710447+329809515+329072151+327672275+326614491+326504244+327254159
4287+328685714+330536414+331991185+332047538+330557486+328421189+326533263
4277+325139077+324348820+324281287+324655573+324863945+324538350+323934535
4267+323710753+324323945+325558822+326738404+327506389+328115436+328808370
4257+329412442+329756192+330050137+330527094+330959105+331055514+331088908
4247+331410844+331654297+331232521+330234635+329120470+328226913+328030092
4237+328851142+330033869+330331731+329302023+327810884+327203896+328218021
4227+330372187+332262343+332649523+331455674+329711590+328581986+328674621
4217+330023061+332131453+333947816+334453106+333610241+332188750+330640943
4207+328882449+327121468+326134847+326408635+327420645+328136708+328108031
4197+327764252+327708986+328170388+329100456+330311259+331428399+331899036
4187+331039817+328775090+326594391+326399200+328079698+329640456+330018887
4177+330193836+331068151+331928742+331581275+330191520+329266627+329869384
4167+331498390+332874907+333266633+332667707+331398264+330060258+329256134
4157+329069749+329294447+329945408+330960477+331788932+331880652+331312633
4147+330587535+330066663+329719596+329276749+328596281+327880818+327481972
4137+327582470+328062743+328606431+329061772+329611865+330413930+331211507
4127+331611639+331620616+331503050+331246702+330633052+329820437+329493383
4117+330165131+331441636+332356265+332539105+332501650+332603463+332507797
4107+331939121+331289360+331143260+331633425+332352948+332659159+332250278
4097+331562005+331306429+331545593+331549711+330778609+329697495+329287613
4087+329811802+330346312+329869842+328630962+327945663+328776262+330821496
4077+332863671+333838140+333663306+333009199+332291306+331324270+330133223
4067+329482347+330015885+331195467+331711965+331006852+329818321+329183342
4057+329594510+330996244+332746390+333722775+333267291+331880080+330577814
4047+330042132+330440577+331420879+332317409+332769177+332970801+333276240
4037+333825646+334349463+334311237+333643206+332982009+332719972+332519920
4027+332095829+331692494+331629537+331956905+332347802+332300026+331827444
4017+331557259+331804571+332136085+331943581+331017688+329805226+329182684
4007+329589049+330646290+331859752+333078075+334149869+334753112+334635202
3997+333915565+333233410+333216513+333654357+333712625+333016061+332018718
3987+331438977+331645548+332340311+332809262+332669280+332168764+331778039
3977+331856493+332489185+333256969+333503853+333069698+332437292+332087166
3967+331990528+331938406+331972372+332071297+331880366+331286244+330812890
3957+330950241+331596686+332450530+333382084+334244391+334754913+334670512
3947+334046769+333418423+333483754+334339599+335231355+335333196+334619677
3937+333851321+333870534+334805348+335961914+336598208+336541512+336076507
3927+335811353+336475896+338121827+339892729+341106163+341738369+341606907
3917+340194479+337552979+334559522+332265031+331294221+331440664+332006253
3907+333046997+335582424+339780509+343780772+345767566+345881301+344688739
3897+342270249+339423492+337717349+338087260+339616025+340076541+338955028
3887+338217864+339269358+341102646+342556159+344125123+345296528+344038120
3878+340899507+339102958+340230561+342981766+345550874+346968305+346429821
3868+344412035+343049584+343521451+344671413+344702606+343429302+342069168
3858+342182903+345359657+352023007+357674176+355534992+347921103+341006466
3848+337539655+337461601+339350099+341870288+344838985+348668960+352760886
3838+355091344+354502625+352282757+349973142+347732688+345380386+343582579
3828+343062936+343605652+345002097+348075380+352677314+355493020+353990617
3818+350589565+348193948+346493808+344285919+342155656+341511756+343022051
3808+345767766+347697950+348375129+349434028+351253907+351902096+350774378
3798+349787471+349569493+348708787+346712587+344941856+344515734+345271225
3788+346669271+348460016+350342481+352031184+353843029+356387464+359492111
3778+362129438+363999866+366298674+370528838+376853641+383157916+386653518
3768+387437514+388027462+389692206+391906842+394471061+397674891+400465009
3758+400944738+399403165+398576740+401426898+409044847+418262181+423653514
3748+424708668+424879099+426665698+430142830+434205022+438505062+443156287
3738+448612350+455551404+462892391+467485090+467850741+466492665+466956956
3728+470242899+474430205+477086030+477979130+478230731+477966978+476624427
3718+474258259+471792707+470932945+473398067+478659940+482636101+481766761
3708+477355272+473269665+472164906+473843831+475668685+475435896+473928375
3698+473338284+474798859+478157195+482909946+488823095+495291483+500245516
3688+500992429+497021986+490620445+485007902+482872835+485053534+490495216
3678+497489565+503224305+504286521+501756897+500230706+500672037+499470583
3668+494675688+488999960+485236459+483655659+482967586+482641591+483799243
3658+486956270+489910128+490234236+489163615+489956217+494419455+500017016
3648+500975446+495783021+488649833+484029516+483038263+483433678+482617460
3638+480885127+480423552+481748463+483174014+483874609+485134561+487784953
3628+490240984+490708277+489614782+488511453+488914129+491405956+494687239
3618+496740479+497262495+497238364+497164770+497071964+497093864+497597639
3608+498865196+500452515+501592441+502533145+504182221+505886192+505586900
3598+503267764+501317452+501024680+501340382+501792750+504245121+510126305
3588+516795574+519087778+516254516+512275439+509739068+508438917+508188745
3578+509853261+513278185+516490679+517978958+518518529+519970441+522841900
3568+525117578+524079836+520321368+517175549+516271271+516391410+515810726
3558+514329308+513033217+512959338+514061238+515487532+517093093+519612881
3548+522510987+523555819+521992974+519907255+519002004+518725757+518162856
3538+517453054+516870940+515997254+514502055+513034418+512540479+512960310
3528+513205907+512236956+510135855+508348341+508421648+510258796+512235640
3518+512782531+511257311+508342051+506084214+506238091+508508050+511264116
3508+513270695+513941498+513134315+511489928+509981063+509195780+509537272
3498+510931430+512089883+511386829+508764741+506029204+505178448+506356115
3488+507509250+506938572+505546129+504990834+505112975+504836499+504170556
3478+503882186+504268852+505205495+506532865+507996499+509112580+509240783
3468+508091936+506226254+504525199+503190740+501821856+500308702+499322767
3458+499439591+500002377+499587807+497692847+495457597+494292225+494392179
3448+494837457+494593003+493354781+491881826+491285130+491674369+492202846
3438+492561779+493268836+494512147+495898243+496979100+497072192+495336714
3428+492134800+489377705+488568349+489186088+489569608+488826355+487345909
3418+485974795+485265908+485342875+486116950+487439001+488922421+489850773
3408+489678083+488519058+486862319+485119751+483660748+482890733+482925672
3398+483417552+483985200+484414580+484683508+485187511+486539412+488891714
3388+491467884+492764261+491751393+489232234+487391140+487605173+489122787
3378+490204559+490364669+490787245+492525811+495251570+497808413+499212635
3368+499299323+499079286+499665746+500510098+500180099+498920663+498543718
3358+499825170+501791264+503147681+503318599+502786405+502671583+503310994
3348+503921013+503917582+503519880+503050986+502475963+501767190+500867486
3338+499372573+497174720+495212743+494779989+496073392+497865080+498785141
3328+498625545+498113193+497764325+497347353+496541656+495866049+496275759
3318+497815617+499464236+500449027+500888586+501017303+500722987+499839866
3308+498337119+496635721+495735903+496358330+498029993+499370972+499214121
3298+497508263+495483043+494707024+495562755+496866051+497380233+497426264
3288+498392071+500944396+504274913+506826552+507513710+506612291+505443202
3278+504866806+504764564+505169070+506436684+507714763+506997127+503685537
3268+499599986+496896700+496210972+496871026+497990652+499122230+500051783
3258+500258954+499275421+497701482+496893898+497357360+498239108+498591236
3248+498224641+497225040+495831397+494844662+494982413+495816815+496275988
3238+495939643+495035135+493876282+493032159+493160705+494131086+495030618
3228+495251055+494904589+494273526+493483612+492651040+491996991+491704904
3218+491647722+491352033+490475945+489314462+488613637+488794218+489357234
3208+489263455+488170018+486926306+486346422+486035122+485219934+484222334
3198+483947631+484236172+484057535+483261960+482655543+482305474+481333492
3188+479705859+478638669+478771646+479464379+480046951+480395533+480132724
3178+478510237+475654561+472938809+471598660+471698957+472589655+473713427
3168+474665681+474876684+473900870+472142376+470811319+470661616+470939321
3158+470324441+468831044+467625730+467116408+466573121+465641252+464910006
3148+464747580+464587528+463849192+462908688+462587553+462955092+463109912
3138+462374264+461308989+460933045+461255810+461233480+460109050+458309842
3128+456813243+455982986+455408792+454716459+454002054+453426744+452992732
3118+452776240+452845030+452990187+453019493+453152642+453717430+454615990
3108+455308180+455242478+454306720+452916965+451661331+450861124+450380851
3098+449746930+448695779+447747870+447684770+448285983+448420504+447633506
3088+446705554+446439343+446790784+447205069+447173933+446624013+446012335
3078+445759533+445682365+445376841+444827750+444183793+443415980+442649939
3068+442363771+442835838+443694657+444243720+444034004+443121491+442006239
3058+441269390+441069825+441046752+440814506+440383896+439990540+439762698
3048+439703972+439773562+439837749+439739167+439536800+439487737+439738567
3038+440200170+440604133+440508925+439572681+438019243+436441844+435074734
3028+433682491+432251422+431295165+431265173+431982609+432734869+432859011
3018+432321928+431720743+431632139+432059633+432503538+432384914+431475460
3008+430080959+428791302+428013167+427774203+427874758+428079727+428248815
2998+428338019+428263539+427838275+426968106+425868407+424954808+424510017
2988+424495235+424768366+425372695+426253586+426770484+426125670+424434965
2978+422770021+422057417+422408030+423333723+424084868+423963155+422896394
2968+421568538+420607678+420002462+419552982+419363938+419601901+420161543
2958+420656254+420541090+419628119+418642328+418524561+419105332+419405795
2948+419204914+419108191+419167431+418778164+417936414+417423490+417648330
2938+418110677+418048634+417222066+416109873+415418541+415246766+414902272
2928+413849549+412504996+411608866+411215453+410881595+410514886+410387856
2918+410504507+410575785+410502163+410329616+409927368+409220482+408509193
2908+408127560+408034496+408040757+408122956+408313516+408583787+408899061
2898+409161785+409180769+408865924+408319663+407676164+407030692+406549046
2888+406440743+406679593+406846079+406495038+405721077+405090616+404958954
2878+405114175+405099793+404679190+403990660+403394707+403156115+403236599
2868+403424414+403523796+403359798+402924013+402608510+402855451+403492260
2858+403900627+403902371+403897053+404056019+404032489+403619776+403090213
2848+402703690+402371948+401943653+401498462+401257868+401337322+401632182
2838+401894219+401867143+401407113+400633925+399931042+399558557+399341322
2828+398978330+398485734+398088862+397886294+397836803+397938987+398254061
2818+398714377+398989023+398764154+398192390+397712603+397432811+397144041
2808+396796974+396475782+396158278+395906676+395903102+396021441+395860931
2798+395387005+395013577+394918740+394750911+394163364+393303202+392573214
2788+392116386+391776581+391472201+391299939+391257224+391178084+391016373
2778+390917334+390922537+390826986+390436432+389846712+389341537+389072895
2768+388969252+388910841+388819120+388593337+388163384+387646114+387323664
2758+387401175+387769113+388010479+387734318+386932681+385949949+385184051
2748+384887933+385061910+385415296+385609115+385577035+385432508+385133674
2738+384538350+383780630+383258271+383138017+383133213+382928587+382583464
2728+382263187+381851161+381223358+380674381+380645561+381119458+381561333
2718+381476646+380916290+380347728+380043690+379801095+379366940+378901334
2708+378790258+379100557+379444793+379435873+379136696+378869541+378705456
2698+378471353+378156937+377902333+377644785+377176091+376528475+375998511
2688+375817100+375976496+376308838+376561555+376453538+375910450+375276415
2678+375030760+375211570+375374453+375223893+374991590+375003055+375139835
2668+375016836+374609099+374376968+374640406+375105926+375216602+374745364
2658+373864301+372894006+372152639+371807145+371747532+371754966+371779783
2648+371887572+371978348+371806487+371329988+370830988+370633653+370856520
2638+371404211+371999420+372309662+372268919+372160988+372218285+372329504
2628+372262286+371965539+371552398+371140973+370831703+370746873+370911329
2618+371112010+371104548+370955645+370901808+370925082+370813977+370550882
2608+370298994+370106891+369889513+369625674+369422106+369390570+369507593
2598+369645917+369741325+369800166+369767972+369587019+369337505+369153950
2588+369105288+369225457+369457645+369583102+369456844+369239009+369197666
2578+369425480+369860264+370380450+370799824+370948355+370822697+370571553
2568+370320409+370053969+369712506+369406124+369381964+369652093+369835190
2558+369572838+368956815+368387681+368164013+368296304+368579327+368779550
2548+368804024+368687830+368467564+368196492+368030064+368103800+368316089
2538+368387023+368173820+367815230+367522143+367350568+367292128+367455726
2528+367939459+368568777+369008708+369182170+369339192+369605518+369710561
2518+369367669+368727715+368198694+367983003+368027605+368233604+368488293
2508+368665843+368758593+368877332+369081558+369331387+369554168+369655781
2498+369587648+369462734+369440747+369471454+369348455+369070636+368931169
2488+369118812+369403122+369422163+369210618+369157467+369420133+369711962
2478+369761053+369642543+369538929+369493040+369473884+369410698+369208073
2468+368966822+369001646+369406896+369863695+370042046+369872044+369371357
2458+368655665+368136966+368224026+368785611+369294733+369471912+369436430
2448+369328442+369147574+368920247+368746842+368695521+368794074+369047592
2438+369368927+369611465+369755221+369938489+370220798+370438519+370415131
2428+370228260+370113267+370167761+370337707+370639142+371137056+371688263
2418+371967884+371817238+371415075+371109465+371160386+371560461+372033815
2408+372293765+372334450+372394892+372658902+373087167+373486842+373657502
2398+373557290+373429174+373703848+374700076+376476525+379017385+382461009
2388+387177850+393832508+403272795+415957826+431432831+448715078+467263624
2378+487151261+508154951+529219597+549277151+568192834+586112005+602140047
2368+614802005+623698175+629611095+633407247+635221808+633710827+626677193
2358+613936667+597963406+580411287+560901481+540516845+523313538+513241360
2348+512151125+519901079+533514662+546785553+554627227+557578341+559392158
2338+562381241+565965818+568635882+570188434+571303086+572029699+571863986
2328+570646006+568632908+566048389+562827490+558730675+553732441+548107947
2318+542138703+536145842+530578816+525479141+520132724+513845718+506732773
2308+499274849+491619245+483744749+475960228+468895202+462968101+457883178
2298+452792308+447155463+441281770+435820875+431046451+426860861+423158974
2288+419931900+417121740+414545827+412071270+409848771+408180425+407051878
2278+406033892+404829064+403666037+402921782+402579147+402291178+401818224
2268+401181358+400511583+399941334+399542460+399251546+398916688+398411369
2258+397682411+396853699+396275644+396177691+396307609+396221264+395809953
2248+395273899+394823789+394626682+394765950+395117305+395452307+395646526
2238+395672630+395534563+395307951+395119535+395070616+395238960+395633489
2228+396064099+396204996+395902674+395340487+394820844+394457395+394130685
2218+393679603+393111384+392641833+392488813+392617702+392759514+392656128
2208+392232866+391636170+391162073+391011713+391088709+391151838+391112582
2198+391072383+391180800+391538560+392120274+392773209+393354351+393818956
2188+394179833+394480611+394780817+395063983+395240676+395342088+395578279
2178+396073534+396670344+397131318+397413283+397606530+397747942+397850698
2168+397991909+398241509+398575853+398890641+399084002+399198596+399425380
2158+399820995+400162058+400262069+400230533+400234078+400245200+400188247
2148+400105018+400068022+400092667+400175781+400331231+400594583+401012785
2138+401559275+402054529+402258584+402086351+401743030+401640874+402081233
2128+402928816+403691997+404038779+404126982+404300987+404645395+405034520
2118+405462042+406048074+406753015+407322349+407561771+407537211+407516540
2108+407794731+408465134+409277035+409884510+410276265+410713193+411258597
2098+411703159+411955276+412201731+412643434+413242303+413744791+413940869
2088+413933120+414044425+414424372+414927604+415372138+415691471+415840946
2078+415802605+415716803+415827079+416231671+416749484+417103670+417265496
2068+417511351+418027906+418624601+419049322+419387640+419841180+420333461
2058+420680443+420968240+421424554+422043979+422607195+423016076+423431419
2048+424069142+424962699+425944803+426810541+427447321+427817404+427948665
2038+428036640+428428395+429329214+430568237+431788247+432817840+433752854
2028+434754971+435874941+437014552+438036597+438975728+440057558+441399137
2018+442815195+444059708+445139106+446256617+447572264+449136882+450923967
2008+452767377+454364817+455563441+456621625+457977185+459749374+461652339
1998+463414607+465114461+467013509+469117498+471012342+472260657+472927887
1988+473518865+474437582+475642638+476781850+477641955+478437702+479534627
1978+480981764+482554502+484121236+485711986+487427622+489490583+492067611
1968+494825792+497039313+498467551+499778967+501742030+504291267+506723567
1958+508675080+510492557+512589141+514836971+516791685+518362422+520041118
1948+522435221+525732343+529612838+533360614+536086258+537520672+538581058
1938+540395848+542992375+545509247+547477571+549281497+551382998+553691270
1928+555895927+558080629+560604191+563487372+566409552+569284213+572226177
1918+574999798+577180153+578796349+580217612+581629496+582998437+584322947
1908+585770170+587548134+589555114+591314265+592472032+593191498+593922343
1898+595005544+596440759+597818049+598786657+599694710+601131011+602798957
1888+603695459+603528715+603002754+602879698+603466616+604608543+605826123
1878+606707071+607194892+607443749+607839220+609145718+611798798+614772270
1868+616018098+614872282+612774097+611146922+610093741+609041018+607814460
1858+606786840+606221594+605955183+605774602+605750928+606063886+606731945
1848+607682942+608839165+609684946+609077157+606539299+603162464+600299411
1838+598481533+597497771+596939559+596836231+597505834+598465579+598271274
1828+596476555+594383346+592899354+591585938+590103948+588915245+588184057
1818+587295732+585809454+584238432+583500382+583788808+584223564+583873095
1808+582970646+582453719+582704520+583429133+584254443+584781490+584476252
1798+583351365+582504269+583309107+585983459+588708132+589043333+587099540
1788+585089474+584475051+585293728+586983861+589006394+590923540+592510802
1778+593900671+595440701+597619398+600857852+604601338+607198609+607784440
1768+606844308+605271056+604413495+605590418+608485321+610927571+611563608
1758+611311035+611425913+612428259+614627313+618113080+622090099+625032406
1748+626148602+626021429+625777489+626391683+628199039+630460136+631960081
1738+632962198+635411195+640121232+644234629+644252527+641799928+639813877
1728+638669949+637927038+637868541+638953858+641367116+645570690+652099805
1718+659593812+663774914+662265248+657964864+654355069+652806577+653462170
1708+655980586+659448627+662724878+665898602+670189779+675415141+679025393
1698+680022936+679804328+677974957+674104297+670487298+669251934+670684404
1688+674611274+681162519+688742413+692260316+689658700+685606715+683497152
1678+683786665+686206270+689807488+693043826+695672432+698399964+700321741
1668+699702401+697600214+696721096+697886411+699638700+700537261+701111084
1658+702775256+706612064+713279617+721157316+724411437+722246064+720668122
1648+721891820+723422758+721913492+718303240+716041972+717045462+721428988
1638+728273234+735517126+739495803+738802698+736994713+737182670+739333920
1628+742013132+744932510+749108179+754520069+759770877+764695461+770876737
1618+778797780+785803737+788852175+789524065+790934291+793685153+796777678
1608+799215582+800510129+800790207+800818340+801293924+802000124+802017965
1598+800977364+799843728+800037004+801842072+804107572+805520886+805810285
1588+805796618+806709989+809086365+812055948+814339975+815924321+817880636
1578+820767020+823640651+824528004+823229855+822317285+824174904+828596686
1568+832926060+835952597+838895591+842266021+845690832+849975833+856216979
1558+861420040+861810080+859649852+857519989+855398531+852899614+851024954
1548+851620392+855676608+862503585+870024696+875442647+875950425+870911305
1538+864250328+860107138+859180901+859826488+859441824+857491569+856622572
1528+859150080+864013537+867675939+868621389+868337422+867992957+868051626
1518+870189094+875536312+881702549+884900975+885212789+886112036+889807718
1508+895375716+899995576+901916839+902475509+903343248+904997356+907367156
1498+910080620+912224608+912738103+911506286+909490329+908492843+910222603
1488+913780019+915824624+915235419+914712660+917053297+921576920+924992295
1478+925864723+926604089+930680432+938918093+947356577+949965513+946181598
1468+940897911+938733738+941001010+944560370+945573009+944974655+946640314
1458+951996451+955769501+951648898+942984487+935825053+932021068+930029414
1448+927781126+925700611+925552452+926747044+927185402+926880965+927658699
1438+929769978+930950447+929928087+928692209+929133141+931161277+933249169
1428+933588717+931966002+929962568+929102205+929884857+932778217+938156999
1418+943719278+945163184+941684165+936656653+933896414+934681010+936863195
1408+936914945+933439757+928623362+926056913+927306914+931036277+934750429
1398+936741054+936981334+936373830+935424492+933907965+931622623+929199415
1388+927776037+927714566+928356493+929729207+933115420+938942567+945549793
1378+951406217+956916975+961806392+963583728+961393537+957740741+955259551
1368+955522932+959515446+966277007+972106842+973756661+972342432+971173858
1358+971958168+974780679+978535602+981235286+982061796+982870695+986007708
1348+991399298+996417146+998905828+999866374+1001376097+1003188085+1003838818
1338+1003996069+1005935687+1010164193+1015139955+1019863429+1024610577
1330+1029551458+1033476097+1034439731+1032203680+1028869961+1026661357
1321+1026189490+1028047567+1033845036+1042817945+1049703476+1050332480
1312+1047745102+1047662302+1050857184+1054242939+1056975102+1060800130
1304+1065541102+1068591427+1068182689+1065253247+1062160379+1060496150
1295+1060585697+1062813742+1067308259+1072126999+1073741823+1069522695
1287+1060048299+1049500137+1042992236+1041829380+1041847907+1039053530
1278+1034648789+1031825134+1031540939+1032754573+1033838632+1032895813
1270+1028710537+1022612289+1017678042+1015808185+1016321452+1016788173
1261+1015121313+1011738189+1008928372+1007728576+1007244358+1006302911
1253+1004290099+1001304505+998230850+995730961+992959685+988418850+982194002
1243+975485506+968243844+959605451+949991702+940864916+933240191+927005450
1233+921104767+914592806+907699498+901358570+895989394+891206851+886492869
1223+881554390+876294776+871114244+866658211+863244151+860966586+860027998
1213+860525254+862126869+864162839+866039614+867584676+868625963+868666048
1203+867820610+867452071+869089653+873060553+878082290+882179619+884592249
1193+886530266+889611012+894031478+898627493+902522055+905938574+909253538
1183+911950248+913134090+912925947+912362131+912045113+912595148+916100757
1173+924634278+936934158+948082791+953552092+953661653+953096293+956018644
1163+962174874+967579845+969504253+969900983+972297372+976917919+980662206
1153+981465615+981373323+984865552+994089261+1005293303+1011803719+1012213372
1143+1010953192+1010362958+1008283014+1003751672+999504182+998237026+1000043638
1133+1004323150+1010501682+1015746772+1016649792+1014693820+1015755463
1124+1022784751+1031681264+1036059015+1033753316+1027272063+1020858170
1115+1015889041+1011863761+1010656531+1013675062+1017385612+1018703661
1107+1020868005+1027476089+1035319993+1038357852+1036803298+1035953342
1098+1038436649+1042045185+1042387135+1037681387+1031163194+1027027209
1090+1026918563+1028764402+1029349948+1029231237+1031769096+1037165261
1081+1040922814+1039972790+1036175323+1032123625+1029353035+1028133569
1073+1026903581+1022415811+1014811272+1011794227+1018675984+1031037736
1064+1038341269+1035135409+1026699098+1019865373+1015727444+1011717946
1055+1006529009+1002733144+1002781863+1004769743+1004985663+1003609403
1047+1004158809+1007101860+1008002822+1004566518+1001542382+1003506475
1038+1007102203+1006381250+1003183281+1003184883+1006070637+1004758878
1030+996121629+987247874+985038470+988284930+991050945+989898839+987545908
1020+989318783+996304726+1002994580+1003559654+999448372+996103788+994888553
1010+992604469+988444811+986996616+991962085+998691624+996338349+981662894
1000+963990979+952454309+948027495+946582445+944499300+941392136+938661116
990+936678039+933937356+928957649+922136504+915194992+910037505+907481348
980+905857718+902240661+895735677+888577387+883483830+881339785+881334582
970+882071374+882418698+881367576+878635698+875917831+875317475+876315075
960+876600586+875953741+876155308+877238110+877026364+874182753+869732152
950+866071065+865525547+869078217+875843151+883750070+890537763+894583457
940+896140641+897424438+900316368+904350454+907677597+909977692+913683382
930+921642794+933263121+943438228+947407183+946847427+947986439+954836517
920+966172021+976823911+981040866+976850673+968083620+960294496+955462547
910+952303920+949584966+947163016+945407924+945877389+950494905+957825428
900+962392738+960446601+954940417+950573588+948332848+947327700+947104118
890+947118356+947263999+949055916+952917427+955184928+952049516+946140141
880+943429193+945039042+947053455+947652952+950122935+956725301+963805594
870+966288787+965374101+967159328+974662426+984892427+992426404+993817760
860+989878139+984428108+980645738+979446628+980140705+980964128+979836496
850+976487109+972933695+970458966+968088080+965600085+965949696+972097464
840+982852740+992948592+997222957+994566046+988504624+985196979+989340398
830+999363514+1007131823+1006689462+1001848993+999775912+1001774313+1004158123
820+1004374157+1003892683+1006514828+1013796632+1022041726+1026777551
811+1029809578+1035357390+1041156918+1041591731+1038007211+1036827429
803+1039848362+1042049760+1040066111+1036748289+1034384378+1031791625
794+1028343656+1026160556+1026831989+1028096629+1026001132+1019102335
785+1009821329+1002835157+1001256129+1003424361+1004448036+1001644281+996103788
776+990500738+987673881+989400439+995998116+1005027520+1010930891+1007996646
766+996209918+981283319+969590827+963961473+963156234+965151891+969308690
756+975024389+980324946+984381562+989517205+997350588+1003264137+1001296614
746+995040543+991789624+992142438+991547515+987869216+984035724+983164154
736+984605373+986056313+988173539+993471465+999974905+1001978682+999823716
726+999399310+1001701463+1003470336+1002880559+1000827606+999519164+1000340528
716+1003757962+1008053028+1008513573+1003653090+998989085+1000224791+1008057945
706+1015420262+1012979727+1002043641+991215172+986897691+988210250+989934406
696+989739415+988849432+988174797+986548079+984382019+987607550+997515044
686+1005380334+1003216104+992613504+980826319+970794168+961344017+953443388
676+949461223+949897409+953021956+955974442+958321026+962378557+967077557
666+966187117+958481650+950300943+949233924+957281397+968740414+974600212
656+967207589+948389058+930562237+926018486+936307671+953007089+969493732
646+985657524+999386044+1004801651+1000580007+990764233+979432218+969005968
636+961571717+957172236+954009434+953150158+953140952+953097322+960525283
626+977668377+993692531+995140040+981486887+963365063+950138317+941683708
616+930304060+912342746+895888011+891208395+899987113+916598013+931686953
606+938514616+938549211+934086773+925812916+919346359
##END=
