##TITLE=<SNM>
##JCAMP-DX=4.24
##DATA TYPE=INFRARED SPECTRUM
##DATE=29/4/2025
##SAMPLING PROCEDURE=Instrument type and / or accessory
##ORIGIN=Admin
##XUNITS=1/CM
##YUNITS=ABSORBANCE
##RESOLUTION=4
##FIRSTX=4497.3318
##LASTX=599.83466
##DELTAX=-1.4281778
##MAXY=2.2133346
##MINY=0.63382584
##XFACTOR=1
##YFACTOR=2.0613284e-09
##NPOINTS=2730
##FIRSTY=0.65529042
##XYDATA=(X++(Y..Y))
4497+317897144+318984025+318872729+317990368+317541973+317569356+317147708
4487+316004702+314643498+313366698+312191190+311239605+310646401+310523712
4477+311153668+312674776+314560452+315839535+315972923+315335622+314843912
4467+315126100+315876519+316042090+314946794+313224318+311991181+311447220
4457+311059374+310711490+310971268+312041783+313176173+313485050+312984809
4447+312622438+313067363+313789243+313895450+313582235+313901377+315328654
4437+317184229+318215100+317662638+315931372+313977686+312282448+311108155
4427+311077967+312285571+313626245+314145686+314075826+313886312+313624366
4417+313431643+313520558+313685378+313638997+313594843+314002524+314855420
4407+315572210+315725608+315647940+315813280+315955747+315484018+314307353
4397+312677060+310954873+309971597+310564107+312407161+314088028+314658620
4387+314493483+314319758+314194929+313741821+312733272+311119114+309246132
4377+308178769+308775992+310363837+311253456+310731008+309687674+309467250
4367+310785977+313369821+316214514+318179563+318388797+316617858+313830563
4357+311697340+311006545+311201350+311528068+311735075+311772318+311637514
4347+311453032+311520810+312429571+314461300+316467554+316576219+314794437
4337+313316038+313524664+314337859+314167980+313062592+311903624+310920290
4327+310169640+310335037+311852328+313922746+315200876+314986871+313370833
4317+310930439+308621930+307484157+308094537+310012425+311772463+311978574
4307+310695673+309287510+308926065+309773524+311354574+313126669+314622910
4297+315463487+315609049+315419622+315164876+314852008+314589425+314309927
4287+313364154+311477928+309628830+308896079+309171761+309726479+310110045
4277+310089804+309715751+309554199+310092319+311057581+311729726+311581880
4267+310579461+309290315+308611867+309184195+310780945+312302660+312733966
4257+312184482+311682044+311898622+312433880+312537369+312385157+313072915
4247+314979584+316788142+317017588+315964827+314988606+314563430+314231710
4237+313743064+313192453+312560385+311748463+310853582+310068175+309514643
4227+309322064+309665582+310568068+311625890+312208366+312120665+311758468
4217+311487037+311306256+311272309+311710294+312609918+313376298+313690958
4207+314078659+315057252+316130716+316247795+315267121+314345984+314498370
4197+315175950+314968018+313599787+312227913+311744646+311817398+311703210
4187+311280087+311028868+311368251+312201311+312992877+313216366+312784077
4177+312123123+311825379+312149378+312789571+313170853+313003865+312507672
4167+312225571+312676250+313759691+314438110+313734823+312206227+311489205
4157+312169301+313140983+313385146+313239874+313392491+313823884+314381782
4147+315274524+316244441+316310629+315186244+313880471+313250689+313085783
4137+312986197+313077079+313560693+314325801+315143680+315789627+315981106
4127+315562726+314785502+314140163+313793696+313474843+313059094+312777600
4117+312768925+313084135+313932346+315115545+315719246+315140037+313780626
4107+312357427+311331066+310990410+311324299+312001562+312771817+313463363
4097+313719903+313368578+312841301+312644530+312580973+312057803+311140627
4087+310715452+311391789+312623450+313240366+312678072+311492993+310798989
4077+311141755+312033195+312799778+313397262+314021695+314521560+314642139
4067+314426804+314118765+313855170+313492366+312780144+311791490+310945186
4057+310611673+310895220+311594921+312254631+312471875+312162391+311385369
4047+310261649+309322007+309266373+310025148+310712126+310717331+310272666
4037+310010170+310482970+311857388+313541956+314441204+314054052+312905349
4027+311770641+311114661+311173360+311889022+312919286+313997377+314916837
4017+315240172+314680972+313653917+312730612+311838391+310740030+309957370
4007+310366295+311954747+313665079+314603045+314856114+314908943+314875950
3997+314687507+314543074+314694273+314890669+314461040+313128954+311490333
3987+310413659+310178170+310502835+311185533+312244019+313491383+314454996
3977+314899430+315171786+315682668+316149540+315847458+314685772+313485831
3967+312989580+313058544+313045243+312699007+312434053+312636463+313054641
3957+313145147+312711759+312018738+311630661+312206805+313911122+315860788
3947+316694051+315926109+314360789+313131151+312652626+312577012+312605263
3937+312922612+313857917+315509579+317508228+318848584+318560787+316986532
3927+315650427+315598495+316236316+316123458+314992741+314163700+314745367
3917+316147661+316825906+316149222+314714341+313386737+312662602+312500241
3907+312661850+313273503+314697281+316765154+318602194+319441182+319185567
3897+318204373+316969154+315858504+315150996+315011767+315279410+315588056
3887+315840461+316219950+316916296+318082320+319734936+321002106+320481769
3878+318283428+316006610+314868548+315084982+316456711+318483206+320008015
3868+320284073+319905972+319519630+318784710+317302291+315768027+315271227
3858+316181145+318307168+321315610+323796861+323581006+321033277+318201423
3848+316342639+315703603+316071988+317208518+318956093+321142405+323309633
3838+324519897+324297420+323436514+322801411+322314443+321429740+320050376
3828+318543582+317310156+316965713+318413809+321616506+324366760+324808099
3818+324164842+323996524+323565102+321653055+318954994+317095458+317194118
3808+319135659+321303378+322449739+323380447+324931829+326052339+325629072
3798+324446856+323577044+322935985+322166337+321722886+322430626+324552340
3788+327664531+331130766+334330022+336840391+338807494+340711011+342730190
3778+344855751+347305426+350184037+353334339+356893826+361116465+365327190
3768+368178128+369155795+368900239+368483882+368785212+370011582+371779427
3758+373792939+376362846+379912791+384211131+388418213+391808370+394516089
3748+397433389+401826543+408359484+414869668+418446071+420118581+422756006
3738+427984215+435269599+442470087+447642344+450098439+450630545+451119827
3728+452887614+455371583+457039235+457467534+457119158+455911785+453780558
3718+451654564+450645379+451078419+452659151+454654967+455821337+455266938
3708+453409599+451577330+451152068+452888163+456349539+460012313+462543647
3698+463561940+463359964+462777314+463095328+465391260+469229580+471867555
3688+470978514+468201716+466765649+467969465+470714833+472876161+473581125
3678+473855968+474417799+474200961+472585588+470947228+470468818+470437127
3668+469770939+468787026+468245176+468013070+467307210+466205409+465930912
3658+467452049+470279016+472592123+473341761+473323660+473913857+474987698
3648+474374859+471432259+468008675+465856570+465506373+466556387+468305899
3638+470149937+471550495+472072104+471923217+472178803+473641154+475419669
3628+475807832+475021124+474368729+474251274+474688479+475925288+477593402
3618+478543108+478658163+479090683+480380437+482200127+484508406+486989513
3608+488128731+487296366+486392462+487304925+489374533+490727901+491384517
3598+493118068+496272650+498832552+499376224+499177573+500033419+501957003
3588+503629947+503787479+502219904+500118836+499091173+499528783+500434826
3578+501316117+502914574+505219266+506593916+506248606+505966215+507778012
3568+510902405+512368544+511218164+509595013+509289144+509943852+510339533
3558+510137413+509852305+509540247+508397790+506224432+504620423+505406987
3548+508276633+511049760+512092978+511555610+510178358+508376103+506720972
3538+505754322+505043344+503791585+502253678+501253370+500877351+500737977
3528+500665457+500222643+498873034+497403888+497558239+499676715+501981003
3518+502554805+501255625+499271318+497571020+496545556+496508428+497516427
3508+498981699+500080378+500366238+500104031+500123289+500726122+500847972
3498+499163173+496125411+493980044+494610810+497820967+501388579+502585282
3488+500340272+496123387+492279457+490027391+489376615+489950822+491339640
3478+492891948+493651446+493077355+491673327+490380971+489693010+489516798
3468+489404490+488942186+488188702+487495710+486946428+486482679+486318381
3458+486691045+487444587+488032153+487895093+486786351+484904810+482934469
3448+481593304+480884957+480082692+478722153+477259687+476404969+476534020
3438+477817932+479914403+481587607+481724899+480616533+479334442+478396679
3428+477726703+477188959+476746289+476481856+476456786+476509008+476540844
3418+476715408+476849460+476177548+474406898+472535275+471896355+472652412
3408+473742821+474200093+473904778+473028749+471670032+470373859+470027479
3398+470749011+471711208+472396769+473048875+473683053+473767862+472960451
3388+471500268+470084298+469630987+470517975+472045213+473388749+474734281
3378+476605846+478601373+479690191+479649073+479488563+480205179+481545824
3368+482422344+482409708+482179858+482504175+483541524+485073562+486755354
3358+487924703+487872886+486934862+486577349+487534399+488680442+488673329
3348+487801753+487080308+486537792+485482256+483802661+482295694+481890556
3338+482859954+484646247+486316588+487315334+487746871+487751613+486923180
3328+485121938+483512522+483493033+484727095+485528463+485265099+484955528
3318+485197610+484949080+483134421+480561564+479149671+479681025+481204330
3308+482529939+483441505+484277601+485093080+485617986+485716877+485724974
3298+486245340+487329445+488139661+487932278+487041040+486364588+486255402
3288+486558380+487480558+489464981+492125626+494326916+495509392+495881884
3278+495355445+493687244+491546503+490155429+489986446+490619988+491541356
3268+492368517+492763389+492848517+493244661+494169788+494874347+494258559
3258+491895052+488500008+485585774+484390459+484829630+485727403+486340646
3248+486897619+487339219+486927171+485689812+484806295+484976232+485556916
3238+485605205+484997051+484423827+484567191+485198535+485329118+484528039
3228+483472589+482722517+481812918+480197141+478332631+477062800+476478213
3218+476073625+475643389+475362155+475219514+474940450+474425953+474005664
3208+474080730+474506599+474557433+473721424+472305424+470970678+470040028
3198+469508848+469321908+469482101+470105522+471167565+472071670+471988711
3188+470752770+468961619+467086584+465043722+462940312+461472033+461173537
3178+461731146+462369459+462684639+462799753+462953844+463196620+463256909
3168+462628023+461142742+459464246+458574049+458739533+459232892+459080073
3158+457979399+456401848+454914543+453663073+452594496+451823923+451430323
3148+451135875+450537205+449612512+448846045+448791625+449434449+449987461
3138+449624136+448480320+447432850+446867694+446276658+445195676+443959821
3128+443212641+443055715+443131677+443388650+444116168+445074577+445248186
3118+443953257+441713972+439602233+438148672+437213136+436513146+435894698
3108+435310602+434819209+434562554+434656703+435109638+435822380+436526909
3098+436751092+436163787+435050708+434202612+434130438+434606216+435112819
3088+435389368+435391305+435129040+434671132+434080732+433411162+432880617
3078+432827066+433213292+433485706+433327277+433109543+433107345+432887008
3068+432071905+431043288+430274884+429645448+428855184+427943011+427135888
3058+426586722+426396631+426671329+427349575+427961083+427882866+427109488
3048+426372573+426174067+426239011+426144573+425864756+425494405+424963253
3038+424212256+423364738+422632450+422174310+422035602+422165693+422503370
3028+422907293+422953066+422129346+420518571+419023401+418468105+418637811
3018+418623555+417975903+417126795+416743923+416992973+417460106+417655489
3008+417479971+417151055+416814506+416366284+415625379+414632589+413726951
2998+413199212+412964301+412792918+412662364+412672166+412879260+413262971
2988+413590787+413540705+413176946+412845197+412514431+411878981+411026924
2978+410302587+409782481+409462934+409488206+409743156+409731821+409154867
2968+408227484+407391301+406978155+406987234+407022193+406641490+405812941
2958+404920806+404455149+404682917+405390744+406054502+406354184+406258039
2948+405696180+404620836+403276865+402016548+401021821+400419450+400371537
2938+400827363+401407295+401689743+401543372+401210842+401079883+401235623
2928+401297416+400886553+400109359+399347431+398768569+398374535+398332521
2918+398751133+399174082+398892386+397875567+396830180+396228416+395870325
2908+395529207+395425458+395767703+396273669+396451067+396093149+395374017
2898+394697159+394447733+394650403+394887366+394707019+394090596+393463415
2888+393249758+393427647+393585237+393408476+392966471+392475772+391986057
2878+391452187+391026549+391027792+391450163+391720091+391320534+390505027
2868+389952998+389915697+390084767+390135600+390087658+390130800+390268063
2858+390295648+390149595+390017480+389972227+389866714+389716902+389706174
2848+389766029+389638743+389307283+388971138+388728507+388557124+388435910
2838+388308652+388096266+387835274+387650850+387532180+387256614+386640682
2828+385815603+385141203+384860924+384910369+385099911+385408528+385853280
2818+386111207+385772807+385004027+384348278+383919806+383441599+382930226
2808+382706737+382869908+383194341+383408549+383388076+383206284+382983257
2798+382638294+382003364+381160617+380391230+379843914+379487124+379291279
2788+379246806+379257650+379180040+378975809+378736272+378511424+378224898
2778+377880224+377701525+377824301+377939241+377537371+376515666+375310664
2768+374452766+374198597+374528525+375229816+375923444+376194413+375868533
2758+375159319+374436428+373824920+373181084+372523224+372184680+372348227
2748+372728005+372907224+372750415+372370752+371939157+371598329+371389905
2738+371240873+371066772+370829982+370495457+370021529+369434715+368893154
2728+368617039+368671169+368846369+368850937+368576354+368110841+367593714
2718+367148153+366870823+366779420+366787835+366773348+366656818+366434543
2708+366197262+366078505+366074341+365987190+365717551+365494207+365583296
2698+365894659+366073676+365863691+365296568+364654496+364220993+363991894
2688+363805359+363764820+364167615+364966959+365675826+365835758+365311980
2678+364250371+363039673+362162777+361832994+361847973+361918006+362015192
2668+362238912+362480242+362490218+362237611+361909216+361579057+361192571
2658+360854749+360771183+360892021+360930363+360721043+360338836+359921843
2648+359556697+359288649+359122962+359016437+358878625+358593892+358127223
2638+357618597+357284418+357228525+357425267+357830982+358374885+358905516
2628+359269593+359358220+359046798+358305575+357429575+356899175+356904467
2618+357201286+357494982+357736168+357964110+358112591+358109179+357996408
2608+357858712+357742095+357669517+357627589+357535695+357296910+356918289
2598+356579397+356485132+356596110+356653161+356575147+356617681+356957325
2588+357358471+357451262+357152968+356678318+356296776+356170819+356303368
2578+356558896+356756245+356785739+356698963+356676033+356825758+357024785
2568+357025132+356710703+356207658+355773721+355644496+355918617+356445923
2558+356859561+356871648+356532409+356113942+355829528+355738386+355774675
2548+355805065+355772361+355739571+355726559+355686164+355668381+355778260
2538+356001316+356246347+356423802+356388641+356057152+355609306+355292709
2528+355099147+354918251+354851167+355077808+355533113+355918704+355962626
2518+355600718+355019340+354546512+354401500+354535784+354753576+354943928
2508+355134424+355353171+355522039+355567697+355592651+355740092+355899330
2498+355841672+355659735+355682492+355892998+355858675+355377200+354823581
2488+354687736+355009538+355418954+355607658+355586636+355534617+355617489
2478+355956149+356521074+357022211+357123994+356780910+356205460+355625065
2468+355239157+355223774+355564747+355994000+356215002+356138115+355889846
2458+355681624+355652940+355743995+355719301+355398945+354899716+354579099
2448+354668825+354995890+355165422+355041837+354912757+355096227+355525942
2438+355848641+355872092+355789508+355898867+356179667+356319937+356170414
2428+355935966+355840226+355855841+355863272+355864747+355964911+356248168
2418+356663831+357010819+357140823+357163435+357319204+357688948+358116235
2408+358351868+358260090+357956042+357721421+357750076+358040245+358520273
2398+359151126+359894084+360710720+361633852+362797129+364462786+367111054
2388+371401673+377892368+386837973+398361032+412702065+430077506+450256203
2378+472447545+495755233+519609543+543497337+566462432+587356589+605474960
2368+620557361+632471302+640966545+645333039+644961357+640496608+632975880
2358+621816696+606098035+586554296+563804391+539324809+518048907+505260153
2348+503320087+511782887+527301857+543576797+555146525+561375765+564676776
2338+567096437+569347462+571440087+573136106+574102756+574448587+574657416
2328+574461888+572724810+568791009+563083003+556320732+548872061+540854678
2318+532421256+523881020+515610104+507841048+500493351+493156006+485361446
2308+477000256+468404819+460039205+452219749+445086635+438673752+432903461
2298+427561642+422435014+417535980+413070016+409143358+405634098+402357984
2288+399242757+396367500+393946596+392232245+391287542+390821740+390329624
2278+389464931+388258888+386974628+385871236+385108442+384686244+384421840
2268+384121319+383811951+383684172+383753830+383690418+383130900+382150631
2258+381230853+380722516+380539451+380404762+380163548+379804358+379385428
2248+379027770+378885332+379065679+379541168+380094931+380440560+380501312
2238+380507095+380726767+381148126+381465446+381360020+380785813+379991268
2228+379268609+378704002+378187597+377609024+376968138+376337834+375811570
2218+375469613+375292852+375103917+374690886+374055869+373505518+373386038
2208+373699195+374087561+374255619+374265652+374334761+374527859+374763609
2198+374960148+375098683+375280360+375708109+376436928+377194431+377650113
2188+377796340+377885342+378102759+378457583+378863587+379221332+379528878
2178+379903307+380359596+380660608+380577793+380240521+380041842+380206892
2168+380590343+380937707+381217581+381559017+381957995+382260279+382401359
2158+382460520+382482178+382412520+382234487+382050294+381993417+382128222
2148+382457108+382958795+383594360+384321126+385084875+385768586+386245896
2138+386549019+386869665+387336161+387903630+388492845+389128237+389893518
2128+390794588+391746028+392729710+393844726+395098855+396313428+397357023
2118+398265350+399030545+399534024+399805282+400105860+400602949+401093792
2108+401205290+400852780+400362833+400084983+400003180+399833619+399438053
2098+399021668+398868039+398950737+398979740+398839297+398698506+398630844
2088+398497803+398305427+398273764+398458217+398670747+398820386+398999200
2078+399222747+399394246+399518843+399718274+400070987+400578457+401192076
2068+401751131+402015680+401928500+401784008+401954379+402435738+402848509
2058+402959227+403007256+403365578+404078176+404912132+405704478+406474213
2048+407270550+408025132+408579445+408881527+409119098+409584293+410458702
2038+411753487+413289197+414687182+415607104+416090285+416531740+417282563
2028+418358486+419512856+420521174+421355824+422122262+422963968+424069384
2018+425576670+427364148+429112995+430679645+432239558+433999740+435906466
2008+437732518+439396845+441044285+442771879+444445777+445889825+447093207
1998+448126479+449045678+449978786+451110805+452514573+454088394+455637839
1988+456971139+458024710+458984507+460151889+461588708+463047936+464338730
1978+465599221+467139644+469141214+471500904+473862879+475920892+477799021
1968+479907608+482306884+484563143+486432944+488250061+490400634+492798435
1958+495096014+497209285+499431915+502039933+504847700+507296624+509132710
1948+510799697+512901228+515503521+518197534+520643740+522863594+525102301
1938+527564179+530232862+532825960+534962652+536518950+537834034+539429946
1928+541586417+544333462+547563455+550809930+553326922+554914391+556199691
1918+557781319+559671015+561721134+563985576+566434500+568757409+570637678
1908+572046796+573127084+573906419+574385435+574884346+575882572+577370397
1898+578785934+579712276+580291225+580899783+581723937+582719503+583815290
1888+585040388+586365766+587530488+588267490+588647153+588936945+589194873
1878+589293591+589310940+589636183+590532800+591708105+592500278+592422784
1868+591485686+590135094+588970487+588444685+588578970+588870034+588656810
1858+587709013+586409544+585309304+584629208+584261690+583984736+583537064
1848+582787455+581850356+580744102+579246445+577494099+576042475+575077849
1838+574306206+573516520+572837060+572448607+572246429+571762150+570572560
1828+568934431+567419656+565987117+564231359+562375495+561165896+560833655
1818+560778715+560310744+559391342+558461704+557839324+557514659+557349551
1808+557257599+557185252+557034428+556703344+556240289+555884453+555831711
1798+556036202+556429166+557224693+558743169+560726378+562100681+562245837
1788+561871322+561998840+562886087+564090829+565314597+566647608+567949564
1778+568778171+569183453+569969727+571875904+574549734+576790697+578252093
1768+579588517+581071369+582458626+583731030+584988745+585976099+586526595
1758+587095539+588217813+589944829+592186254+595077241+598366800+600862047
1748+601668967+601514095+601719454+602729477+604118065+605469235+606739673
1738+608105821+609965097+612661597+615570106+617388091+618182115+618750712
1728+619060745+618893671+618714047+619103598+620091473+621547491+623595471
1718+626175151+628563294+630027178+630607573+630715428+630809924+631453992
1708+633092757+635499984+637648417+638981949+640422815+643064260+646170899
1698+648055563+648680951+648719293+648532729+648800199+650102906+652250356
1688+654859183+658139663+661901300+664225019+663953386+662716258+661864404
1678+661658871+662396394+664377347+667286145+670592649+673896320+676197658
1668+676543200+675980849+676594439+679117271+682092286+683447563+683188941
1658+682842705+683537548+686042453+690784156+695428356+696804278+696386042
1648+696518071+697367555+697845241+698049212+699154021+701627119+705151126
1638+709448917+713919796+716480335+716074128+715251246+716402725+719400584
1628+722800138+726093052+730319305+736260256+742912937+748443633+752528199
1618+756393700+760954797+765487556+768907872+771389123+773671840+776233709
1608+778859770+780659711+781057706+780619287+780423702+780920993+781710563
1598+782379093+783178900+784625087+786796132+789387610+792043281+794290200
1588+795734768+796529659+797448193+799113850+801082312+802308393+802577829
1578+802823728+803953462+805643061+807077451+808558337+810950991+814283461
1568+817168028+818257570+818000625+818150466+820251824+824993238+831620994
1558+836625425+837519612+836356278+835394023+835708799+837409559+839332623
1548+840197548+840353403+841095726+842850905+845372928+848439317+850648010
1538+850583354+849419210+848352107+847030836+844952899+842701065+841058540
1528+840320439+840590801+841620892+842911628+844394133+846480340+849201880
1518+851947305+854359969+856659283+858613403+859159619+857971938+856793394
1508+858504969+864315684+870940316+874926338+877242597+879614490+882006797
1498+883063143+882437293+882370961+885300867+891493384+898884455+903694110
1488+904265946+903425426+903592501+904020105+903499508+902890660+904303768
1478+908300199+913169825+917380348+921002438+924313916+926785683+927991639
1468+927969085+926808815+924865048+922422428+918930111+914348948+910238126
1458+908567148+909421606+910135475+908995389+906814051+904947141+904227257
1448+904352924+904170582+903524202+903750958+905528403+907561983+908184247
1438+907366918+906286224+905738851+905327729+904630283+904285320+905189107
1428+907238012+909396507+910998839+912293970+913628428+914838894+915786402
1418+916267038+915299636+912360476+908535052+905582649+904383401+904527864
1408+905640365+908039785+911125952+912399166+910308275+906773569+904887922
1398+905382263+906751940+908449520+911450848+915312937+917306093+915648475
1388+912053045+910116275+911418173+914453449+917376994+919868945+922649531
1378+926574367+931613439+936306738+939079344+940147372+941500104+944889249
1368+949667097+952739326+951795693+948622664+947732640+951633534+958718330
1358+965788553+970676512+972493455+971621244+969900936+969132532+969273351
1348+968860898+967627414+967734576+971351981+978088054+985258325+990282708
1338+992785993+994341308+996235630+998136545+999675667+1001914432+1005681909
1328+1009514273+1011422127+1012150223+1013968208+1017649054+1022844733
1320+1029440392+1035910442+1039001062+1038332879+1037260455+1038312869
1311+1041374805+1045745694+1051003715+1055683308+1058329552+1059362650
1302+1059765272+1059910313+1061257435+1065782386+1071932397+1073741823
1294+1067263677+1056318411+1047587621+1043367556+1042034313+1041252202
1285+1039484069+1035799059+1030645365+1025991103+1023152627+1021560994
1277+1019883077+1017441902+1014790453+1013523485+1014181721+1014626791
1268+1012790647+1009928692+1009180934+1010951496+1011586137+1007842023
1260+1000665044+993231873+987562902+983921844+981748081+980309701+978883003
1250+976871400+973678534+968739048+962083996+954003114+944535032+934178604
1240+924266610+915963308+908948257+901480444+891899765+880274750+868977869
1230+861183483+858083899+857503794+855533944+850255277+843648919+839161327
1220+838060624+838761597+839153577+838616961+837547255+836243738+835065599
1210+834719536+835827006+838535881+842370559+846207954+849026651+851086949
1200+853609203+856912527+859689585+860556187+859697508+858580555+858708362
1190+860971879+865359481+870934475+876640169+881930170+886369879+889597964
1180+891983273+894396862+897350943+901003914+905325878+909953712+914907771
1170+920848896+927927273+935347722+942504402+949255858+954506015+957073261
1160+958063391+959753857+962942617+966604379+969057525+969508204+969453091
1150+971677803+976887824+982512495+985649380+986197505+985578942+984140562
1140+981937421+980134241+979644989+979819870+980044487+981581990+985550720
1130+990203942+992496143+991979131+991289782+992524943+995148749+997286656
1120+998740419+1000577950+1002119733+1003083086+1007198477+1017245970
1111+1028441530+1032799118+1028964209+1021177341+1012597953+1005193582
1103+1002019800+1004453110+1009424288+1012072151+1010457386+1006214420
1094+1002695038+1004292107+1013733876+1026733078+1031377509+1021963847
1085+1007981513+1001258972+1003303539+1007062458+1007933050+1007462188
1077+1007433735+1007776443+1007412337+1005737427+1003184522+998842318+991388789
1067+982103628+973974862+969475240+968464349+967946181+965849623+964194549
1057+965907512+971341918+979164989+986895992+991022601+989877311+984874557
1047+978386811+973311074+973127517+977652469+981237778+980292236+978028141
1037+978454242+981936033+986645351+989814043+987907692+979135263+967421709
1027+960376180+962422772+970917668+978641037+981467253+981372525+980536631
1017+977766397+973024346+969986816+971622400+976859255+982221720+984543183
1007+981518607+973147643+962983215+954149369+945965894+936560155+926806097
997+919402882+915183685+912227927+907906021+901558401+895239059+891005809
987+888600316+886249474+882613505+877951724+873842175+871330909+869905252
977+868675643+867384675+865704213+863182538+860612862+859360930+858586627
967+855548171+849885215+844826133+842989354+843471146+843561826+842070993
957+840417422+840907774+844200630+848285659+850444154+850235210+849248377
947+848455278+847804503+848183182+851685098+858975716+867646535+874654358
937+879628138+883907075+888011362+891884324+895643821+899467741+904197705
927+911510009+921701907+932332224+940358167+943768767+941709106+935580435
917+928778723+924164537+922678215+923815757+926132999+928288834+930061421
907+931568909+931903290+929569508+924749154+920038969+918165061+919439142
897+922104587+924989616+927961798+930230867+930661189+929366289+927789865
887+927431485+928780053+931558037+935287057+939416153+944183360+950320648
877+956886813+960400411+957761107+950775260+945265788+945174646+949112668
867+952352435+952353302+951927201+954785340+960285096+965581459+969569736
857+971393735+968888079+962075437+954988964+951844040+953373446+957018322
847+959697761+960442802+960754917+962743330+967021458+971739798+974528885
837+975242061+974685955+973438418+972488366+973661069+979004912+987778844
827+994958484+996287447+993748653+991775681+990745243+988594381+986617129
817+987572849+990240375+991098823+990015412+990729628+996145297+1004963182
807+1011433925+1009618254+1001371280+995407139+997326328+1006167808+1017961343
797+1028374561+1033404265+1030598290+1020286045+1008245570+1001741632
788+1001069285+999640158+993008875+984369689+977209134+970238266+962399523
778+955959546+952782353+951520301+949904957+948144514+948064765+950344186
768+953783933+955935084+955533040+954766834+957500288+964976891+971952733
758+970195124+960235303+952496030+955028347+966780880+979189972+982192341
748+975179950+968550402+970836010+980679128+988379249+987254314+983073228
738+984812677+991686505+995153144+990944182+982553093+974743786+970861109
728+972865542+978963273+983730654+984372928+984537516+989622275+1001329295
718+1016127050+1027979458+1034321469+1033768139+1023344164+1006354950+992061714
708+986086701+987026575+990167855+991846003+990303296+985044581+976483005
698+965299127+952960647+943409057+940381936+942708546+946421662+949905651
688+953489977+956354129+957918870+960396999+965246095+969708184+969479115
678+963426781+955726197+952589138+955718216+958146437+950848474+936224791
668+928541672+933761756+938842235+936935769+932801294+931509632+934850951
658+940082023+942844566+945941373+952175298+956137435+951982315+942636431
648+936664077+938786023+946155696+950172831+940918379+919786651+898503694
638+885227075+882135587+890076576+906929251+922435093+926243862+917485023
628+900899991+885433995+879306076+884377533+896684321+908872556+915625920
618+915169458+905626543+886788057+867455171+859387822+868460857+888930186
608+902464848+898803260+893425875+901761157+920745840+933740012+932138258
##END=
