##TITLE=<SNM>
##JCAMP-DX=4.24
##DATA TYPE=INFRARED SPECTRUM
##DATE=29/4/2025
##SAMPLING PROCEDURE=Instrument type and / or accessory
##ORIGIN=Admin
##XUNITS=1/CM
##YUNITS=ABSORBANCE
##RESOLUTION=4
##FIRSTX=4497.3318
##LASTX=599.83466
##DELTAX=-1.4281778
##MAXY=2.199702
##MINY=0.65870386
##XFACTOR=1
##YFACTOR=2.0486322e-09
##NPOINTS=2730
##FIRSTY=0.67831618
##XYDATA=(X++(Y..Y))
4497+331106868+331977851+331766041+329842580+327099227+325065991+324467859
4487+324952871+325853967+326873596+328224848+330232655+332498300+333613331
4477+332526231+330145079+328394384+327758109+327128904+326022339+325369538
4467+325949136+327498001+329385762+330999159+331551786+330639634+328983671
4457+327871375+327906522+328563425+328820915+328268316+327530820+327323897
4447+327483802+327368558+326941067+326836966+327371758+328364096+329649419
4437+331087723+332207613+332303539+331161712+329630042+329085154+329950522
4427+331109457+331334913+330676293+329716774+328589872+327592530+327455260
4417+328221211+328993942+329225566+329219048+329200748+328921583+328328921
4407+327876990+327977455+328481552+328891149+329115296+329688116+330834627
4397+331701770+331254000+329723291+328272738+327415342+326717211+326022805
4387+325996299+327066611+328558392+329387013+329174475+328356764+327555259
4377+327105191+326961637+326871676+326632836+326281109+326096095+326377180
4367+327217265+328325604+328997084+328752425+328098548+327841698+327732447
4357+327084796+326395481+326585790+327134664+326844414+325742738+324601376
4347+323722449+323290624+323755007+325200148+327036586+328438055+328762259
4337+327721827+325632759+323519687+322380479+322271315+322445127+322480710
4327+322805409+323758993+324770766+325105008+325002506+325388275+326623177
4317+328037856+328744133+328634911+328213996+327707455+326955556+325951231
4307+324817318+323742554+323448114+324738325+327067863+328476082+327615399
4297+325118624+322717601+321976962+323564697+326584830+328779076+328476402
4287+326433537+324841496+324738005+325267270+325136255+323995359+322534914
4277+321772425+322141668+323100896+323825911+324143045+324328001+324496023
4267+324733612+325139107+325540005+325642768+325336079+324704750+324018868
4257+323697544+323977000+324632682+325096046+324921826+324425759+324607427
4247+325895166+327415459+328056796+327630411+326680523+325839594+325482950
4237+325492202+325461507+325257523+324945073+324448220+324008685+324383513
4227+325762144+327076736+327087734+325804477+324275339+323312503+322866130
4217+322395084+321748509+321533498+322296714+323670748+324863229+325626678
4207+326161703+326474328+326443953+326257571+326355941+327005483+328037448
4197+328989403+329451545+329267171+328548558+327705272+327205277+326968067
4187+326538162+326063508+326159812+326649071+326561496+325699648+325105822
4177+325656210+326999519+328087346+328311144+327945392+327689707+328042831
4167+329091555+330486158+331307651+330406438+327643562+324524973+322879863
4157+323062636+323861581+324091198+324034812+325033929+327483221+329791751
4147+330064254+328430840+326712993+326129059+326269500+326167377+325618415
4137+325210244+325475123+326394259+327600473+328654114+329174853+329121813
4127+328808898+328380040+327723864+326994020+326659342+327020176+327987143
4117+329148057+329707115+328816987+326549218+324181042+323065517+323506798
4107+324845452+326013582+326031824+324868350+323725446+323645872+324147322
4097+324083720+323520386+323625447+324757819+325846112+326045877+326040814
4087+326823379+327928546+328089295+327228204+326423121+326350820+326973275
4077+328026189+328785739+328201311+326236332+324325586+323794866+324406644
4067+324900704+324528930+323688088+323254139+323698621+324758546+325659963
4057+325859990+325607359+325410824+325330551+325333751+325664240+326159056
4047+326059144+325243965+324624506+324722061+325104018+325556880+326344535
4037+327099081+327015317+326244769+325615040+325235353+324776527+324511414
4027+324742515+324999801+324844172+324631373+324768438+325040068+325126741
4017+325148155+325293804+325288014+324695759+323690009+322985011+323043492
4007+323806999+324951387+326013349+326620878+326892159+327144120+327225440
3997+326748692+325853065+325346611+325984399+327565181+328973924+329458819
3987+329449887+329637723+329945809+329866263+329139067+327910682+326681192
3977+326006366+325996648+326283436+326484103+326389865+325849370+324953220
3967+324219593+324203533+324980831+326085911+326852211+326840370+326234673
3957+325830429+326263128+327305567+328329386+329178898+329901381+329969666
3947+328857312+327239784+326555182+327454795+329116780+330114035+329853287
3937+328934355+328401600+328939011+330405449+331800460+332161992+331722137
3927+331475500+331777650+332091583+331928274+331420190+330989208+330925927
3917+331166221+331219378+330727296+330093756+329957999+330207313+330274580
3907+330470942+332031880+335348140+338845341+340602147+340229180+338193064
3897+335255561+332887356+332386430+333498581+334420742+333994968+333646528
3887+335209445+338193151+340241720+340262202+339272628+337662374+335109475
3878+332828352+332617618+334551494+337268168+339646061+340840404+340006662
3868+337967084+336776610+337066715+337589142+337151032+335874379+334503459
3858+333948009+335446976+339778966+344514618+344613366+340135029+335199408
3848+332567866+333067453+335876997+338957793+340839531+342032769+343588326
3838+345019996+345184498+344150904+342433115+340159003+337952624+336985395
3828+337450767+338229054+338792389+340228307+343041924+345140623+344803472
3818+343560162+342829590+341645168+339260321+336912309+336183395+337560746
3808+339913471+341205283+341126727+341404757+342817021+344097864+344440456
3798+344422504+343903248+342329508+340548350+339924295+340542124+341623725
3788+342998544+344999920+347271297+349132436+350977603+353773240+357306518
3778+360336078+362562357+364921950+368363899+373268535+379145956+384645465
3768+388673501+390907986+391557935+391763054+393058793+395731853+398295255
3758+399183957+398800516+399245638+402739872+409799970+417625815+422657508
3748+425363241+428082533+431157044+433221877+434204846+435975326+440376184
3738+448245672+458293025+466763991+470771486+470845969+468817301+466370279
3728+465516956+467623220+471579130+474515179+474725302+472790785+470519612
3718+469281743+469085905+469449387+470558512+472489130+473931187+473688507
3708+472322882+471002470+470348040+470343501+470594444+471124930+472506499
3698+474658442+476817338+478936432+482034335+486660445+491402644+493491247
3688+491988091+488898916+486244971+484872538+485138872+486910341+489711302
3678+493577426+498396464+502372915+504285844+505394241+505985681+503864201
3668+498460298+492360039+487744956+485074398+483889888+483823378+485104453
3658+487874224+490943644+492980516+495040024+499145365+505116036+509404500
3648+508265728+502447864+495366701+489627916+486320443+485538693+486971004
3638+489810225+492590005+494164153+495144765+497573254+502487084+507484764
3628+508358715+505021827+500509739+496934390+496011094+498803908+503280035
3618+505701541+505782017+505571429+505283739+504345895+503995768+505692172
3608+508283069+509152365+507871842+506491757+506868593+508995601+511684547
3598+514432498+517377479+519771752+520399619+519672597+519922638+522826187
3588+526571509+527116863+523704037+519482782+516935295+516308650+516777543
3578+517514224+518349421+519748301+521520294+522353803+521968180+522256452
3568+524538070+526881020+526524201+523705317+520724899+519194917+519103560
3558+519679405+520823531+523085364+525977218+527535538+526718671+525149702
3548+525172512+527330885+529940926+530568792+528364625+524887732+522463200
3538+522359099+524330973+526830221+527822122+526483876+524228734+523270408
3528+524195333+525513562+525489821+523655449+520526472+516969685+514137767
3518+513020874+513563784+514759175+515744967+516297420+516253079+515371563
3508+513904426+512525680+511781782+511752804+512282214+513643387+516128146
3498+518755934+519639836+518073544+515469555+513986648+514700578+516790403
3488+518417038+518977404+519387351+519842336+519272892+517248065+514774246
3478+512925734+512062606+512144944+512743891+513010109+512444621+511545532
3468+511167474+511481000+511969211+512160074+511786088+510641264+508949399
3458+507287792+505889203+504671816+503827483+503768246+504482874+505196221
3448+505034279+504374816+504600417+505770088+506191789+505348271+504805478
3438+504992383+504020789+501045783+498151078+497583205+499009551+500126560
3428+499305620+497387455+496559764+497560569+498658900+497677763+494549194
3418+491301976+489959307+490897150+492841559+494304448+494969964+495512990
3408+496470443+497623123+498302080+498012063+496727351+494920619+493307891
3398+492483925+492603505+493154561+493269370+492650930+491921056+491622427
3388+491323622+490368729+489212617+489229433+491328685+494987130+498467281
3378+500148090+499757288+498316977+497229586+497389782+498703589+500455332
3368+502094478+503349571+504167602+505059010+506593531+508231222+508729209
3358+507828258+506670225+506669701+508199334+509940137+509978658+508214696
3348+506569556+506294843+506797136+507269346+507804866+508672998+509541014
3338+509797863+509435632+509407003+510791743+513317641+514957136+513682782
3328+509805253+505839799+503777964+503220856+502590952+501614820+501594861
3318+503213349+505308528+506377414+506233627+505326275+503700863+501715023
3308+500404882+500229847+500485998+500342095+499620484+498560152+497822655
3298+498317152+500244685+502828541+505198200+506948546+507818133+507591077
3288+506568393+505489323+504878273+504934950+505790222+507215753+508469858
3278+509166563+509839294+510903118+511746578+511587254+510516855+509172964
3268+508054441+507329339+506772697+506069940+505440967+505297879+505149321
3258+504034639+502242803+501334055+502177863+503921518+505153452+505416586
3248+505280655+505316616+505384931+504984236+504018055+502997931+502606023
3238+503186233+504307956+504885488+504251570+502790252+501187009+499719116
3228+498548456+497971912+498142117+498900154+499663603+499573409+498496492
3218+497596123+498049421+499479316+500347332+499778004+498344093+497153823
3208+496744575+496767502+496497036+495663643+494622804+493797150+493378708
3198+493440098+493716616+493357352+491737700+489550931+488200116+488195693
3188+488937787+489703738+490147376+490162040+489651716+488386148+486317243
3178+484131143+482895950+482831098+482866506+481836927+479952948+478525147
3168+478197888+478176707+477507555+476298053+475108015+474047450+473034105
3158+472178688+471544304+471018763+470589178+470380335+470310798+469980950
3148+469174819+468430485+468631851+469775773+470625517+470050632+468341339
3138+466755204+466166411+466489568+466991861+466828494+465687539+464181270
3128+463234960+463019891+462881952+462300986+461436607+460700624+460284277
3118+460146454+460053700+459696532+459121123+458807364+459030114+459419199
3108+459368924+458768377+458130530+457931318+457971382+457621050+456675759
3098+455557644+454615582+453851725+453405818+453533224+453937293+453733920
3088+452387149+450391446+448808540+448298508+448763676+449790230+451037235
3078+452151451+452782781+452870589+452627880+452234663+451795127+451356842
3068+450803342+450017926+449069434+448052802+447160317+446878592+447424208
3058+448104241+447981258+447048622+446054335+445394551+444798601+443946646
3048+442996059+442470169+442694403+443307781+443409176+442383816+440645835
3038+439343317+439183615+439763912+440202633+440112905+439720706+439410148
3028+439450357+439830248+440082064+439602232+438417926+437304030+436962398
3018+437360823+437962824+438304310+438154588+437444529+436345151+435263404
3008+434596637+434475661+434685842+434820115+434606762+434112645+433570957
2998+433059033+432472772+431772779+431069585+430459204+429953158+429558137
2988+429271989+429077286+429002832+429022442+428956804+428762945+428742463
2978+429105974+429555984+429638759+429230529+428443571+427463599+426675565
2968+426544812+427103259+427686349+427465722+426275132+424655247+423220958
2958+422379943+422347327+422874322+423315779+423380631+423284967+423008071
2948+422223936+421094358+420325090+420311299+420795495+421335903+421651640
2938+421582948+421107130+420381825+419516777+418434885+417277928+416679156
2928+417094136+418014144+418357492+417606089+416226178+415067709+414658315
2918+414938557+415389265+415427961+414804662+413699727+412534275+411708359
2908+411464341+411858867+412639889+413203602+413004156+412138876+411331697
2898+411192362+411575105+411865180+411835387+411803994+411928898+411923021
2888+411621947+411267514+410997281+410557134+409790776+409041089+408757530
2878+408906583+409095758+409198085+409453945+409928802+410296037+410221845
2868+409656008+408776675+407882328+407259815+406956268+406747513+406466631
2858+406270066+406438962+406958479+407412068+407321438+406589673+405654448
2848+405165946+405342028+405704666+405657241+405125882+404428653+403813850
2838+403361861+403080252+402918107+402854389+402977169+403279843+403500004
2828+403411439+403134078+402893842+402665040+402244183+401488444+400365732
2818+399078518+398173988+398070236+398516056+398945787+399188933+399393237
2808+399548167+399491665+399070924+398215070+397249644+396891516+397404167
2798+398062584+397975183+397128261+396161904+395476953+395014665+394667593
2788+394455724+394282435+393891808+393266938+392801857+392837701+393225507
2778+393539033+393542437+393278197+392901332+392600957+392493742+392441371
2768+392130406+391473619+390806386+390529054+390607843+390582705+390127487
2758+389470962+389102156+389140619+389183970+388773616+387895970+386959640
2748+386346961+386126771+386197238+386465697+386762610+386802382+386403259
2738+385678768+384996407+384736473+384931467+385155148+384982790+384494608
2728+384105144+384056905+384295250+384632430+384822623+384631354+384051784
2718+383398808+382993546+382773269+382430095+381910141+381495394+381403280
2708+381578256+381845434+382057099+382145228+382122272+381957595+381563214
2698+381019403+380598109+380414317+380256594+379909027+379463265+379154219
2688+379034727+379003857+379029286+379113195+379138362+378976159+378677616
2678+378433918+378399586+378513289+378451375+377955249+377195350+376524190
2668+376008746+375568977+375317743+375369299+375560190+375673660+375730541
2658+375877819+376157420+376440513+376500711+376207755+375711135+375329788
2648+375211721+375181754+374968518+374538932+374156597+374085314+374254035
2638+374291655+373946386+373384332+372975579+372888469+373031703+373279183
2628+373525500+373584854+373293003+372715645+372095547+371670500+371623919
2618+371969042+372376603+372438429+372208144+372117862+372323301+372506250
2608+372341689+371875473+371414407+371168410+371056977+370913248+370785580
2598+370839638+371057355+371258226+371318947+371208503+370944642+370637953
2588+370457128+370487998+370664080+370834489+370906062+370908099+370912754
2578+370957123+371034545+371067247+370937019+370646332+370383198+370364054
2568+370679966+371221537+371662673+371694270+371380453+371098088+371068935
2558+371155987+371147636+371037105+370942605+370876036+370688811+370244270
2548+369665487+369361329+369621059+370196700+370581305+370684505+370820610
2538+371078245+371201142+371070506+370868500+370761053+370710457+370589277
2528+370335483+370012443+369753673+369646342+369672819+369741919+369755652
2518+369666476+369511080+369418442+369555654+369972117+370471967+370741880
2508+370631377+370257741+369905897+369869965+370221227+370629632+370604174
2498+370064813+369491878+369360282+369625045+369915295+370044680+370124400
2488+370296787+370545402+370732162+370767018+370743596+370854855+371152728
2478+371450165+371486126+371179932+370726343+370394342+370232749+370112413
2468+370057482+370269437+370738708+371103354+371056250+370697859+370331380
2458+370089224+369910727+369731154+369560251+369499122+369732783+370316077
2448+370947318+371211994+371070419+370814995+370575719+370230334+369795046
2438+369524871+369565982+369795948+370049655+370278952+370477146+370616364
2428+370686279+370722212+370786162+370909350+371039607+371122964+371230644
2418+371474139+371824470+372155133+372428304+372714016+373036881+373293702
2408+373366642+373296437+373246481+373298270+373436266+373712522+374208240
2398+374843584+375440203+375983462+376710775+377984926+380181064+383688419
2388+388966835+396508861+406628835+419295336+434236909+451227748+470257409
2378+491384722+514323509+538039302+560836339+581300493+599289664+615299221
2368+628730801+638095851+643607695+647298261+649517092+648117572+641598056
2358+630149116+614231848+594741382+573172206+551548914+533214096+521833180
2348+519608297+526560802+539529832+552297525+560278125+564266564+567393446
2338+571250957+575402036+578888006+581409366+583033789+583717344+583632154
2328+583125555+581939648+579088877+573935772+567114368+560067013+553835013
2318+548513972+543577565+538357484+532340087+525358894+517629091+509479507
2308+501035309+492302140+483571242+475455641+468327373+461963486+455974631
2298+450290690+444968602+439836882+434682904+429678968+425316137+421873285
2288+419134441+416719772+414485026+412412862+410406859+408519593+407105030
2278+406347953+405870478+405136036+404020016+402783950+401791641+401327637
2268+401358361+401441514+401125078+400394594+399591169+399043517+398835401
2258+398750328+398459088+397879024+397227183+396685263+396264638+396018729
2248+396057483+396289805+396438975+396372958+396196585+396013288+395832085
2238+395722136+395824666+396137610+396450642+396588057+396614067+396682149
2228+396734375+396516774+395948843+395309804+394911059+394730467+394542689
2218+394259159+393935421+393575285+393137087+392670843+392325254+392228252
2208+392355542+392494179+392403083+392049347+391653454+391508765+391755839
2198+392254379+392685681+392887977+393016286+393235195+393435775+393500889
2188+393653463+394188284+394980508+395590336+395775234+395665430+395568282
2178+395772237+396374268+397184065+397919728+398472414+398864409+399100251
2168+399205313+399283898+399458176+399785173+400183045+400430643+400364161
2158+400073707+399823259+399809438+400008622+400192792+400153863+399985637
2148+400022587+400451969+401111433+401675669+401950296+401988294+401971477
2138+402016865+402128764+402289687+402508451+402786220+403105361+403442978
2128+403752634+403969129+404104420+404334590+404887886+405778916+406761740
2118+407629145+408385698+409037219+409447689+409575328+409678237+410068777
2108+410735311+411388723+411860060+412250396+412673784+413097231+413478839
2098+413832749+414133531+414351132+414535855+414722207+414879960+415074139
2088+415475997+416077940+416554252+416567170+416184893+415876778+416042008
2078+416611598+417173623+417414848+417358055+417263119+417419358+417951910
2068+418701044+419340200+419705922+419946537+420290496+420780017+421306546
2058+421794583+422254253+422699113+423086162+423389534+423737247+424355919
2048+425302957+426365443+427291532+428024867+428690237+429431021+430238927
2038+430914335+431284014+431469319+431826575+432604833+433742907+435013421
2028+436277534+437523463+438735642+439869119+440962649+442150155+443498381
2018+444898425+446187764+447370033+448631324+450092263+451636502+453068754
2008+454389951+455830321+457586573+459539041+461309695+462667989+463756223
1998+464844632+466098039+467644808+469514472+471394989+472828550+473766772
1988+474578838+475525323+476578033+477668391+478786041+479902672+481075456
1978+482562232+484577574+486949561+489210871+491062060+492656748+494383819
1968+496408762+498552354+500660974+502854552+505220312+507563029+509703596
1958+511748382+513839952+515914764+517885591+519891041+522212286+524914616
1948+527700273+530334521+533024456+535932428+538583085+540417632+541650322
1938+542884351+544400019+546307361+548807015+551907188+555210675+558172473
1928+560550162+562698992+565264634+568391515+571559072+574375220+576883662
1918+578951666+580277052+581112133+582116545+583619411+585534375+587593709
1908+589359999+590446575+591013401+591729600+593124872+595137421+597267979
1898+598987601+600001673+600401844+600744755+601729034+603499863+605373106
1888+606584150+607174950+607653095+608216487+608747236+609111620+609246678
1878+609282581+609520402+610010127+610496243+611083028+612315137+614041567
1868+614900738+614105169+612746905+612116768+612151799+612018311+611298621
1858+610226360+609274667+608718956+608368479+607884515+607353127+607207594
1848+607765343+608973186+610058890+609628868+607314023+604453592+602288528
1838+600998463+600162684+599269530+598152986+597261636+597123843+597493872
1828+597591630+597017298+595661711+593451317+590790185+588446886+586770208
1818+585484390+584257053+583220753+582762509+582936613+583301404+583337132
1808+582880983+582152739+581614077+581764090+582715317+583897906+584497086
1798+584333980+584121238+584821901+586638059+588254395+587992017+586375158
1788+585387795+585821018+586930695+587885530+588679354+589556796+590560336
1778+591901259+594050845+597311912+601339687+604793246+606204520+605613604
1768+604121213+602868621+602983080+604989287+607973953+610296653+611707520
1758+613220511+615046853+616665457+618351504+620923256+624212952+626838064
1748+627864821+627757112+627469655+627780214+629137954+631275029+633259065
1738+634906764+637468799+641681500+645406455+645609014+643295857+641121773
1728+640086928+640248695+641469631+643284393+645360369+648381869+653470908
1718+660058680+664621509+664323229+660906620+657793704+656967469+658620929
1708+661727153+664743765+666545900+667666750+669883022+673962178+678162252
1698+680443288+680696239+678857852+675565304+673162826+673206643+675421284
1688+679150371+684671934+691662786+696447318+695939031+693021166+691279199
1678+691729879+693785372+695948225+697029098+697525282+698398418+699278014
1668+699349122+699436523+700944567+703581899+705412023+705506057+705509607
1658+707382442+711816905+718730365+726276754+729276084+727254865+726013329
1648+728002370+730979820+731138853+728704487+726724408+726748149+728958717
1638+733147852+737906373+739906295+738082280+736210201+737512371+741933158
1628+747189608+751540801+755792956+761117895+766439634+770219113+773368107
1618+778078912+784806514+791064875+794891837+797032403+798457701+799247452
1608+799514601+799810437+800542522+801738029+803133011+804107805+804248973
1598+804193867+804895519+806009852+806242261+805562838+805679334+807883153
1588+811378491+814062375+814771184+814286696+814135170+815222038+817804904
1578+821660088+825050336+825073321+822258743+820513169+821943239+825041608
1568+826793001+827088081+828308144+831943022+838205398+847026374+856747429
1558+861973446+861228036+859505621+858899866+858441855+856983272+854562930
1548+852620674+853023987+856518569+862147084+867845776+871017813+869433715
1538+865082987+862747020+863942644+866076693+865194944+861480288+858682295
1528+858632077+860373869+862264395+863758415+865524472+868614578+873115842
1518+877554495+880137943+880206665+878882791+878431530+881013348+887502664
1508+896465216+903581351+905516973+904724254+904337584+904998910+906878437
1498+910119603+913139416+913817442+913089606+913581192+915879103+918408144
1488+920383103+922646333+925216805+926784959+926551793+925414184+925287447
1478+927782505+933383380+941137739+948931900+953750764+953422923+949626685
1468+946371903+946693750+950434416+953717887+953555770+951713775+951365568
1458+952886472+953672441+952791565+952115924+951811243+950439072+947701886
1448+944889695+942315440+938772793+934472458+931598120+931853398+935024678
1438+939359404+942181313+941928130+940293639+939373136+939170578+938809977
1428+938279519+938131717+938063170+937425935+937105368+938688651+941992371
1418+944793507+945702721+945223354+943508271+940986562+939419688+939644650
1408+940091023+939230688+937801375+937740101+939821488+942761348+944389321
1398+943891392+942997482+943997414+947290427+951488174+954907051+956056007
1388+953651841+948319337+943627735+943005978+946601170+952169692+957817875
1378+962685559+965669294+965953958+964830781+964678789+966223144+968392863
1368+970086009+971011051+971813196+973571107+976669184+980832192+985976627
1358+991705403+995959652+995962677+991552829+986146192+983354715+984167043
1348+987741637+993212167+1000198538+1007796251+1013705881+1015927098+1015258964
1338+1014966270+1018032285+1024563962+1032056352+1037912330+1041035837
1330+1041412208+1040094909+1039268267+1040516203+1043601421+1047495359
1321+1051011064+1052263190+1050007641+1045953914+1043614339+1044804202
1312+1048977451+1055087602+1062154508+1068765905+1073190650+1073741823
1304+1070422217+1065855955+1063009431+1062637250+1063549432+1064564144
1295+1065624360+1067489107+1070047243+1071543765+1071098730+1070055506
1287+1068413159+1063262673+1053630066+1043667990+1038637490+1039996103
1278+1044360214+1046337268+1043810438+1038860473+1034209720+1030620928
1270+1027112787+1023452423+1020896265+1019846174+1019339342+1019551967
1261+1022219499+1027385814+1031772735+1032051231+1028553099+1023820880
1253+1019292674+1015284800+1011567875+1007004871+1000567694+993184585+986718545
1243+980343049+971145178+958956182+947258364+938449899+931646592+925579850
1233+920217553+914996482+908830469+902174207+896400451+891481966+886475092
1223+881490853+877472854+874691038+872546980+870362539+867915662+865742509
1213+864797509+865141642+865739483+866115680+867080290+869114195+871031196
1203+871374690+870635216+871053425+874446583+880527464+886882245+891142604
1193+893158412+894425667+896078429+898331941+901224144+904825505+908797126
1183+912634504+916639294+921890565+928537167+934844698+939120069+941781666
1173+944067940+946091836+947226360+947351643+947742503+950569242+957221838
1163+967096804+978058871+988170611+996198462+1000809298+1001258173+998687119
1153+995473186+993972124+994901996+996345100+996875441+998483455+1003208459
1143+1008851812+1012484246+1015288291+1019210393+1022720629+1023518875
1134+1022553159+1022206116+1022734129+1023181259+1023014138+1021455236
1125+1018692622+1017626703+1020464382+1025053105+1027585986+1027861922
1117+1028550888+1030462303+1033387383+1037101399+1037294472+1030135859
1108+1021218404+1019498083+1026883287+1037648847+1045606289+1049007477
1100+1049839938+1052747561+1059248282+1062254478+1055466882+1044397572
1091+1036694187+1032207296+1027793607+1023838919+1022979806+1026240175
1083+1032054955+1037873576+1041086346+1040263776+1037759291+1036616446
1074+1035035431+1031992459+1031872007+1037235351+1043381347+1042932239
1065+1034229970+1022563400+1014724084+1013912221+1017698858+1020770343
1057+1020451231+1017905548+1014446868+1010288167+1006787940+1006246543
1048+1008415390+1010107197+1009671472+1008842036+1008655946+1007704661
1040+1005767525+1004617232+1004319999+1003956080+1005594818+1012054690
1031+1020044485+1020406774+1010617870+999837064+996336954+999476055+1003454950
1021+1004690667+1004205714+1002598631+999035326+994668189+992007989+991783144
1011+992827533+995217849+999678090+1004016248+1003971209+998171558+989916884
1001+982825655+977518638+972586537+966605450+959295078+951375111+943494829
991+936112128+930327373+927295632+926659676+926573847+925137434+921466304
981+916250179+911324014+908265330+907309332+906963743+904991403+900697702
971+895696704+891873350+889745586+888983999+888913589+888327328+886345387
961+883394064+880296801+877292757+874908260+874186998+875110062+876418224
951+877417109+878981248+882120058+885928109+887786513+886355454+884166823
941+885853509+893779761+905553109+915592810+920132130+920510887+920568495
931+922465246+926885511+935393892+948787415+963774987+974446629+978166289
921+976677796+971646017+964423919+957391286+952835614+951666060+952784058
911+953393421+951345434+947772354+946172312+948478777+952874485+956098369
901+957281715+957833062+958105565+956656932+953757165+952538440+954882786
891+958787082+961099425+961346847+961010918+961271142+962873978+965459288
881+966635534+964163461+960203711+960468939+967872415+978649613+985765747
871+986605774+984489065+982143555+978744578+973543641+969086892+969286599
861+974937226+982466275+987092123+987979749+988106835+988998069+989982871
851+991039829+993475533+997640403+1001462884+1002882131+1000908569+996134453
841+992469201+993520805+998896835+1004665994+1005894728+1000886690+993244287
831+988750995+990901105+999008792+1008931649+1015431671+1016158111+1013171699
821+1009978365+1009222015+1011908052+1016970788+1021912025+1024819531
813+1025364071+1024159078+1022899620+1024560005+1030775596+1038623176
804+1042030415+1038936934+1034286181+1032798852+1034160724+1036345165
795+1039830961+1045902823+1051757289+1052801910+1048882369+1041514505
787+1030507691+1018092919+1010328434+1010187499+1012462832+1009153468
778+1000070405+991612066+987655516+987557641+987900145+985073755+979876484
768+977857651+982100378+988848056+993451792+996800726+999805292+999971133
758+996932933+994290887+994281926+995415694+997115066+1001033444+1006359780
748+1009201998+1007060501+1002518911+1001836346+1008093251+1016170680
740+1018189513+1014374248+1011647595+1012927884+1014178847+1012112763
731+1010150257+1012588173+1019720834+1029989221+1040434505+1046440729
723+1046890303+1045449293+1042405622+1034969212+1025416441+1018488725
714+1014255890+1009085037+1002170471+996689234+995089832+997729782+1004333964
704+1015170399+1028414142+1038245292+1038703012+1028888155+1014155571+999720685
694+987204895+977055797+973883760+981524416+994409711+1001749643+998234403
684+987934128+977782470+969745483+962466592+956757251+954609702+954426695
674+951831842+946340131+941281642+938918209+942324925+952298116+963098241
664+970127906+972671668+971358792+969514412+972630179+983463530+997806244
654+1007113686+1004991275+992726283+978712574+970498458+968290624+968884043
644+971025598+974260014+978002776+980437898+980317329+979248268+980850463
634+985118911+987335240+981627645+970942329+966145286+964931624+956167964
624+942526960+938673289+950612361+967405791+971249338+960233736+946849931
614+941073614+941859000+938273700+924688966+908905708+900926096+900360376
604+895958209+881020331+862950917+853235099
##END=
