##TITLE=<SNM>
##JCAMP-DX=4.24
##DATA TYPE=INFRARED SPECTRUM
##DATE=29/4/2025
##SAMPLING PROCEDURE=Instrument type and / or accessory
##ORIGIN=Admin
##XUNITS=1/CM
##YUNITS=ABSORBANCE
##RESOLUTION=4
##FIRSTX=4497.3318
##LASTX=599.83466
##DELTAX=-1.4281778
##MAXY=2.2455378
##MINY=0.69260436
##XFACTOR=1
##YFACTOR=2.09132e-09
##NPOINTS=2730
##FIRSTY=0.70316899
##XYDATA=(X++(Y..Y))
4497+336232134+335469106+334272606+333004228+333021785+334892132+337722563
4487+340216312+341792900+342557923+342465267+341292480+339630275+338616981
4477+338540826+338738879+338862060+339165311+339532888+339336573+338393020
4467+337437268+337372343+338429900+340180088+341622123+341611292+340125964
4457+338618833+338317777+338812839+338873945+338032055+336911511+336450337
4447+336962243+337751919+337891488+337331273+336602076+335900439+335420226
4437+335824570+337412387+339327168+340102223+338934253+336465328+334283750
4427+333497722+334164274+336036132+338786504+341397991+342429156+341265633
4417+338593809+335672973+333731658+333564186+334971365+337007189+338796793
4407+340039464+340848806+341106198+340552196+339758188+339878633+340831335
4397+341037140+339784523+338226460+337314315+336649131+335940198+335903517
4387+337059317+338724714+339573388+338853140+337022864+335308788+334699437
4377+335288951+336255248+336346365+335062226+333696260+334242139+336902020
4367+339616880+340537319+339947577+339049141+338167862+337152800+336631119
4357+337581683+339723759+341473462+341766737+340721863+338467265+335140147
4347+332078060+331180479+332945829+336094189+338884861+340311078+340370873
4337+339631102+338666031+338049213+338411204+339758131+341078068+341252522
4327+340113680+338409151+337157332+336959621+337604398+338462790+339298182
4317+340281466+341427461+342643312+343815187+344435567+343837902+342104530
4307+340139816+338784224+338238602+338077144+337614545+336636762+335797608
4297+335759530+336214149+336421722+336275170+336174077+336427878+337150720
4287+338047132+338443068+338138877+337588922+337024660+336318178+335684145
4277+335553868+335953394+336576340+336977861+336699179+335725557+334807228
4267+335001861+336671476+338898912+339995886+339029048+336889964+335399164
4257+335395944+336127107+336626558+336996843+337870255+339305763+340727249
4247+341629048+341873216+341422644+340386691+339386450+339176426+339618733
4237+339699875+339001202+338284032+338377173+339195037+339870881+339585700
4227+338407983+337396113+337401300+337874217+337730657+337016737+336578164
4217+336607862+336675780+336631062+336509334+336317665+336474449+337428604
4207+338708868+339423130+339517469+339691809+340397550+341410275+341993006
4197+341472977+340112711+339009952+338773394+338916269+338682447+337799915
4187+336656684+336130015+336671447+337523284+337514421+336521903+335564014
4177+335612637+336659050+337712046+337783413+337057807+336544675+336654147
4167+336979172+337311351+337892115+338582095+338566847+337492161+336344798
4157+336300023+337116576+337645839+337698565+338231134+339530579+340345222
4147+339407398+337095713+334901423+333853842+333997173+334931064+336282865
4137+337635037+338387918+338096667+337057408+336213921+336335364+337405262
4127+338757889+339598924+339452914+338466809+337395315+336958851+337166566
4117+337538162+337827817+338150591+338624904+339203359+339528613+338909914
4107+337158729+335416293+335145848+336377488+337872279+338778040+339102837
4097+338740732+337287524+335055215+333309758+333094462+334157947+335264184
4087+335484724+334907323+334272008+334370792+335620702+337676078+339463858
4077+340004693+339173177+337688818+336557871+336223897+336249434+336104193
4067+335981895+336398864+337220234+337632956+337104064+335972034+335034779
4057+334733496+334773597+334723606+334667003+334824613+335127664+335638515
4047+336760656+338469688+339937031+340460737+340279841+340103648+340393759
4037+341143335+341847879+341939224+341513591+341152598+340828713+339898755
4027+338556530+338022479+338764302+339722619+339816273+339189308+338506112
4017+338123030+338197304+338511926+338328665+337301233+336150934+335859483
4007+336595407+337744566+338730528+339557712+340414052+341033293+340922766
3997+339981692+338539059+337210486+336748771+337264068+337830411+337839702
3987+338100173+339419055+341027592+341502191+340565848+339305478+339103948
3977+340493798+342533698+343401866+342142693+339717004+337891859+337308302
3967+337096739+336391625+335608247+335766741+337155166+339160238+340833273
3957+341287521+340176297+338195508+336903559+337687592+340399118+343063189
3947+344046529+344204168+345133983+346288330+345821598+343636685+341424126
3937+340410546+340815545+342570948+345222564+347313994+347198765+345072108
3927+343035315+342790035+343979609+344965885+345080858+345335172+346795504
3917+348834521+349390546+347369713+343941446+341186400+340477296+342002012
3907+345265145+349778330+354869173+359050579+360573271+358744307+354381208
3897+349299656+345451798+344096263+345224160+347354665+348879267+350253156
3887+352946241+356368752+357856930+356854009+355504745+354413785+352604315
3878+350986572+351501100+354018106+356941849+359624047+361832558+362240464
3868+360749008+359451787+359253249+358482925+355668483+352188714+350700194
3858+352686768+358431908+367056985+373636605+371668271+363593034+355541625
3848+350621417+349582044+351470233+354493872+357856360+362133500+366903764
3838+369335580+367569575+363547746+359835296+357008256+354649687+352827848
3828+351862919+351842712+353432867+357773764+363766092+366925396+365501032
3818+362868597+360406142+356550303+351916245+349206572+349732501+352951998
3808+356851957+358959347+359598054+361528481+364964244+366323855+364197397
3798+361328119+359135454+356694660+353875601+352122535+352541186+354811088
3788+357679625+359894635+361153551+362579796+365522122+369515051+372294408
3778+372800272+372668569+373803478+376881611+381791102+387447233+391946852
3768+394606505+396232486+397213090+398044691+400312969+404586233+408586515
3758+409811002+409506184+411124840+416588732+424803937+431566703+433988316
3748+434968664+438267680+443508922+446611538+446333169+446089286+449022178
3738+456267666+466510116+475542899+478857362+476254283+471767034+469230989
3728+469925444+473004603+476730050+479680128+480847870+479308418+475405296
3718+471554074+470457186+473243213+479046038+484702398+485819293+481339169
3708+474981401+471213545+472339590+477220494+481506470+481765202+479515164
3698+478236611+479177314+481718403+485604453+491221880+497481320+500523684
3688+497749799+492038946+487539555+485636374+485820034+487434272+490606202
3678+495542399+500573618+502809975+502329904+501511755+500528130+497750255
3668+493780469+490955795+489590428+488111854+485842094+484197018+485056323
3658+488695725+493134865+496191765+498199202+500930279+505038009+507922991
3648+505844758+499577338+492634502+487675505+485480873+484986666+484496165
3638+483497947+483078811+484358049+487434329+492223233+498617482+504075418
3628+503878761+498520750+493332377+491571131+493372620+496623839+498017024
3618+496379757+494532894+495282812+498022496+500399591+501941892+503714253
3608+504990926+503827288+500834629+499064320+500197291+502608188+503909086
3598+504390581+505737480+507632224+508152196+507538114+508812734+513490028
3588+518478553+518982678+514666092+509349579+506245253+506398417+509119690
3578+512503325+514728053+515501627+515945387+517451663+520781374+525073392
3568+527372508+525319754+520781260+517020158+514532480+512340242+510446638
3558+509501090+509683667+510723952+511924812+512460174+512691146+514199645
3548+517622897+521406457+523061679+521474062+517767283+513956589+511355021
3538+510168811+510280648+511709174+513919253+515667502+516086011+515469136
3528+514647225+513825314+512551890+510680631+508500820+506027107+503162190
3518+500662256+500027938+502118313+506218975+510342495+512363157+511684264
3508+509796816+508389438+507577161+506618502+505475898+504715093+504443308
3498+504503445+505061950+506222509+507414648+507658217+506573869+504808804
3488+503497019+503282293+503555446+503121661+501586827+499782260+498958012
3478+499646367+501222300+502277291+501674667+499809165+498248395+497786907
3468+497849951+497876229+498197834+499051951+499716765+499396870+498259795
3458+496944133+495575346+493879139+492136989+491354808+492055533+493251662
3448+493184856+491341071+488921738+486945595+485334777+484137508+484023276
3438+485008954+486029688+486249829+485654615+484472452+483288921+483139290
3428+484365573+486168088+487861274+489456131+490575649+490271601+488582063
3418+486999633+486627068+486899309+486645366+485518209+484083642+483070717
3408+482846414+483176798+483409651+483230038+483009269+482949360+482370676
3398+480619292+478436061+477563646+478843055+481253552+483145390+483965648
3388+484315810+484875512+485792104+486684184+486941263+486486729+486061153
3378+486342001+487151144+487926655+488449135+488751986+488781399+488595630
3368+488553505+488871918+489289913+489589858+490122199+491381371+493245620
3358+494874108+495633545+495987755+496814853+498063993+498879862+499025274
3348+499183625+499738938+500229953+500106487+499232761+497675867+495803468
3338+494699853+495561038+498109082+500273958+500348688+498981098+497836385
3328+497210275+496503166+495813386+495372761+494715643+493687841+492908453
3318+492570717+492108659+491329671+490933678+491552491+492731462+493149457
3308+492136704+490758169+490544241+491476793+492132828+491523078+490034416
3298+488719837+488262054+488670302+489560388+490299247+490180398+489309408
3288+489086473+490829023+493940872+496370808+497099521+497186221+498043188
3278+499712603+501254107+502002599+501902105+501221616+500385169+499549350
3268+498174406+495777076+493155500+491902369+492768057+495103997+497583638
3258+499046365+498944844+497519853+495565599+493793408+492447992+491492981
3248+490853134+490380018+489979124+489898637+490435424+491302367+491782950
3238+491537044+490818876+489981119+489268994+488885314+488812750+488867529
3228+489112922+489694171+490194420+489962251+489180299+488672753+488675489
3218+488769828+488720977+488405585+487511453+486323761+485785035+486034647
3208+486106583+485458813+484412258+483049398+481271850+479730005+479328597
3198+479974372+480622199+480448913+479568575+478673816+478252913+478163192
3188+477916517+477388052+477025491+477144625+477310728+476801844+475474297
3178+473859888+472638223+472149802+472123581+471859947+470967895+469810813
3168+468959489+468564380+468395968+468059913+467223267+465943801+464670977
3158+463934768+464155793+465439933+467185902+468127859+467443779+465617380
3148+463720897+462382491+461657170+461235926+460699737+459984648+459362899
3138+458834805+458114984+457240974+456570118+456280206+456348836+456657103
3128+456741523+456003804+454518362+453129994+452606004+453039333+453958261
3118+454713394+454928918+454779203+454658159+454527995+453850584+452290527
3108+450156403+447954304+445951883+444459373+444021398+444850748+446327184
3098+447357779+447214590+446135714+445124186+444870043+445022096+444986584
3088+445057693+445797294+446615528+446242963+444559326+442788361+441993668
3078+442307065+443265239+444150422+444336049+443770732+442897662+442142985
3068+441749871+441731744+441705780+441157792+440030322+438728683+437665996
3058+437052370+436874267+436885240+436779872+436451456+435980791+435446911
3048+434884529+434352844+433972498+433900704+434178389+434559761+434624430
3038+434201789+433601131+433236632+433131663+433042455+432880541+432724356
3028+432671344+432855431+433233240+433260231+432340932+430775915+429686181
3018+429748227+430440630+430777739+430445504+429807880+429109863+428316937
3008+427527518+426956586+426609986+426322468+426033411+425871497+425986926
2998+426292941+426436158+426178453+425676779+425237408+424973945+424749585
2988+424300837+423508568+422635839+422072461+421845565+421693056+421510479
2978+421358027+421184656+420935586+420828764+421126143+421610831+421717453
2968+421371337+421224956+421679746+422087110+421500104+420031278+418767175
2958+418391874+418523093+418448192+418013153+417569479+417379320+417363331
2948+417318841+417168413+416923732+416487354+415723728+414818765+414325869
2938+414600105+415276091+415599976+415315622+414931885+414921368+415010320
2928+414666655+413944270+413279684+412738166+412039008+411202705+410720212
2918+410946538+411474632+411439747+410620971+409763235+409543521+409746818
2908+409771870+409535198+409371945+409302345+409017108+408520763+408160540
2898+407884793+407109709+405710482+404523902+404350217+404925765+405381325
2888+405409284+405381866+405462097+405277695+404650788+404148743+404493634
2878+405592203+406531424+406588854+405906085+404997474+404064381+403145481
2868+402486880+402268221+402260640+402161485+401986375+401875991+401878556
2858+402069598+402445440+402690577+402560128+402386842+402623372+403042364
2848+403019906+402449459+401772532+401316659+401125218+401181023+401399312
2838+401546605+401352542+400666524+399623132+398689982+398260130+398162087
2828+397882122+397227169+396469528+396003110+396112639+396789708+397579042
2818+397966684+397984212+398003222+398052130+397862940+397418895+396907360
2808+396344694+395753071+395443066+395621909+395940579+395868300+395375176
2798+394908844+394748839+394674851+394310010+393603100+392866521+392398735
2788+392184208+392013060+391800129+391661016+391707273+391840116+391737712
2778+391174105+390446504+390185635+390518041+390815563+390552300+389923369
2768+389332601+388859684+388523572+388524142+388903376+389295635+389247582
2758+388667787+387896237+387410467+387448288+387783174+387865969+387332146
2748+386406292+385672734+385469921+385655463+385858162+385784914+385387012
2738+384866527+384480254+384338747+384435593+384752866+385174879+385390062
2728+385140735+384588159+384171873+384049034+383928960+383510651+382837088
2718+382200176+381871076+381823536+381632751+380920511+379929134+379282304
2708+379222851+379476367+379776426+380122342+380523122+380797444+380730524
2698+380277701+379539412+378702053+378110829+378145116+378800068+379567057
2688+379870507+379498712+378663092+377861731+377567857+377799370+378061209
2678+377866234+377253890+376701000+376553907+376635248+376474617+375855804
2668+375005136+374340236+374197561+374651496+375416091+376024672+376195307
2658+375984486+375647348+375377615+375111900+374681564+374205769+374011449
2648+374048387+373844035+373246797+372744239+372821306+373388304+373979243
2638+374216514+374030317+373655814+373395315+373282452+373120595+372857360
2628+372644457+372543934+372473452+372425427+372509277+372755269+372985443
2618+372943689+372615814+372328410+372387208+372745123+373154739+373433307
2608+373434561+373026684+372307718+371686369+371589751+372053889+372611681
2598+372706276+372245871+371589323+371071432+370811019+370855908+371205785
2588+371742915+372304469+372777158+373095343+373224680+373150863+372854253
2578+372332571+371681609+371102811+370768666+370713118+370887487+371230638
2568+371631618+371955760+372178723+372346366+372406731+372283835+372039296
2558+371752349+371411049+371094632+371002574+371158502+371297673+371156564
2548+370777102+370457749+370423206+370592245+370730076+370746549+370727625
2538+370765674+370865484+370955262+370938731+370763707+370460827+370140248
2528+369938490+369916972+370019632+370167951+370328212+370459231+370513953
2518+370533704+370645827+370917726+371221261+371310926+371131312+370952782
2508+371041876+371335351+371598101+371723933+371747731+371749470+371816732
2498+371953508+372033169+371947153+371738212+371516076+371347293+371290319
2488+371399820+371582483+371589323+371326801+371061001+371124558+371518470
2478+371962315+372229911+372294494+372230310+372102996+371929967+371685229
2468+371357468+371022866+370831995+370897006+371214165+371681353+372089173
2458+372139648+371711478+371132823+370937449+371287469+371823601+372104792
2448+372028067+371786635+371579148+371460157+371408712+371420198+371465030
2438+371415638+371157961+370829231+370778442+371138067+371583195+371709369
2428+371520693+371359748+371489712+371897304+372378828+372701117+372760599
2418+372672958+372694220+373003285+373500740+373845716+373787261+373458787
2408+373275953+373539559+374132635+374616781+374703253+374593924+374695302
2398+375095227+375595562+376178720+377124838+378721975+381212589+384999855
2388+390585788+398263721+408071417+420075369+434496802+451409334+470341871
2378+490306030+510374531+530236342+549970355+569224355+587060033+602892264
2368+616634405+627128518+632305947+632483052+630701742+628530481+624564514
2358+617027148+605171315+588595494+568037632+546946574+529990037+520148995
2348+518373669+524357618+535766157+547529818+555342446+559573757+562985722
2338+566831357+570565155+573757149+576634721+578897299+579475470+578048141
2328+575619859+573191975+570847942+568037575+564111396+558811527+552635082
2318+546530118+541035986+535838264+530234860+523912889+517130628+510255054
2308+503353944+496294368+489056946+481771985+474587261+467692307+461282753
2298+455354723+449749238+444440647+439511519+434891199+430445732+426266692
2288+422603548+419564974+417018327+414749279+412683558+410925561+409582909
2278+408658737+408087919+407679386+407091981+406149910+405127039+404447035
2268+404139395+403799949+403098426+402190613+401504794+401163381+400820999
2258+400153364+399319311+398757785+398638395+398699900+398603937+398294531
2248+397953716+397713681+397534068+397331397+397110971+396938312+396871705
2238+396961284+397218961+397550655+397819476+397978854+398031752+397919230
2228+397616692+397283060+397137705+397192683+397205024+396934692+396422017
2218+395929834+395605664+395357278+395094470+394860477+394653760+394386022
2208+394071371+393826006+393702569+393681820+393730585+393762734+393674695
2198+393491006+393372784+393473706+393866250+394547138+395401568+396206208
2188+396745332+396921781+396793955+396590116+396635660+397095039+397769315
2178+398283301+398485829+398560103+398756930+399134169+399563650+399913158
2168+400171148+400389380+400578627+400742650+400942898+401196385+401365966
2158+401300984+401066278+400899519+400962022+401244979+401679990+402191895
2148+402650134+402928560+403039970+403079672+403053024+402932607+402851322
2138+403040654+403565557+404242170+404813871+405144767+405259768+405255579
2128+405220123+405256462+405497666+405984633+406552715+406932461+406992599
2118+406894954+407015285+407643903+408696386+409754371+410443439+410721922
2108+410779323+410784481+410840628+411073766+411600350+412408352+413327908
2098+414120605+414645479+415003907+415426776+415936601+416279639+416300046
2088+416172418+416141352+416257522+416491772+416870607+417352672+417770468
2078+418049008+418331680+418759451+419233337+419519087+419584469+419723610
2068+420217162+420936156+421520625+421903421+422312439+422814711+423249066
2058+423537496+423751652+423953895+424167595+424428465+424788061+425301449
2048+425974614+426757421+427669908+428801454+430054784+431061552+431523040
2038+431559891+431617406+432046945+432827871+433714992+434551952+435349124
2028+436228892+437373861+438797969+440199789+441345015+442457978+443876613
2018+445507154+446968598+448095441+449017589+449937601+451027421+452344707
2008+453751657+455080629+456369899+457769667+459296806+460854840+462399307
1998+463982650+465732524+467764842+469965345+471961239+473494506+474638050
1988+475518673+476206857+476983452+478209478+479790484+481225678+482308316
1978+483392607+484873289+486703336+488524377+490164950+491939819+494334927
1968+497303588+500112244+502164086+503647390+505061038+506622891+508382541
1958+510328017+512193747+513688338+514981940+516570755+518740192+521423615
1948+524434343+527691377+531235871+534847400+537726682+539246866+539994219
1938+541202318+543364458+545985863+548442647+550617042+552724347+554887456
1928+557146785+559821259+563311716+567289311+570768595+573393648+575676690
1918+577723230+578980465+579388827+579641117+580500706+582470750+585360692
1908+587988937+589322839+589788659+590546158+591995660+593742769+595507720
1898+597362050+599216779+600664628+601640444+602741836+604221093+605240744
1888+605097042+604508383+604574049+605453589+606717949+608004198+608961944
1878+609265137+608917426+608395858+608649688+610731113+614791703+619112165
1868+620804552+618818149+615177036+612363193+611131381+610787488+610583535
1858+610422619+610413897+610361285+609927272+609103480+608352251+608327912
1848+609501524+611736456+613728161+613518166+610909358+607819454+605558815
1838+603851208+601980632+600055905+599183946+600233808+602347040+603409158
1828+602801574+601753593+600513459+598101992+594665574+591574815+589531808
1818+588162052+586981086+586123833+586152220+587124901+588027356+587749472
1808+586562064+585770421+586274547+588004441+590107699+591394631+591254236
1798+590350869+590043002+591306335+593956811+596045932+595219917+592030089
1788+589253354+588438967+589130629+590384443+591952965+593683430+594978742
1778+595813023+597449035+601379661+607577367+613346134+615331683+613603213
1768+610541468+607941153+607104536+608668327+611365887+612893368+613166806
1758+613990427+615716560+617456886+619671924+623829930+629647149+634282546
1748+635626481+634771851+633947489+634450417+636423539+638841732+640060889
1738+640356730+642632190+648545400+654378009+654545138+650502219+646398422
1728+643564513+642427724+643395161+645758119+648559935+652557595+659194900
1718+667185660+671477165+669335488+664002216+659207042+656630611+657057556
1708+660623084+665914232+670342883+673361592+677397557+683804574+689587934
1698+691309107+689517251+685418698+680639086+677941583+678336493+680496125
1688+683590817+689227111+698098494+704616266+702854906+697012208+693003604
1678+692489446+694629983+697401759+699359776+701302231+703964050+705271902
1668+703137066+700256416+700620601+704319970+707525531+707244112+705579542
1658+706412226+711714831+721628950+732796256+736737427+733647523+732227206
1648+734084557+734384843+729698942+723793941+720919903+721661669+725718782
1638+733235513+742140812+745641985+740642915+734170345+732353864+735516560
1628+740894122+746292149+751946912+758117884+763173044+766487536+770415197
1618+776874372+783603336+786163407+785294584+785347994+788293512+793024673
1608+797225488+799656278+800826756+801744202+802788706+803476833+802917245
1598+801048209+799417839+799610620+801319994+803195358+804823903+806658681
1588+808926218+811316651+812972159+813210712+812897714+813824566+816705386
1578+820852334+824857290+827420325+829126393+831928038+836080345+839344902
1568+840247129+840703829+842769237+846560550+852471821+862771501+877170361
1558+883824368+875178087+863228657+856810752+856066648+857332205+858232608
1548+860257431+866025115+875610731+886337242+895236327+899123631+893725263
1538+882267246+873778803+870988444+870412611+867489950+862707716+860239646
1528+861988580+866456619+871517878+877224399+883638599+887901603+888625869
1518+888900847+889919927+889189846+886437394+885258081+888442722+895784457
1508+905050407+911921250+912986160+911290181+910793352+911601070+912473541
1498+913677080+915785981+917690245+919367241+922852283+928097943+930672720
1488+927159691+921021210+917600295+918566877+922364859+926271373+928721772
1478+930725390+934539390+941095410+948208796+951382379+949546518+947646472
1468+949330081+952085954+950384275+944260101+940363392+942447382+948612313
1458+954076746+953741347+947864675+941782398+938380978+936912437+935292670
1448+932485097+929200588+926197954+923442652+921611465+922814719+928400395
1438+936079696+939777241+936280571+930599587+928287702+929780982+932185438
1428+932900584+931697843+929894530+929562152+932725987+938837507+943606745
1418+942709249+937383273+931921804+928459221+927394482+928163267+929249382
1408+929755787+930304146+931528491+933192890+935178724+937702883+940470213
1398+942646205+943349438+942230376+939877165+937438280+936074452+936450266
1388+938330874+939969451+939567417+937929181+937512041+939480831+942757074
1378+946033260+949948096+955826592+962457399+966501344+967096673+966623557
1368+966992473+968579977+971506342+974596303+975049469+972340737+969508881
1358+969306296+971672902+974784068+977877107+981610050+985375826+987549879
1348+988438540+989667159+991764717+995055894+1001072791+1010496579+1020572925
1338+1026499872+1025951514+1021332419+1017427102+1017181538+1020204237
1330+1024190040+1026948136+1027867349+1028195224+1029502050+1031687961
1321+1033578943+1035422271+1039331578+1046300293+1053787839+1057252303
1312+1055156228+1051650381+1051620170+1055390848+1059930368+1062268929
1304+1061517530+1060524898+1063583508+1070151385+1073741823+1069984711
1295+1061987910+1055600387+1053938438+1055921992+1057209209+1053605775
1287+1045701431+1038896767+1037547076+1040808498+1044329736+1045100744
1278+1043667031+1042034382+1040997289+1039893503+1038489318+1037283841
1270+1036098314+1033829979+1029577179+1024197450+1019896768+1017811409
1261+1016540608+1013464784+1007872324+1001903651+998900675+1000287076
1253+1003649848+1005087209+1003348878+1000005486+996101994+991567148+986525669
1243+980563608+972438780+961803701+950568733+941572118+935110549+928672979
1233+920472395+911729666+904996255+901145148+898948464+896921133+894206872
1223+890170508+884708810+878573122+873375514+870660284+870263665+869976660
1213+867381134+862590862+858566354+858012637+860538906+863582297+865739763
1203+867683415+870058971+872582446+875276016+878934172+883981865+889925912
1193+896016512+901537093+905447996+906748666+905585712+903394672+901808137
1183+901764645+903881525+908670714+915184382+920513835+922680878+923561672
1173+926866188+933845391+942159694+948593673+951853101+952596634+952627871
1163+954452617+959553150+966751583+973468121+978265404+981346587+983471619
1153+985199006+986937793+989347492+992516116+995276378+997303481+999372765
1143+1001765934+1004463722+1007552201+1010425782+1011107868+1008157789
1134+1003322999+999967067+999128911+998343994+995415463+992555675+994355341
1124+1002452010+1012951424+1019547802+1020130704+1017696265+1015081815
1115+1011959476+1008474834+1007304584+1010597016+1017673579+1026614560
1107+1037023456+1048568400+1058566198+1064071787+1063602889+1057203623
1098+1047680082+1038864618+1033038678+1031410475+1034902300+1040857862
1090+1042147816+1035866317+1027579375+1023144396+1023482988+1027168619
1081+1031961798+1034780202+1034920540+1034547634+1033884131+1030152328
1073+1023393951+1018976301+1021358526+1027883423+1030775702+1027259936
1064+1023732770+1026633713+1034020594+1037365809+1030864397+1017469740
1055+1005028155+999259217+1001329983+1009498589+1020204009+1028383672
1047+1030982505+1028614302+1023043389+1016959230+1013270407+1012077014
1038+1010702698+1006579976+999154448+990584092+985308677+986829831+993770045
1028+999783521+998949697+991736444+984058739+981500720+985509324+992268614
1018+995129313+991921472+987605399+988245417+994154352+999055834+997460692
1008+990831025+984121441+980333548+979815401+981299617+981648355+977325442
998+969014902+961748067+958733805+957884248+954781632+947361405+937005408
988+926983954+920921513+920633482+923896444+925540038+922548121+916752962
978+911064168+906097647+901538575+898018990+896008247+894425132+891949481
968+888853250+886223523+884029974+881647407+879373771+877810094+876455443
958+874119960+870716716+867608343+866211397+866969523+869498072+872886438
948+876301310+879498320+882497363+885383941+888774416+893415286+898929026
938+904118369+908761803+913422396+917601778+920455351+923065869+927281048
928+932393381+935969910+937785365+940384881+945830504+953192076+959116972
918+960505767+956951126+951187489+947355306+948106877+952219908+955250416
908+953616570+947879952+941265276+936721196+935769948+937777385+939917237
898+939740588+937914018+936779566+937501495+940244999+945528109+953333498
888+961782268+968537340+972514821+973949331+974154538+974275040+973985813
878+972227417+969053207+966029368+964604092+964404585+963198082+959579941
868+955979129+956510843+961401267+967020860+971236837+974527445+977616380
858+980999331+984928246+988895239+992238631+995076643+997824364+1000294144
848+1001617273+1000264845+995368949+989915004+989400504+995719853+1004069839
838+1006264413+999823080+991546057+987710511+988618210+991888183+996379137
828+1002093467+1005575032+1002655734+995604709+990085896+988971622+993194667
818+1005023481+1024470831+1045172795+1058530970+1061159672+1055435081
810+1046097822+1036453208+1027857772+1022543938+1021742491+1022230997
801+1019907142+1016957406+1018965242+1025383432+1029575811+1028787702
793+1026457121+1023985859+1019676057+1013734973+1008074681+1002725961+996076571
783+989872252+988302761+991495439+994995928+995313315+993248363+989429005
773+982381970+974169473+969536470+968127838+965534592+961149661+957843320
763+957816301+963323258+976359487+993748156+1004692300+1002648894+995009039
753+990964409+991771101+992364263+989791310+987626262+989863018+994450648
743+996947789+997390238+997664873+997048568+995222682+994463986+995775031
733+997274638+997697934+997405172+995071969+988769835+981366423+978828469
723+983504452+992434261+999676813+1000958103+998616121+996109746+991391924
713+981505052+972012634+972211798+983425789+997700328+1006537566+1008989904
703+1005951358+998879584+993372285+989205900+983593261+982052613+990431213
693+1005897891+1018085475+1019295740+1013842706+1008931192+1002334358+990946967
683+980596897+979540993+986872240+992288906+990752932+988517316+989745480
673+988730275+978423299+960004834+944804127+941882379+946619297+951464633
663+955841697+963815299+971730930+969028696+955613690+941786331+936147186
653+938419398+942748980+941880270+933274346+922616865+918097238+924291183
643+938279971+950740993+954956685+955040592+956982363+960290527+960521727
633+954759003+947048864+943338665+941928551+936877780+928781396+918832848
623+901804204+879778143+865050496+865361270+876162852+885488825+888396950
613+892157823+900107541+904615995+903838432+903762277+901700631+889629103
603+872251778+863459058+869205424
##END=
