##TITLE=<SNM>
##JCAMP-DX=4.24
##DATA TYPE=INFRARED SPECTRUM
##DATE=29/4/2025
##SAMPLING PROCEDURE=Instrument type and / or accessory
##ORIGIN=Admin
##XUNITS=1/CM
##YUNITS=ABSORBANCE
##RESOLUTION=4
##FIRSTX=4497.3318
##LASTX=599.83466
##DELTAX=-1.4281778
##MAXY=2.07184
##MINY=0.41402969
##XFACTOR=1
##YFACTOR=1.9295514e-09
##NPOINTS=2730
##FIRSTY=0.4267146
##XYDATA=(X++(Y..Y))
4497+221147049+222209957+223778588+224953211+225345071+224788426+223478503
4487+222106891+221206791+220742199+220438901+220097500+219737998+219670255
4477+220147064+221028368+222091477+223327078+224609679+225491971+225579236
4467+224850114+223617278+222463629+222085468+222702674+223512729+223309702
4457+222017324+220966031+221175576+222141056+222910273+223525811+224482040
4447+225503107+225846021+225301531+224193616+222828136+221566942+221044199
4437+221619193+222771050+223534600+223467274+222838021+222118135+221688110
4427+221710598+221848276+221392380+220012830+218223286+216944794+216756964
4417+217641264+219050624+220070394+219994156+219028707+218041187+217577352
4407+217588782+217941890+218572132+219264679+219847859+220352053+220625093
4397+220435874+220181414+220509131+221174973+221239534+220470286+219721209
4387+219750277+220357505+220871660+220915726+220420490+219378371+217996659
4377+216833851+216414745+216689253+217023502+216839148+216185940+215524977
4367+215057158+214680310+214573028+215203794+216522553+217654161+217802018
4357+217188596+216747620+217085345+218021819+218952887+219436044+219508266
4347+219523386+219719942+220108729+220687615+221356501+221655057+221126553
4337+219943373+218672325+217585785+216638531+215851134+215391948+215548562
4327+216538446+217906443+218558447+217992936+216937766+216313980+216263706
4317+216503632+216894334+217333132+217626190+217741288+217924190+218374587
4307+218919479+219268633+219505068+219875568+220198821+220045805+219417649
4297+218761490+218473359+218691415+219275336+219812613+219959065+219754709
4287+219383391+218958725+218689546+218765228+218996164+218995330+218662780
4277+218209401+217930785+218104296+218806034+219750060+220504590+220788905
4267+220438222+219504250+218614498+218632800+219626004+220723464+221236615
4257+221258748+221103632+220956161+220997616+221212536+221342029+221385924
4247+221652447+222169398+222620012+222824692+222819193+222628089+222260463
4237+221727418+221032322+220326028+219895292+219895971+220264849+220873051
4227+221629665+222439117+223034067+222921734+221804783+220084187+218639025
4217+218056169+218265853+218788843+219149782+219203022+219165428+219264417
4207+219476263+219804536+220571158+221930831+223219857+223466965+222643782
4197+221760208+221583916+221940824+222322491+222432460+222070564+221191052
4187+220252725+220033264+220823765+221980997+222585878+222536963+222595809
4177+223343419+224522537+225494735+226001431+226296666+226689052+227120884
4167+227300311+227209462+227158231+227222174+227045697+226428568+225726414
4157+225406636+225465158+225554184+225465652+225238839+225066950+225286302
4147+226101562+227143635+227676665+227410327+226726228+226068216+225572965
4137+225321533+225468865+225914814+226160563+225809586+225054053+224387700
4127+224046407+223953829+223903246+223639596+223152006+222919293+223429371
4117+224503076+225516807+226161026+226495539+226450717+225885607+225064679
4107+224578109+224695492+225111308+225415054+225549103+225718042+226056802
4097+226495075+226909192+227250840+227369969+226994481+226249852+225871552
4087+226447550+227707910+228865220+229459119+229743496+230313053+231258841
4077+231858964+231478873+230436028+229472185+228861976+228502149+228390125
4067+228599732+229021108+229350848+229303894+228863490+228403207+228392596
4057+228866888+229339944+229359204+229008891+228625603+228237248+227729163
4047+227363204+227558493+228176703+228488032+228002574+227065003+226414482
4037+226326676+226467784+226564378+226811872+227468648+228400643+229233016
4027+229694118+229664772+229175020+228462687+227833016+227534522+227814467
4017+228694457+229543434+229467413+228433402+227418791+227198048+227562200
4007+227866610+227797786+227479970+227243828+227366803+227851443+228441419
3997+228858192+228973120+228829773+228626946+228606821+228879491+229384302
3987+229921857+230189461+229976101+229425541+228913671+228602682+228420722
3977+228481885+229019672+229813046+230253790+230219038+230333719+231076927
3967+232109841+232773321+232888928+232745133+232519309+232095724+231481808
3957+230986156+230810157+230866610+231202790+232154076+233682364+234908497
3947+234920112+233966478+233181445+233166864+233407393+233197770+232634700
3937+232297191+232494535+233212119+234369274+235708080+236723571+237087352
3927+236857234+236157412+235082920+234022992+233677236+234562092+236534769
3917+238657281+239638422+238866779+236888264+234730167+233164470+232708914
3907+233879954+236796457+240414961+243028537+244157844+244515972+244117486
3897+242558678+240601601+239725070+240501855+241853326+242039735+241034329
3887+240555265+241443071+242475367+242594001+242577228+242668123+241640878
3878+239742275+239152639+240842469+243615053+246411377+249046237+250418281
3868+249631255+248075984+247283414+246640630+244834869+242229912+240191839
3858+239846052+242518274+249399917+257381537+258861682+253492572+246988518
3848+242820413+241606435+242617895+244875938+247856276+251594835+255751990
3838+258550260+258119926+254993198+251245063+248379128+246890549+246697824
3828+247360578+248216273+249318026+251807253+255697036+257970617+256785244
3818+254895893+254489020+253907168+251215794+247662856+245871428+247363806
3808+251251874+254639333+256390371+258358338+261056940+261841371+259765968
3798+257344159+255981321+254948639+253968316+253925563+255240074+257333533
3788+259590325+261804087+263722227+265248183+267080201+270003793+273530675
3778+276451426+278784270+281636351+285854685+291733038+298760638+305336497
3768+310304510+314187405+317824380+321587049+326196085+332454205+339804826
3758+346636396+352684276+359579326+369101234+381363154+393380452+401576761
3748+406861369+412340001+418641460+423114516+424570072+425721296+429066945
3738+435212531+443289170+450975787+455507967+455913187+453939969+452317419
3728+452240718+452789950+452576775+451504816+450011388+447998259+445794661
3718+444343120+443997858+444860287+447847452+453217133+457948278+458299997
3708+454951012+451656735+451108368+453100800+455290591+456064581+456149437
3698+456796684+458626570+462037428+466850093+472127906+477021504+480550579
3688+481132894+478849969+476268303+475840872+477895579+480646556+482364866
3678+483359537+484298915+483955475+481999741+480643590+480772125+480284644
3668+477421936+473793332+471751630+471823882+473000838+474134949+475099286
3658+476390258+477767569+478477245+479351166+482389424+487891285+492263885
3648+491171754+486247699+482310561+481247004+481656302+481621890+480972975
3638+480745127+481366241+482598305+484859267+489487084+497157081+505377577
3628+508932755+506529573+502070603+499545374+500964171+505606568+509981361
3618+511303223+510978751+511769545+513846122+515398119+515873121+516560618
3608+517917974+519043682+520008019+521773777+524111811+525810104+526817502
3598+528375121+531014027+533794411+535260903+535064502+534844438+536721525
3588+540438631+543152663+543569127+543431356+544026862+544796898+545404265
3578+546600775+548305308+548719981+546692148+543792218+543052887+546300829
3568+551821811+554430506+551564803+547300195+546420745+549079113+551862215
3558+552299747+551119301+549985067+549262849+548764772+549138237+550945388
3548+552968525+553146886+551421039+550086017+550846786+553227448+555887298
3538+557938484+558982765+558894666+557929587+556697986+555360184+553652500
3528+552062818+551489615+551561157+551186148+550558578+550580140+551097307
3518+551297415+550771413+549284040+546717973+543797902+541999956+542194689
3508+543839419+545703346+546781484+546756833+546296010+546412281+547129742
3498+547676873+548329217+550465845+553955165+556167104+555052763+551763799
3488+548672595+546566733+545104010+544580665+545621981+547530267+548434986
3478+547386380+545281445+543496597+542463312+541896164+541697106+541897709
3468+542342593+543168849+544905323+547307547+548842616+548390442+546801377
3458+545664733+545400311+545256115+544386426+542699809+540974641+540042122
3448+539901817+539920290+539850539+540180078+541178827+542135874+542192774
3438+541230908+539507903+537386905+535621147+534716799+534149775+533087453
3428+531496597+529918591+528801532+528606181+529551180+530711424+530475483
3418+528504798+526170657+524884256+525093941+526555366+528530623+530110544
3408+531084086+532080797+533373190+534208899+533715456+532064610+530367367
3398+529507378+529319997+529097030+528739442+528778055+529403833+530256038
3388+530886450+530965529+530542639+530152123+530021889+529704768+529281136
3378+529891469+532124784+534737002+535807416+534897632+533593068+533903825
3368+536359366+539612621+541843527+542650508+543161559+543916892+543800991
3358+542018985+539933140+539706096+541684256+544196450+545843094+546761158
3348+547613053+548420282+548633673+548074309+547230074+546687330+546699253
3338+546865320+546180974+544401624+543008837+543331704+544454385+544698172
3328+544233457+544286156+544943071+545394133+545301277+544877460+544317540
3318+543523904+542166703+540316861+539011679+539502898+541862617+544974580
3308+547832499+550016760+551019957+550217054+547781715+544933742+542978812
3298+542429889+543042508+544418367+546120676+547316567+547456748+547269490
3288+548028962+549715764+550934391+550999693+550779692+551106142+551697384
3278+552027232+552320011+553365467+555613918+558184680+559109848+557444546
3268+554584897+552583445+551676564+550590457+548957219+547998504+548615077
3258+549973019+550583476+550172942+549735719+550140075+551461999+553352616
3248+555238167+556310930+556059976+554731070+552834769+550736136+549115254
3238+548900195+550358655+552548168+553675792+552407370+549458632+547349496
3228+547816683+550047218+551917200+552229873+551136785+549350022+547791971
3218+547073892+546893677+546468008+545394875+543914544+542783831+542845303
3208+544168649+545740106+546360262+545580464+543805933+541936816+540770826
3198+540321865+539848253+538786797+537384681+536239759+535544971+535017363
3188+534412282+533932430+534031465+534639388+534823865+533880472+532495161
3178+531781345+531522669+530650756+529072379+527579198+526364772+524960679
3168+523283021+521733063+520620947+520243528+520988543+522595277+523756447
3158+523145497+520704536+517537126+514809564+513237890+513180280+514238215
3148+515027650+514381701+512663328+511030338+509872657+508918545+508416205
3138+508930932+510058988+510547335+509882851+508762919+507796389+506772588
3128+505581763+504810027+504859297+505258587+505300382+504727457+503542068
3118+502007958+500951320+501026785+501689694+501931195+501822770+502036439
3108+502205471+501339489+499644779+498403448+498144555+498155552+497768279
3098+497151367+496630029+496059545+495322654+494849320+495028855+495477353
3088+495501015+494950672+494092165+493090760+492113449+491439698+491086651
3078+490851019+490843019+491226369+491515750+491097648+490312723+489995386
3068+490087902+489660935+488240779+486452965+485343443+485386659+486129326
3058+486741544+486852471+486600714+486127319+485501293+484790536+483838988
3048+482478697+481075624+480158302+479623805+479114484+478851606+479218121
3038+479845660+479889185+479105031+478106282+477533636+477401023+477345235
3028+477128879+476645814+475783756+474665523+473681385+473012329+472499425
3018+472022322+471576172+471150811+470958518+471363708+472171492+472477863
3008+471590876+469788822+468042618+467189702+467279810+467605302+467437660
2998+466611866+465389409+464181686+463395711+463117079+463050974+463007202
2988+463071423+463122979+462788529+462137142+461742301+461704677+461327381
2978+460241120+459134996+458743614+458720817+458234818+457373562+457206878
2968+458322114+459769114+459941699+458403449+456116631+453966658+452089664
2958+450610044+449901449+449909851+450142240+450481725+451140865+451795618
2948+451798460+451248734+450778582+450408360+449723057+448928462+448620485
2938+448696383+448457106+447649290+446666697+445902962+445371153+444865014
2928+444442495+444540881+445336309+446213473+446203464+444979648+443163755
2918+441579942+440490437+439760836+439497897+439939444+440718779+440978134
2908+440454635+439767385+439411496+439121528+438452565+437540803+436982799
2898+437137035+437778598+438340618+438304785+437474945+436163925+435129683
2888+435035251+435782768+436449600+436060658+434508940+432624625+431360867
2878+431093294+431621706+432470358+433073092+432995155+432241058+431253337
2868+430474436+429931320+429323737+428512184+427779092+427488414+427542997
2858+427430741+426852380+426030324+425369980+425084923+425111458+425127799
2848+424768173+424069833+423537715+423524185+423735074+423606569+423060767
2838+422558705+422350318+422046789+421255469+420369192+420137329+420528556
2828+420718254+420286931+419697882+419408315+419266991+419008438+418625212
2818+418047314+417131351+416113821+415411219+414881819+413975772+412715350
2808+411838310+411821258+412335954+412769161+412792206+412408948+411915134
2798+411726085+411839792+411724942+411092615+410331352+409843685+409515752
2788+409144233+408833599+408713435+408686777+408578166+408236178+407517204
2778+406420038+405222015+404337993+403978954+403895828+403493542+402397828
2768+400948728+399916061+399720494+400141994+400700153+401002323+400786615
2758+400009536+398954257+398043206+397508740+397275518+397091102+396764034
2748+396329529+395969718+395783974+395698160+395563540+395260968+394722579
2738+393973394+393228194+392844967+393014030+393513714+393902439+393892585
2728+393448257+392679055+391794569+391066884+390693048+390630340+390597906
2718+390370274+390022880+389661648+389082484+388099242+387036086+386440117
2708+386420131+386590646+386590121+386449168+386395326+386357300+385908462
2698+384871100+383726549+383154026+383281356+383569626+383433739+382880306
2688+382417011+382385905+382612115+382686530+382336511+381539384+380526827
2678+379665077+379168637+378947616+378756405+378442156+378066313+377808872
2668+377705760+377541515+377116340+376524757+376030387+375754721+375627360
2658+375562397+375510718+375369209+375055362+374702933+374570722+374668892
2648+374614340+373990261+372855223+371786755+371325375+371454281+371749315
2638+371906022+371942473+372042960+372338148+372677233+372629476+371931816
2628+370852906+369921869+369428271+369312710+369365780+369415606+369404764
2618+369325468+369114795+368732990+368324526+368123769+368190091+368366382
2608+368480090+368449725+368226233+367803559+367306996+366922966+366710162
2598+366566769+366381179+366131059+365852489+365598416+365441740+365448566
2588+365577534+365633909+365454714+365148682+364956976+364870916+364661479
2578+364322827+364148265+364234789+364259687+363969008+363589396+363472877
2568+363569070+363561224+363375325+363289821+363567062+364097759+364459394
2558+364360204+363962768+363671441+363704895+363987388+364297528+364415097
2548+364286067+364074005+363905683+363676291+363277001+362832210+362533623
2538+362431345+362492755+362656907+362812780+362928495+363121437+363417707
2528+363633631+363654297+363580870+363511120+363457648+363498980+363723615
2518+364039716+364250265+364279519+364212795+364160498+364141655+364116510
2508+364094979+364085033+363952544+363582476+363165085+363033677+363232673
2498+363494408+363624302+363705791+363907876+364221846+364478422+364572669
2488+364520557+364318749+363950814+363513869+363155664+362940512+362880245
2478+362947617+362998061+362894053+362751308+362845369+363255594+363772761
2468+364160374+364375928+364498624+364516572+364265680+363642373+362848119
2458+362315444+362350752+362884909+363590075+364126024+364245354+363905158
2448+363386384+363062652+363020333+363129963+363351416+363672553+363928912
2438+363954459+363762351+363493883+363365564+363587944+364140296+364722920
2428+365017522+364918054+364549377+364140604+363838342+363657849+363610834
2418+363734148+364009135+364403883+364876630+365249663+365335137+365247037
2408+365310950+365671132+366190214+366640782+366888801+367025862+367316602
2398+367865494+368418649+368678406+368749115+369040658+369748080+370729993
2388+371991960+373958598+377119305+381729792+387989920+396216193+406725544
2378+419693897+435035560+452267902+470722886+489951645+509379060+527639496
2368+543212899+555605701+564877089+570710744+572898341+571289445+565380479
2358+555187816+541324630+523853690+503177778+482465105+466583447+458670465
2348+459430493+468098282+482146749+497047791+508872055+516624839+521146084
2338+523590381+524710776+524628607+523423140+521535612+519208328+516105571
2328+511862371+506490867+500080087+492720198+484906344+477432717+470645289
2318+464238772+457902035+451727597+445866512+440185054+434457755+428693665
2308+423152758+418106129+413617443+409608176+406117466+403301620+401117297
2298+399263408+397528356+395965393+394671610+393597550+392618880+391674529
2288+390804655+390071317+389475440+389007482+388696446+388490376+388261941
2278+388085248+388249369+388815374+389452520+389887858+390211127+390547925
2268+390706362+390396098+389683302+389013907+388773734+388959385+389322070
2258+389695504+390076043+390477464+390857817+391192268+391537005+391980530
2248+392513049+392963432+393170274+393208918+393264552+393299272+393104817
2238+392655979+392137607+391685773+391320062+390995959+390579896+389931074
2228+389070652+388156018+387361362+386854605+386713405+386812718+386953022
2218+387059130+387153810+387305790+387683271+388420409+389365131+390204269
2208+390879070+391646820+392700307+393945500+395217104+396518517+397920046
2198+399352373+400678653+401929251+403284476+404804222+406329375+407690221
2188+408879317+409999805+411170119+412444967+413689665+414608037+415047484
2178+415206755+415445414+415939785+416527413+416846943+416683317+416169918
2168+415594800+415134317+414865014+414785688+414642665+413974227+412589101
2158+410875857+409424131+408428286+407620440+406681865+405553377+404379912
2148+403232116+401977193+400652025+399862961+400316988+401969563+404132387
2138+406345438+408631637+411061632+413603017+416252921+419011960+421892862
2128+424995279+428397364+432069555+435949391+439919798+443794784+447538023
2118+451365037+455522392+460132571+465202553+470600035+476196235+482175662
2108+488990798+497004514+506411726+517364633+529812452+543334237+557394936
2098+571449519+584513755+595284564+603293892+609345139+614285258+617974624
2088+619755827+619227354+616217824+610636235+602857596+593843958+584344538
2078+574281799+563391013+552131951+541504165+532211154+524286836+517345698
2068+511066757+505422646+500467607+496058062+491915225+487850510+483854989
2058+480118361+476874404+474076412+471420176+468777902+466368203+464481570
2048+463245027+462621288+462532045+463013936+464252920+466508847+470128215
2038+475548463+483114020+492900042+504727210+518268456+533156154+548940971
2028+564863374+579949882+593561558+605536042+615771025+624188602+630918450
2018+636041131+639616882+642112209+644135470+645743625+646344567+645160970
2008+641966963+637496193+632566391+626920180+619800371+611397375+602683745
1998+594177328+585847233+577812883+570209825+562628452+554534298+546213409
1988+538621718+532365668+527372479+523451435+520597841+518601269+516859390
1978+514934299+513078619+511926005+511736894+512186195+512879716+513727843
1968+514645721+515310205+515596651+515912784+516734345+518101586+519773005
1958+521595477+523529279+525452084+527154640+528614151+530184866+532339411
1948+535205424+538542145+542121479+545747211+548950732+551278819+552920459
1938+554508845+556396867+558512613+560736908+563053566+565420760+567767443
1928+570124506+572688781+575647897+578824729+581706373+584022783+585895422
1918+587299885+588119655+588841997+590290757+592575968+594882803+596369188
1908+597018134+597427061+598001129+598725262+599606133+600779104+602061735
1898+603029656+603663651+604334776+605260623+606474678+607908673+609094618
1888+609408279+608905507+608330327+608363566+609096410+609939965+610163797
1878+609677953+608967411+608478540+608630088+609915068+612187923+614084779
1868+613948058+611638073+608558175+605960477+604077088+602476964+600752661
1858+598831648+596865350+595054059+593530977+592376602+591697445+591548553
1848+591904967+592726714+593520227+592950175+590276548+586708705+583876301
1838+582262894+581368308+580688225+580437394+581075405+582039618+581724722
1828+579630290+577042229+574823494+572670926+570530653+568927626+567919548
1818+567004450+565979012+565206319+565068609+565486989+565930329+565912412
1808+565458261+564927440+564669444+564962285+565855327+566948477+567677676
1798+567951797+568344723+569692905+572259404+574768571+575249534+573880286
1788+572790843+573324011+575204187+577513925+579689476+581497986+582786116
1778+583786842+585317586+588356585+593136382+598072671+600621563+600339162
1768+598792603+597326605+596806411+597764323+599668964+601169558+602088487
1758+603441734+605266245+606791552+608457411+611537988+615916458+619716164
1748+621684131+622352908+622587243+622916720+623853441+625577003+627467187
1738+629207121+632019693+637051186+642218905+643507530+641360399+638960893
1728+637824558+638179551+639687312+641347733+642727114+645385667+651369202
1718+659648142+664779720+663428573+659083960+656008139+655686508+658040543
1708+662482956+667599150+671356784+673635508+676888639+682567966+688132627
1698+690550914+690502725+689035307+686819784+685715019+686855802+689433731
1688+692534140+697104748+704151346+710764984+712557431+710836650+709523128
1678+710990052+715633993+721299419+725017822+727112501+729904006+733152504
1668+734301627+733391225+733219289+735189541+737744673+738513474+737729104
1658+737640325+740125892+746101581+754280992+758945877+757925505+756608029
1648+757694815+758675401+755612925+749538078+744663138+743339174+745576258
1638+749910554+753670288+753610794+749642981+745313257+742839182+742013296
1628+741812694+741923219+742760041+743785850+743457238+742007612+741735035
1618+743785479+746174791+745908392+743496036+741464435+741047414+742050241
1608+743595565+744888699+745627722+745877316+745893688+746221312+747602175
1598+750367423+753849206+756664373+757984753+758360566+758824787+759690274
1588+760807334+762293966+764232154+766201850+767886305+769828385+772972474
1578+777301209+780595981+779907557+776379563+773812755+773700561+774562712
1568+773916299+771249221+768060836+766217543+767378899+772580659+779920964
1558+782247074+777419952+771773925+768610500+767298151+766184305+764466303
1548+762997093+763490599+766809836+772418608+779666859+787887107+793237266
1538+792224740+788569230+786866365+787671740+788694150+788844525+789920624
1528+793514414+799103603+805180859+811380504+817818499+822945011+825293485
1518+826015271+826588597+827366912+828981863+832590234+838676511+847016120
1508+857032522+865854269+869175792+868452771+868052431+869690735+872939418
1498+876425772+878898427+880537719+882746816+886573398+892105191+898486533
1488+904286765+908641572+911704295+913943356+915618049+917178138+919858067
1478+924878934+931949256+939509129+946343571+951380006+952926381+951267874
1468+949392270+949719523+951845587+953455101+953948915+955285482+958749348
1458+962088972+960207128+953119508+946699676+943702812+943293205+943857696
1448+944111554+943453341+942203514+941278593+941567172+943629663+947381736
1438+951595189+954178555+954478315+954171017+954525330+955369504+956062993
1428+956226774+956236536+957190432+959921268+963888648+967050096+966721237
1418+961865140+954992332+949625987+947516728+948446344+950375388+951144560
1408+951131462+952454252+955761318+959104340+960251054+959124295+957715013
1398+958397506+961546536+965047038+966612750+965878176+964058916+962449340
1388+961582802+960924960+959682918+958367233+958303661+959912681+962748174
1378+966596563+971264291+975378091+977005274+976460367+976770013+980212750
1368+985699505+990158660+991946350+992053664+992338103+993563217+995152405
1358+996255254+996675920+996995821+997996053+999831500+1002080940+1004777920
1348+1008592948+1013631484+1018795805+1022719877+1024669494+1024676290
1340+1023649863+1023339847+1024950968+1027772128+1030606570+1033092693
1331+1035109034+1036532093+1037832580+1040440225+1045531460+1052222818
1322+1057864273+1060535553+1061026463+1061883240+1064408593+1067048858
1314+1067193920+1064324818+1060714964+1059337499+1061492167+1065520771
1305+1068202554+1068536047+1068652812+1070293588+1072566504+1073360017
1297+1072405751+1071844904+1072947322+1073741823+1070692321+1062619296
1288+1052442882+1044427560+1039756929+1036111057+1031545763+1027369502
1280+1026027375+1027406138+1029232070+1029274885+1026277093+1020534627
1271+1013728171+1007683843+1003457293+1001044010+999175758+996169256+991611189
1261+986287844+980700077+975044968+969991667+966096200+962927585+959621693
1251+955730798+950937038+944915199+938176640+931869249+925876571+918571543
1241+909429401+900045758+891728761+884148623+876973336+870913501+866240152
1231+861866564+857028816+852495091+849057420+846335048+843909841+842196906
1221+841316715+840407301+838959220+837733488+837742199+839165383+841318259
1211+843449513+845733859+848910320+852682905+855744639+857935264+860757165
1201+865173444+870358709+875002898+878793337+882412273+886501732+890792040
1191+894420737+896871582+898257079+898967497+899621015+901056245+903727834
1181+907310133+911108790+915156670+920595298+928091784+936085297+941753070
1171+944186432+945610048+949083119+955810866+964607282+973145517+979565904
1161+983216657+984310425+983705838+983223762+984925762+989275071+995085496
1151+1001677202+1008999034+1015330024+1017216502+1013717112+1008705389
1143+1006355185+1007230928+1008429291+1006650497+1002274932+999438018
1134+1001646868+1008171974+1015439685+1020866266+1024047423+1025401474
1125+1025063285+1023751431+1023265154+1024419282+1025785380+1025624070
1117+1024920510+1026065865+1028924464+1030758551+1030269803+1029748805
1108+1031812223+1036348419+1041734904+1047777440+1055065725+1060792437
1100+1060101110+1053086144+1044688399+1038001859+1032924834+1029490376
1091+1028358181+1028578862+1027984345+1026768313+1027427143+1030027993
1083+1030864752+1027055717+1019924294+1012680986+1007628364+1005969981
1074+1007667039+1010689419+1011568807+1007406447+998550103+989740589+985039192
1064+983215422+980994277+978321700+978610402+984569410+994176638+1001493898
1054+1002738535+999378770+995748157+994992269+996507876+997564267+996416255
1044+993378863+990025152+987969580+988048289+989531956+990583712+990531631
1034+990653710+991788439+992892956+993557471+994767943+996137809+995780160
1024+993542211+991546505+991282948+992320742+993411174+993827577+993884786
1014+994108247+994327816+993571124+990634434+984506147+975174461+965025168
1004+957575203+953989135+952131323+948879551+942430374+933201491+923581351
994+915812967+909678872+903490781+897133410+892173274+889369165+887863196
984+886467196+884787808+882910659+880523571+877280016+873810775+871271212
974+869490503+866865868+862895956+859000798+856065344+853053899+848685253
964+843538600+839715788+838506552+838906892+839005247+838648895+839463599
954+842722908+848347806+855440307+862576055+868063675+871268556+873540608
944+876614328+880280155+883103354+885269328+889010898+895979344+905587869
934+915908542+925193151+932237772+936060276+936617600+935717330+935686440
924+936849093+937281992+935906009+934665017+935878949+938863952+940926257
914+940902534+939813399+938700479+937731694+936809801+935884756+934779806
904+933719894+933567790+934591313+935504372+935019516+933862608+933942923
894+936203051+940107105+945044320+951117747+957780315+962913376+964522272
884+962407267+957964051+953718226+952251054+954154954+957859518+962064322
874+966639934+970821940+973049695+973113700+972851008+973776361+974880631
864+973695119+969238621+963431161+959161982+958008657+960378076+965888617
854+972919461+979300865+983709915+985831160+986288894+986637276+988315182
844+991478917+994891813+996675179+995970816+995054112+998288029+1006131415
834+1011519197+1007702501+998987697+995434249+1001240103+1012295844+1022000809
824+1028000778+1031882592+1034556466+1034598415+1029545114+1020687781
815+1014693929+1017171340+1027355478+1038085634+1041884908+1038154952
807+1032725776+1031701821+1034525761+1035935723+1033296446+1028384623
798+1023964266+1020874483+1018340913+1016459625+1016597458+1018638573
790+1020503798+1019871533+1014586801+1003993489+991035639+980952822+976980871
780+977879535+980111367+980935462+979638003+977665958+977181782+978296926
770+977364159+971099954+962701653+959319214+963759155+971666360+976254761
760+974914734+971216534+971136837+978236443+989837276+998610340+1000804671
750+1000293558+1001686531+1004080971+1004158011+1001988268+999802772+998761517
740+999620456+1002201845+1003232164+999333608+993643161+994086933+1003898470
730+1016905497+1023374136+1021753624+1019740743+1022670575+1027677665
721+1028173518+1021453740+1011871966+1006587481+1008678947+1014010509
713+1015264537+1010181766+1002842883+997733732+997885280+1005415498+1017938720
703+1027194106+1027712324+1023931831+1021508663+1018702516+1012422618
694+1006549918+1007158150+1012171356+1010313483+995794925+978540590+971230311
684+976066885+984119275+985524789+981151695+978889898+982506919+989085095
674+993799219+993243748+985026341+969229910+953534613+950815824+962196842
664+977068847+984418603+977207050+959147401+943001908+937186293+940732636
654+948418481+954875628+956800966+956657943+960181921+967626017+971301544
644+965015036+953886517+946941424+944886223+942675273+939405584+938214141
634+942126597+950390525+953458190+945528991+933832273+924831115+922401213
624+930204256+945017631+954030775+946523971+926672369+908501515+903825447
614+915082594+934821755+950466824+954856167+952937192+952974940+955019824
604+948826172+929802125+908356083+897017138
##END=
