##TITLE=<SNM>
##JCAMP-DX=4.24
##DATA TYPE=INFRARED SPECTRUM
##DATE=29/4/2025
##SAMPLING PROCEDURE=Instrument type and / or accessory
##ORIGIN=Admin
##XUNITS=1/CM
##YUNITS=ABSORBANCE
##RESOLUTION=4
##FIRSTX=4497.3318
##LASTX=599.83466
##DELTAX=-1.4281778
##MAXY=2.0533674
##MINY=0.41767675
##XFACTOR=1
##YFACTOR=1.9123474e-09
##NPOINTS=2730
##FIRSTY=0.43610507
##XYDATA=(X++(Y..Y))
4497+228046993+228593046+228118789+226614622+224803010+223652463+223577722
4487+224225461+225083354+225972960+226775902+227208861+227234575+227319898
4477+227939665+228852881+229170237+228451760+227429798+227070848+227268362
4467+227143470+226412464+225721572+225697884+226282274+226999893+227476317
4457+227721907+228094930+228785869+229261934+228604360+226626855+224426902
4447+223555764+224646140+226802614+228285321+228038281+226607843+225341256
4437+224890983+224936504+225107556+225343375+225245289+224209550+222700770
4427+222115102+222851936+223765542+223934568+223723901+223613300+223309721
4417+222677643+222396801+222964843+223903275+224543830+224832418+224806828
4407+224167208+223042297+222286933+222317088+222467631+222054822+221356605
4397+221102443+221576981+222490773+223319134+223698047+223625362+223349570
4387+223246543+223628230+224237134+224241061+223327845+222442572+222605675
4377+223433179+223725241+223156077+222565047+222821360+223982115+225305428
4367+225823040+225209321+223997278+222683861+221211735+219652431+218602588
4357+218410498+218715589+219139899+219702238+220349962+220731260+220609797
4347+220218634+220105805+220613911+221480733+222036916+221949052+221679073
4337+221941775+222736723+223261114+222878881+221755092+220466578+219612177
4327+219741245+220810084+221806972+221811990+221210332+221004575+221324626
4317+221495507+221282362+221201184+221563641+221844031+221314512+220077068
4307+219110975+219276042+220493742+221969592+223078561+223778305+224176013
4297+224146154+223647305+223063850+222848103+222980350+223057335+222849832
4287+222528752+222323493+222107699+221534311+220660508+220154100+220573938
4277+221643463+222703139+223552304+224217482+224379791+223797770+223009788
4267+222901681+223736493+224996160+225865710+225693427+224452102+223006095
4257+222425600+222812025+223322095+223420213+223422909+223745282+224364363
4247+225069499+225667012+226011640+226139399+226169367+226041608+225668586
4237+225149618+224529088+223652401+222495791+221376101+220670715+220473435
4227+220654632+221136183+221816805+222333732+222435247+222475844+222863032
4217+223288822+223333331+223349367+223871701+224676062+225095229+224794673
4207+223914978+222911452+222404032+222848258+224244209+226107903+227598325
4197+227938325+227028288+225547356+224390981+224081386+224562796+225346165
4187+225795425+225468158+224510200+223667876+223560595+224032187+224592733
4177+225247517+226366678+227963181+229568365+230631345+230828765+230249143
4167+229380046+228704052+228336250+228195167+228316022+228738540+229221929
4157+229291357+228644552+227534944+226652195+226504878+227005286+227780738
4147+228562844+228992811+228603223+227487584+226452391+226129284+226392563
4137+226755222+226913433+226875501+226802863+226772349+226826800+227250081
4127+228306781+229611159+230327329+230063458+229095121+227859999+226746744
4117+226166110+226385301+227311904+228508237+229452450+229943959+230186152
4107+230344425+230247133+229711038+228954022+228490845+228681580+229400695
4097+230120605+230385380+230168043+229686633+229079833+228470103+228155770
4087+228472565+229443583+230648628+231447378+231390169+230523316+229367454
4077+228628298+228747797+229556054+230407058+230794511+230764512+230544526
4067+230112237+229432315+228754825+228450888+228805162+229874750+231212618
4057+232022371+231944154+231337525+230718632+230431603+230649610+231134168
4047+231380179+231359016+231501564+231761492+231562623+230833596+230225456
4037+230162122+230371448+230465685+230498802+230726346+231039058+231035271
4027+230716388+230653864+231165040+231769690+231857569+231480245+231120282
4017+231021525+231008544+230808739+230412341+230092663+230057863+230232967
4007+230493721+230884432+231443716+232059368+232612232+233065855+233367705
3997+233406992+233095746+232503267+231999556+232108022+232868388+233532055
3987+233413943+232868513+232770068+233237483+233598771+233481905+233253005
3977+233339466+233667622+233833515+233508258+232719887+231850727+231317095
3967+231326710+231936783+233090603+234487395+235616966+236079442+235809025
3957+235010400+234038338+233281275+233015768+233379549+234362364+235621423
3947+236519304+236736142+236651380+236791684+237153455+237354459+237145320
3937+236559714+235956311+235915917+236580301+237203137+237065467+236623562
3927+236919428+238257078+239890080+240757650+240509456+239861498+239900833
3917+240845918+241517720+240629860+238470737+236579864+236043738+236707249
3907+238082676+240294426+243488399+246793363+248898439+249240293+247720636
3897+244558984+241061588+239186050+239883799+241891569+242760666+242200712
3887+242392225+244503801+246942612+247984740+248197573+248050428+246609890
3878+244174975+242676169+243050562+244677813+247029805+249596921+250651470
3868+249506689+248347025+249010895+250258874+249767942+247667977+245895263
3858+245914307+248702734+254892402+261560349+262213512+256821674+250458491
3848+246189477+244707096+245575243+247858119+250595118+253439647+256448403
3838+258926034+259595187+258372282+256353807+254284729+252214888+250316504
3828+249155297+249112659+250433650+253654740+258273339+261181311+260448747
3818+258702698+258315852+258096427+256268998+253484950+251516562+251704367
3808+254048629+256624176+257918113+258962906+260673579+261677760+261149286
3798+260429921+260020323+258882009+256903585+255434513+255318224+256247866
3788+257835673+260085402+262719654+265239831+267869626+271135068+274496509
3778+276826839+278208250+279858300+282903663+287872671+294290227+300680854
3768+306090239+310755855+314725982+317847270+321074593+325854441+332168082
3758+338497027+344488231+352036168+363155651+377101353+389256465+396530402
3748+401768237+408132651+414773061+417931626+417181904+416300526+418224515
3738+423680466+431210419+438004426+442273332+443980857+443668675+442242569
3728+441070360+441065965+441808051+442354744+442430638+442070333+441165174
3718+439760324+438389137+438371651+441395071+447367014+452918776+454967968
3708+454018207+452084058+450907547+451765704+454970742+459500714+463637871
3698+465855871+465840941+465248587+466261184+469305424+472974807+475540334
3688+476300248+475839082+475120216+474986660+475856100+477731778+481091379
3678+486698310+492914425+494907794+491715037+488243822+486907231+485358010
3668+481676315+477439544+474657304+473689621+473556159+473373481+473747688
3658+475929875+479382857+482170894+484557233+489045564+496237840+501749208
3648+500263196+493256029+486355676+483066048+483462789+485571575+487550264
3638+488897702+489886953+491029833+493364308+498255271+505809411+512388325
3628+512599740+507760049+503201870+501346077+502658170+507063312+512949012
3618+517545964+520429563+523203980+525652375+526211722+525564605+526071340
3608+528029832+529768338+530944568+532951870+536368229+539692205+541291327
3598+542081443+544452230+548520942+551417476+551545640+551042645+552336317
3588+554717701+555784593+555050392+553721250+552612531+552094389+552268558
3578+552392732+551686458+550628668+550232519+550862056+552670317+556089855
3568+560774141+564738813+566158779+565156531+562667679+559509643+556904408
3558+556262341+557634370+559422745+560223522+560129892+559913085+559984648
3548+560554966+561697409+563164564+564651230+566293987+568331896+569927153
3538+569299299+566178103+562925378+561917457+563199659+565094132+566088027
3528+565987353+565583786+565580358+566042895+566737949+567535172+568091090
3518+567501198+565210327+562392026+561311732+562679273+564593569+565043702
3508+564459732+564525622+565821413+567737080+569500022+570440121+570038673
3498+568599508+567311009+566911307+566841864+566539344+566631104+567890740
3488+569815446+571149138+571392001+570843439+569618275+567701798+565909121
3478+565430002+565961920+565872966+565024315+565387924+567697372+569672134
3468+569254354+567836570+568019029+569728736+570472536+568664836+565345161
3458+562583898+561364718+561158259+560617739+558768335+556023716+553974711
3448+553792626+554789139+555288705+554694637+553832147+553469660+553388622
3438+553045459+552575441+552729350+553920852+555589978+556666220+556754925
3428+556103632+554486682+551625243+548498501+546488518+545627462+545307613
3418+545874315+547830501+550222732+551402078+550921276+549787622+549387296
3408+550258825+551596257+551830705+550180654+548034467+548065573+551344542
3398+555633925+557496419+556072713+553125000+550316424+548696606+549326580
3388+552117267+554932015+555662787+554624882+553491602+552972899+552930323
3378+553626686+555388693+557691844+559546297+560286295+559795955+558900925
3368+559065245+560562134+562094119+563105843+564644996+567104488+569103811
3358+569320431+568148377+567255717+568023517+570024149+571268575+570625012
3348+569171820+568622634+569270873+569997843+569904837+569377095+569331090
3338+569880027+570516795+571228555+572227250+572856601+572118223+570452339
3328+569372980+569199934+568773489+567530746+566535853+567035731+568840813
3318+570417119+570343001+568729542+567171749+567132540+568581866+570421670
3308+571824680+572614298+572732239+572265151+571712412+571286154+570509377
3298+569308400+568624816+569152745+570439809+571773003+572883468+573612370
3288+574138304+575353307+577587078+579424201+579180465+577127969+575169289
3278+574756683+575964393+578050800+580020326+580808323+579828703+577601041
3268+575361411+574176890+574623719+576495314+578543073+579251965+578275960
3258+576685441+575420132+574369760+573551280+574065432+576876939+581082791
3248+584215394+584610733+582987175+581211517+580072128+578851826+576958288
3238+575169788+574462330+574375931+573947242+573525660+574230687+576381799
3228+579287434+581633473+581863994+579628291+576916149+576214363+577736748
3218+579400700+579207893+577124914+574463265+572241899+570834463+570458323
3208+571113606+572035315+572015617+570641842+568712087+567280589+566731403
3198+566796296+566924024+566487917+565348715+564106283+563130840+562006287
3188+560649593+559875309+559770708+558988945+556969176+555224186+555229547
3178+556499781+557427537+557061808+555648699+554008996+552770430+552199613
3168+552478819+553478013+554348045+554153305+552978198+551672682+550709020
3158+550043701+549627043+549306820+548711131+547745848+546648349+545339031
3148+543492371+541324240+539600071+538930514+539372854+540303977+540611857
3138+539676184+538048076+536498512+534972886+533195980+531612381+530981097
3128+531421880+532256069+532617746+532151655+531196845+530318833+529811725
3118+529560757+529250944+528683120+528035068+527800807+528159679+528582945
3108+528311282+527257855+526346182+526575581+527581133+527832724+526665034
3098+525015918+523832582+523146381+522823976+522775010+522422341+521350836
3088+520282355+520097777+520406655+520365793+520140914+520429158+521081199
3078+521127921+519984760+518049489+516270401+515345294+515274729+515513572
3068+515387465+514481433+513000190+511734850+511350202+511757728+512378632
3058+512875611+513290492+513546415+513312248+512583158+511931086+511766143
3048+511714404+511177125+510132487+509025576+508121134+507169534+505759105
3038+504047217+502955048+503227054+504497942+505626733+505703127+504619685
3028+503067597+502120236+502385540+503329099+503694142+502813980+501304093
3018+500236922+499882600+499601992+498816083+497644528+496646768+496199690
3008+496106746+495945980+495794751+495987028+496132491+495268256+493160187
2998+490674046+488862295+488298678+488938782+490050649+490704622+490712570
2988+490557975+490314613+489493017+488187906+487396885+487643021+488106494
2978+487703332+486291563+484396124+482685670+482041452+482981052+484639175
2968+485367391+484603113+483110338+481488308+479742072+478110722+477080048
2958+476635401+476305048+475894686+475673921+475786220+475865980+475437291
2948+474527550+473550954+472600819+471391301+470053308+469327460+469643694
2938+470561445+471348974+471595298+471163772+470147187+469006645+468328578
2928+468413761+469165104+469945434+469698301+468023284+466001645+465079842
2918+465313106+465534712+465053567+464232064+463496429+462824846+462212762
2908+461829610+461680595+461635525+461712417+462009389+462471865+462810477
2898+462537505+461290959+459321527+457434099+456387498+456467974+457363222
2888+458225213+458253857+457508965+456822140+456748520+456876061+456329338
2878+454832698+453040457+451848176+451608616+451971540+452304324+452247380
2868+451901068+451470166+450952835+450337292+449763826+449337443+449094892
2858+449088751+449099660+448628894+447693533+447100493+447417725+448207124
2848+448684155+448689454+448538880+448272640+447626895+446609125+445569537
2838+444661105+443711718+442698468+441872414+441351248+440942040+440412116
2828+439783171+439347780+439363770+439687920+439859097+439588805+438935517
2818+438024654+436948007+435917458+435174063+434720439+434388559+434164396
2808+434160563+434213143+433826376+432729937+431289369+430150167+429619994
2798+429548587+429672793+429873579+430071373+430073430+429745166+429273184
2788+428972129+428789981+428294499+427251171+425981467+425032672+424658528
2778+424682403+424704595+424380506+423602577+422503332+421340411+420423720
2768+420049545+420278289+420747216+420893832+420427897+419500141+418503097
2758+417838963+417686737+417769988+417515748+416650858+415523126+414691805
2748+414307905+414101009+413907080+413844058+413924067+413885200+413544406
2738+413013298+412447655+411822138+411017403+410018303+409009291+408282228
2728+407983511+407949756+407882370+407654872+407381183+407171327+406879155
2718+406281627+405543655+405147942+405196534+405210310+404851874+404384817
2708+404117331+403847226+403262477+402548536+402174298+402238941+402364549
2698+402165696+401554516+400688567+399901286+399567069+399741362+399979051
2688+399718952+398863818+397857674+397179295+396886968+396716539+396461894
2678+396112373+395775069+395640515+395841208+396174086+396188891+395699424
2668+394969119+394328361+393873366+393542452+393206457+392690996+391940743
2658+391154273+390616807+390398348+390292500+390083392+389834981+389799854
2648+390029409+390246620+390161095+389766130+389288943+388981343+388945936
2638+389014693+388812255+388072880+386932899+385876729+385336738+385314359
2628+385454586+385496164+385463998+385397735+385198663+384845027+384487558
2618+384208165+383892243+383462930+383077534+382939240+383011021+383073638
2608+383019249+382916674+382840312+382831149+382930264+383029130+382808053
2598+382082143+381143416+380534075+380511603+380862838+381178947+381197524
2588+380920998+380517057+380168284+379986791+379958240+379938075+379767989
2578+379423205+379060998+378950600+379265462+379824061+380137458+379879852
2568+379218492+378561682+378170457+378105658+378291827+378509101+378517173
2558+378264585+377874981+377484131+377210068+377147544+377208073+377074641
2548+376544344+375879960+375590687+375873196+376457322+376953179+377153310
2538+377053759+376793441+376583055+376582213+376791384+377016918+376962030
2528+376490049+375846922+375509649+375752575+376383889+376932919+377105623
2518+377009469+376937781+377076387+377426376+377801736+377925599+377738901
2508+377507601+377443113+377427217+377282628+377043847+376785774+376446880
2498+376011521+375683600+375682602+375935377+376126096+376065723+375883326
2488+375811608+375930764+376152340+376309709+376248369+375976145+375734217
2478+375762300+375970473+376031906+375886194+375893955+376289917+376753327
2468+376821025+376500615+376168516+376094149+376325075+376784464+377227927
2458+377295282+376824921+376043562+375365465+375055340+375079901+375233747
2448+375390836+375577035+375813634+376049484+376251486+376377593+376303631
2438+376009901+375746341+375763391+375999927+376240016+376432107+376687967
2428+377079940+377509065+377754859+377734163+377630404+377584742+377472225
2418+377263397+377282004+377729332+378253988+378385768+378164535+377995322
2408+378083497+378304481+378464873+378466057+378351202+378351794+378709513
2398+379323747+379822160+380079516+380362400+380897311+381610753+382303157
2388+382801632+382961152+382730787+382212769+381583450+380997797+380575404
2378+380424830+380656629+381333386+382387250+383607302+384690027+385415812
2368+385983263+386961355+388469808+389663524+389692417+388938611+388600279
2358+389276850+390530969+391697381+392622799+393469674+394154784+394386521
2348+394113704+393738500+393930372+395017056+396545238+397780563+398445040
2338+398775331+399005291+399041695+398832650+398653525+398620643+398399472
2328+397849726+397340280+397035360+396609164+395959804+395512445+395563467
2318+395843982+395878049+395490128+394882035+394293514+393731519+393154468
2308+392720730+392608026+392734164+392821871+392668399+392344778+392188095
2298+392535247+393431555+394624397+395722862+396331018+396278157+395850902
2288+395612215+395872003+396416482+396806023+396859197+396743406+396652925
2278+396609320+396579149+396534392+396370664+396006930+395559634+395233114
2268+395117636+395247016+395705221+396467317+397213175+397528598+397359573
2258+397092741+397114278+397495404+398174437+399171543+400412104+401531202
2248+402145904+402288156+402358440+402631288+402964072+403030242+402675173
2238+401966437+401080228+400269166+399766577+399559339+399373420+398994164
2228+398482287+398012954+397681479+397550510+397704886+398142084+398722283
2218+399317535+399931146+400622552+401404815+402281891+403327121+404630642
2208+406175343+407848801+409604887+411512668+413565662+415579977+417452414
2198+419368673+421520097+423760413+425784327+427501296+429053229+430640943
2188+432435552+434438303+436370708+437900324+438999724+439930566+440873906
2178+441734868+442366276+442831307+443254729+443513176+443365937+442863878
2168+442323108+441838409+441112468+439924612+438532074+437330006+436270751
2158+434946472+433157660+431102639+429054974+427069865+425031675+422874080
2148+420590813+418127987+415705585+414194078+414491361+416498788+419324351
2138+422348738+425440572+428453239+431275997+434128958+437270724+440587687
2128+443722440+446548690+449415271+452754550+456468411+460066169+463397688
2118+466752490+470306924+473994011+477818145+481881091+486203855+490813680
2108+495932546+501906639+508967478+517121577+526237467+536191006+546828191
2098+557623523+567490414+575405545+581272544+585685042+588985206+591027042
2088+591587885+590651900+588370380+584724934+579405562+572433086+564576676
2078+556743953+549415098+542735292+536592080+530815033+525679554+521714415
2068+518849828+516327938+513451913+510040385+506330607+502702117+499404291
2058+496487217+493879739+491362056+488654714+485738201+482932679+480616031
2048+478964111+477869916+477128983+476774443+477038252+478016220+479731287
2038+482441871+486523736+492171871+499414514+508216135+518461160+529886217
2028+541933955+553802413+564922332+575184687+584513986+592613634+599261025
2018+604437334+608117377+610274910+611138958+611136776+610419531+608717055
2008+605897819+602222825+597735087+592058713+585180365+577813360+570633988
1998+563656400+556674760+549961978+544086439+539155300+534697607+530328059
1988+526141718+522505872+519752027+517871891+516420632+515017965+513828177
1978+513232176+513306575+513864519+514662521+515506497+516495904+517966144
1968+519866383+521550220+522539658+523176053+524256783+526284407+529098344
1958+532044436+534496509+536310131+537865492+539705046+542064488+544689047
1948+547173411+549518265+552151365+555257038+558362649+560948310+563167681
1938+565459300+567899405+570394865+573021606+575776199+578383927+580665261
1928+582844362+585328103+588196398+590945506+593032786+594656779+596336190
1918+597934813+599048831+600067910+601764713+604232808+606906363+609139760
1908+610471333+610834693+610744804+610901829+611570702+612496276+613336761
1898+614102192+615131120+616600893+618280679+619847011+620940770+621018753
1888+620044556+619007087+618813781+619292651+619833733+620257373+620575726
1878+620653896+620500548+620353371+620442139+620999553+622128407+623158520
1868+622720231+620378431+617318388+614779604+612942170+611389364+609889857
1858+608507417+607297214+606164682+604994187+603809791+602688542+601689037
1848+601202063+601950477+603712608+604325814+601950290+597754099+593998380
1838+591594679+590224396+589472491+589446372+590241351+590985651+590234993
1828+587974106+585609303+583546584+580908000+577598049+574760985+573081573
1818+572105943+571235350+570531008+570344247+570668523+571065856+571111487
1808+570837642+570685291+571194955+572739844+575109571+577229515+577922262
1798+577278200+576621858+577175407+579117380+581261012+581923650+581069825
1788+580307511+580839928+582614465+584907829+587126452+588902797+590057708
1778+591020746+592845526+596405820+601417872+605916582+607751149+607062828
1768+605373817+603834414+603401175+604681195+607017385+608898019+609988598
1758+611153794+612496587+613606366+615264645+618831298+623886425+627687712
1748+628324606+626981563+625918661+626401832+628507065+631525903+634421814
1738+637017386+640606230+646007138+650727829+651039512+648025100+644913068
1728+643091280+642796179+643802728+645481017+647770330+651886106+658842998
1718+666890470+671288756+669970274+666293784+663864401+663907538+666051170
1708+669383686+672982005+676295197+679992383+685642450+693187613+699078674
1698+700724236+699939044+698253524+696138505+695098917+696392589+699663953
1688+704124949+710284493+718281472+724122415+723864964+720703064+718824799
1678+719233914+721581013+725366404+729821666+734384021+738809984+741750341
1668+741522812+739533151+738972932+741054352+744132472+745811011+745981564
1658+746488984+749352604+756181769+765980837+771542449+769700963+767204443
1648+767435525+767710118+764480021+759351773+755698535+754373757+755161256
1638+758252529+762799051+764892315+761874412+757121930+754482348+754373633
1628+754861479+754506160+754177771+754911099+755686816+755541572+755752830
1618+757468833+758962730+757638887+754597795+752241034+750726129+749247380
1608+748155055+748416931+749769013+751061189+751790465+752147779+752336409
1598+752721275+753927115+755994447+758083036+759581484+760908007+762885325
1588+765781921+768975801+771357434+772310249+772336431+772569196+773896031
1578+776317684+778131742+776832772+773305516+771106529+771683579+773043328
1568+772280764+769546555+766939575+765806233+767060757+771562023+777594650
1558+778832967+773892353+768074725+763646518+760797609+759897281+760824913
1548+762791322+765608875+769982600+776335326+784199341+791479074+793330348
1538+788436424+782665423+780454966+781769895+783729883+784243288+784635822
1528+787345657+793170766+800618996+807658484+813407417+817594382+820360944
1518+822565478+824714845+826578461+828366837+831063519+835538978+842417762
1508+852160666+862578737+868069597+868289707+867927033+869409585+872513201
1498+876106222+879402458+882722195+887404611+894328590+902096794+906727283
1488+905673233+901643918+898916441+899543485+903353812+908817991+914348310
1478+919536276+924998835+931447995+938829213+945245024+947787236+946792343
1468+945788848+947384604+951233392+954515104+955477768+955502516+956507569
1458+958027710+956768261+951175419+944388830+939852407+938886563+940483877
1448+941867251+940805908+937328708+932993694+929845383+929670965+932798643
1438+937748047+942199381+944767899+945877304+946108760+945568675+945008830
1428+945460771+946480473+946675587+946188800+947157948+951161331+956755607
1418+959777624+958114982+954297923+951421025+950291672+950056476+949924759
1408+949989527+950607594+951418469+951363800+950146241+949017075+949459042
1398+951423643+953462861+954717885+955325293+955132361+954308769+954107859
1388+955049017+955697879+955171446+955601756+959541306+966603734+974038250
1378+979495510+982364803+983292310+983617769+984781594+987403473+990876433
1368+993745539+995233203+996077178+997289813+998595516+998750048+997844796
1358+997572011+998603806+999753419+1000213712+1000612916+1001361953+1002356222
1348+1004451356+1008536899+1013505066+1017446175+1020393513+1024067758
1340+1029377655+1035292029+1039819040+1041365113+1039975131+1037831063
1331+1037477365+1039694367+1043786517+1048982836+1054008041+1056460239
1322+1055320726+1052929742+1052062515+1053116253+1055318856+1058204543
1314+1060760968+1061674698+1061543916+1062257421+1064038129+1065256187
1305+1064597289+1062285223+1060044845+1060267636+1064089993+1069814989
1297+1073741823+1073171443+1068692182+1062989378+1057581800+1051687996
1288+1044640654+1038299398+1035663556+1037068000+1038648919+1035839407
1280+1028575881+1020979415+1016110176+1013382886+1010725725+1007311174
1271+1003881038+1001382960+999616839+996977693+992264296+986595341+981713510
1261+977298955+971826983+965258261+958617976+952193189+946255064+941771440
1251+938796175+935711509+931240352+925677868+919256384+911061300+900829615
1241+890296781+881415495+874564575+869139667+864735210+861101546+857718163
1231+854181370+850601066+847349026+844839727+843378806+842659815+841664736
1221+839513249+836412439+833680847+832662267+833522949+835474023+838106000
1211+841563439+845400009+848625057+851161534+853942683+857577469+861732767
1201+865559238+868590419+871435089+875249841+880311264+885780493+890805386
1191+895009867+898118532+899912892+900714105+901427174+902957101+905483543
1181+908360627+911023835+913596904+916946002+922718748+932514450+945974175
1171+960046233+970929148+976729634+978422261+979206518+982311942+988201506
1161+994056661+996572380+995442903+993678028+994210321+997076123+1000104374
1151+1002557757+1006675216+1013527756+1019349187+1018967812+1012503254
1143+1005299758+1001536433+1001103505+1001983387+1003118973+1004449549
1134+1005986583+1007863414+1010011659+1011265810+1010750847+1010257452
1125+1012477260+1017579700+1023725717+1029503762+1033557575+1034009890
1117+1031066977+1027999392+1027672623+1029536364+1030537864+1028542967
1108+1024788183+1023038082+1025854201+1031232294+1034498546+1033551778
1100+1030127128+1027085163+1025622247+1025773725+1027372285+1028614093
1091+1026722675+1021146913+1014750614+1011023008+1010684957+1011675922
1083+1011815556+1010732956+1009144806+1007834053+1007538702+1007329438
1074+1004689420+999106115+993421077+990515317+990257244+990207873+988569168
1064+986113541+985202491+986581564+987389883+984631051+980183894+978747034
1054+981838682+986504641+989308480+989728006+989024661+988214971+988416817
1044+989920688+991000982+990053527+988117601+986842755+985517104+982975827
1034+980269046+979031414+979119745+979241426+978642434+977869335+978080781
1024+979690312+981717125+982409311+980957928+978879687+978696043+981076741
1014+983969161+984410878+980873960+973674578+964261685+954983065+948461220
1004+945357728+942783038+937120192+928590297+920189003+913130564+906669809
994+901197650+898146584+897234225+896335829+893863683+889729144+884788405
984+880520590+878210021+877812936+877818297+876284318+872260613+866912941
974+862795108+861111645+860320530+858056900+853550149+847625988+841586379
964+836676995+833621690+832210202+831662013+831522566+831996886+833483677
954+836182354+840068295+844971195+850461369+855817706+860562584+865094145
944+869974479+874406614+877083910+878764879+881987558+888111509+895902465
934+902680701+906695803+909092459+913131312+921078920+931539879+940038107
924+943232860+941636980+937670687+933157079+929469742+928071843+929055515
914+930442131+930620414+930410589+931124530+932083954+931715731+929791524
904+927767952+927179557+927632183+927686541+927912698+930567054+935883246
894+941367498+945153451+947636880+949719609+951653541+953477511+955165898
884+956239086+955985064+953999393+950718803+947984095+948233317+952439793
874+958949295+964663694+967762136+968445096+966424392+960184184+951698859
864+947429922+951662767+961827627+970775613+974441568+975847321+979529484
854+985084176+989145657+991367272+993774338+996727599+998707909+997739384
844+993895272+990861410+991691547+995005238+996771047+995058224+991587133
834+988513750+986312332+985392368+987796630+994922579+1003918004+1009794977
824+1011950016+1013729540+1015697445+1015647451+1013605366+1012591398
815+1015974843+1025414853+1037805941+1045172821+1043298671+1036109512
807+1028901839+1024444022+1024123363+1027416046+1030473595+1030292320
798+1028430824+1027954946+1030222254+1033387334+1033301870+1027515223
790+1018338399+1008744168+999108671+990030962+983779221+982004622+983253349
780+983723305+980641320+974771703+969568153+967341239+967119882+966482614
770+964420893+961394823+957953779+955319122+955776236+960760237+969540974
760+979630469+986801488+987861834+985113287+984346360+988377109+994940407
750+1000837203+1004572539+1004436084+999424468+992423317+987749254+986571653
740+986728554+985918240+983951333+982445903+982551938+983989109+987480396
730+994609462+1005167978+1015422104+1018651391+1011916292+1001165780+994935608
720+996367979+1002353479+1008578727+1013329401+1015849359+1014860825+1010578985
710+1006365340+1006433225+1011295170+1016229862+1015824300+1009688568
701+1004312159+1005624282+1009846903+1008414283+1000445542+992546556+989027280
691+989798384+993826639+998017655+996147930+985755978+972918497+965271850
681+965884183+974561878+988518613+1000216642+1000544470+987073400+963941711
671+935000996+905433050+888150656+893484926+910305281+923536978+933120736
661+943745578+954786642+962954486+966222047+963039887+954276728+944966379
651+939604743+938656541+938973460+938954385+941664595+946778816+950643313
641+953254158+955701993+959450980+964956053+968455132+966989785+961208375
631+952211204+940407203+928092352+919835928+918634577+923826220+933631772
621+944365204+948577540+942604569+931304933+921157776+913661797+906454997
611+898807539+891316671+884448359+881559056+887132013+899752936+910121014
601+910479449+903642056
##END=
