##TITLE=<SNM>
##JCAMP-DX=4.24
##DATA TYPE=INFRARED SPECTRUM
##DATE=29/4/2025
##SAMPLING PROCEDURE=Instrument type and / or accessory
##ORIGIN=Admin
##XUNITS=1/CM
##YUNITS=ABSORBANCE
##RESOLUTION=4
##FIRSTX=4497.3318
##LASTX=599.83466
##DELTAX=-1.4281778
##MAXY=2.1156147
##MINY=0.38416398
##XFACTOR=1
##YFACTOR=1.9703197e-09
##NPOINTS=2730
##FIRSTY=0.3920736
##XYDATA=(X++(Y..Y))
4497+198989841+199088884+199428696+199920128+200652677+201461656+201933016
4487+202020563+202107173+202367923+202481260+202002594+200854211+199542683
4477+198888651+199302034+200407218+201567883+202428032+202730999+202231989
4467+201258519+200667727+200732117+200774000+200266278+199565356+199353476
4457+199987089+201247144+202316375+202480851+202051949+201928130+202251834
4447+202307209+201745352+201002487+200424991+199821055+199147117+198992836
4437+199813583+201020351+201450251+200662115+199344930+198539521+198764696
4427+199732419+200652163+200860715+200262829+199237675+198136529+196968770
4417+195758916+194975454+195162634+196224347+197401590+197955747+197741962
4407+197240895+197041448+197282385+197684136+197999657+198280177+198676241
4397+199082758+199109046+198545193+197790621+197501585+197947700+198951588
4387+200062218+200615589+200115339+198842820+197764272+197574279+198024009
4377+198370447+198280101+197925496+197434911+196891644+196637261+196835574
4367+197061626+196945295+196835316+197256565+198079914+198742189+198987149
4357+199059646+199276532+199607995+199776086+199654764+199456905+199498622
4347+199715962+199592189+198911173+198237266+198198816+198778718+199567353
4337+200109501+199989343+199231140+198421057+197920459+197447133+196901990
4327+196914953+197924468+199217663+199552136+198713330+197844997+197971160
4317+198800241+199323633+199179169+198964612+199277954+199912444+200238900
4307+200085027+199771413+199527693+199467750+199836544+200627689+201239143
4297+201087614+200440177+200222655+200983807+202264025+203021925+202670602
4287+201655597+200959016+201111316+201811512+202460779+202814190+203018764
4277+203317480+203856663+204476632+204654510+203987923+202728715+201516441
4267+200705798+200383395+200670631+201316843+201449934+200666729+199930353
4257+200423115+201979467+203373777+203722348+203171593+202579243+202689343
4247+203391716+203952393+204068755+204207638+204829952+205744205+206307726
4237+206129455+205461749+204784757+204231794+203744280+203521434+203816762
4227+204513826+205283433+205843687+205912100+205387951+204639309+204142568
4217+203984520+204108157+204628025+205454050+206022865+205880896+205224655
4207+204577868+204312746+204590392+205375125+206460873+207662634+208808552
4197+209508354+209373842+208600105+207878189+207682313+207996865+208530391
4187+208833615+208516430+207731789+207159208+207223431+207615972+207795362
4177+207740244+207948115+208753525+209976659+211216658+212145220+212463236
4167+212035302+211200987+210499204+210077668+209790870+209679969+209888022
4157+210303493+210625941+210650233+210435328+210336482+210727828+211552900
4147+212337996+212715562+212786304+212940616+213317229+213484019+212969143
4137+212104698+211793216+212365419+213201246+213621526+213773252+214267119
4127+215090452+215418481+214654683+213299093+212485985+212836975+213976767
4117+215067310+215661142+215946441+216201157+216258226+215739825+214694206
4107+213687187+213291485+213724109+214932480+216651689+218243812+218943963
4097+218600717+217922892+217750203+218194805+218680323+218795732+218858548
4087+219350222+220038907+220226873+219752246+219146465+218849745+218748282
4077+218508541+218089728+217760685+217659873+217575744+217257743+216776460
4067+216526328+216918853+217924253+218960677+219520325+219740115+220017459
4057+220370476+220605800+220811448+221223622+221737681+221945144+221748420
4047+221576926+221719773+221850881+221604500+221121811+220633904+220135015
4037+219730405+219699397+220102752+220790257+221680764+222613788+223110302
4027+222781637+222027761+221859322+222682988+223664792+223793511+223148781
4017+222509875+222231110+222149537+222050177+221744715+221203550+220851834
4007+221222018+222211991+223172967+223785298+224359724+225120286+225690401
3997+225569063+224801528+223959712+223614651+223940154+224673445+225401320
3987+225937040+226319567+226504689+226344373+225839056+225200875+224779929
3977+224964038+225811557+226744098+227003608+226472744+225724494+225260985
3967+225052463+224925710+225056789+225719715+226703622+227430892+227668304
3957+227658200+227526531+227150569+226771581+227090717+228299587+229427717
3947+229366095+228414738+227885795+228353631+229109655+229273118+228782231
3937+228106176+227740377+228150221+229524128+231289288+232377305+232401158
3927+232055296+232099735+232451738+232580987+232567782+233080238+234215659
3917+234970654+234255197+232174954+229821482+228149647+227493300+227943076
3907+229796268+233191079+237200278+240074253+241016701+240573626+239071575
3897+236533510+233942989+232900380+234008922+235875107+236354634+235663696
3887+236020812+238110326+239992045+240213197+239868272+239769199+238981048
3878+237439565+236766233+237750079+239425515+240978584+242494717+243390214
3868+242902866+241955352+241862254+242257108+241828886+240495577+239283334
3858+239136510+241059446+246095463+252350243+254100868+250347156+245083438
3848+241164796+239596056+240339980+242487335+244826287+247106702+249825655
3838+252292266+252758831+251217273+249279574+247859278+246921474+246514866
3828+246654673+246713889+246523443+247467766+250482788+253344829+253639400
3818+252867902+253040713+253035056+251055686+248191527+246724674+247640274
3808+249808321+250972812+250995123+252227861+255448682+257832693+257263213
3798+255410294+254001674+252793303+251332999+250155802+249900284+250612898
3788+251972768+253450360+254385684+254801003+255842766+258317469+261031340
3778+261990305+261300425+260847654+261929742+264542754+267810525+270493781
3768+272041224+273068163+274282237+275887338+278196417+281580927+285482553
3758+288760669+291488455+294868580+299810818+306240178+312506514+316507484
3748+319009747+322961741+329403958+334781996+336082104+335895786+337797895
3738+342883403+349558827+355157850+358602742+360625159+362136391+363732236
3728+365896773+368935754+372903358+377583832+382304873+386180482+389102693
3718+391978862+395952152+402084717+410854647+420490489+427414759+430839927
3708+433128828+435874977+439561183+444608272+450498071+455235871+457617734
3698+458648243+459966441+462089293+464383730+466618844+469695881+473574908
3688+475663334+474344742+471536669+469939766+470613038+472953910+476139670
3678+480387673+485983641+491187250+493986005+494826476+494325787+492107917
3668+489099883+487571741+488543532+491101578+493946951+496755266+499740520
3658+502739085+505092270+506658468+508918025+513993581+522077261+528979266
3648+529649937+525799799+522496543+521634262+522319392+523824634+526427149
3638+529884384+533368421+536782759+540334680+544017287+548448975+553631196
3628+556386420+554393709+549866669+546333565+546262837+550012965+555283157
3618+558929825+560428411+561283977+561556965+560417944+559349107+560971240
3608+564990119+568435919+569877996+570545399+571715820+573164916+574151894
3598+575172631+577758085+582214035+586402382+588012353+587297819+586361784
3588+586666899+587606987+588372706+590051228+593875410+598422416+600511265
3578+599507770+598298264+598945278+600417425+601181270+601354730+601455709
3568+601401499+601365439+601662628+602184946+603101196+604831991+606932638
3558+607847436+606708174+604954267+605141038+608534079+614113439+619481767
3548+622650465+623393738+623104657+622938759+622490194+621073648+619748341
3538+620426332+622910928+624798788+624551091+622925812+621297205+620267936
3528+620309683+621627549+623115790+623272310+621674136+619089771+616946530
3518+616581095+617939376+619164189+618647800+616867332+615450666+615344363
3508+616542010+619111491+623315750+628424885+632457075+634262349+634334891
3498+632845259+629883177+627281690+627144894+628988284+630291085+629772276
3488+628619945+628347744+628633861+627940623+625974533+624407458+624850518
3478+627217799+630098989+631500470+630138195+627580996+627193780+630073397
3468+633391657+633847665+632237209+631731287+632732845+632812588+630782486
3458+627740783+624918825+623191660+623117726+623933239+624392453+624921850
3448+626636915+629034750+631142234+633090597+634315591+632904612+628407400
3438+623293062+620667616+621854373+626313166+632290632+637127082+638230164
3428+635347219+631218830+628643844+628290630+629055382+629123326+627793904
3418+626425943+626520387+627770248+628687647+628230248+626713995+625998613
3408+628196972+632977033+636875694+636826082+633523190+629777600+627340619
3398+626331438+626301731+627200012+629451976+632714937+635229663+635663526
3388+634918257+635047792+636701266+638349354+638216551+635888717+632341999
3378+629475269+629149342+631470944+634265313+635439304+635266085+635301177
3368+635978019+636610028+637100038+638099660+639574893+640439716+639945894
3358+639030854+639463145+641470497+643527643+644518190+644768973+645229337
3348+646306644+647622211+648501312+648438995+647557836+646327397+644975347
3338+643421219+641474793+639371786+638103835+638337374+638993887+638346147
3328+636864622+636860811+639126267+641650795+641969764+640270127+639582214
3318+642383782+647620819+651893749+653401834+653371765+653254027+652664611
3308+651047319+649533546+649533183+650497048+650529357+648837706+646410769
3298+644458232+643574169+644113005+646141775+649352825+653432509+657734964
3288+660739034+660823072+657794377+653632107+651411241+652493813+654964856
3278+656170611+656482259+658282330+661516734+663392251+662906960+662113167
3268+662098405+661227108+658523432+655970105+655290723+655170565+654093620
3258+653400745+655084772+658128593+659275660+657406617+655052040+654973569
3248+656645495+656983583+654746563+652665761+653955674+658539103+663634201
3238+666695809+666869149+664667644+661378909+658353239+656565511+656503919
3228+657537604+658001538+657335466+657347022+659909121+663872822+665722566
3218+663852554+660335604+657886643+656913158+656077316+654941805+654396980
3208+654614426+654769917+654673658+654664582+654224184+652434944+649488229
3198+646696946+645377870+645616916+645504925+642956620+639049429+637103486
3188+638178737+640184758+641101795+640971654+640830017+640937530+640537609
3178+639014398+637074203+636201817+636608273+636582015+634686290+631620688
3168+629101364+628173255+628659998+629538192+629908770+629288074+627253617
3158+623816893+620666285+620336849+623100724+626120163+626336822+623633086
3148+620521321+619054559+618843465+618175336+616471646+614635032+613370106
3138+612854987+613361454+614599940+615535188+615637195+615239875+614308136
3128+612309920+609665355+607716932+607051526+607170716+607725826+608703244
3118+609413967+608608376+606072172+603205684+601594986+601401801+601213941
3108+599658300+597323145+596444891+598230260+601319336+603546192+604312880
3098+604120240+602892402+600401392+597597524+595954458+595760547+596027061
3088+595894500+595475157+595341749+595646379+595737254+594632780+592150544
3078+589359502+587633366+587551385+588688529+590097633+591225642+592415666
3068+593967434+594956408+594032595+591327407+588286914+585869475+584200574
3058+583399097+583536196+584069405+584208803+583848147+583451009+583109895
3048+582462095+581535802+581098671+581876249+583453247+584171170+582603247
3038+579311306+576618520+576418741+578413630+580434898+580601764+578885671
3028+576457160+574369642+573169393+572824831+572528006+571505211+570176274
3018+569588371+569837641+569917928+569047841+567431517+565764854+564617545
3008+564262758+564565634+564907533+564727780+564181624+563779888+563480037
2998+562721275+561346416+559922005+559201299+559662026+561116809+562281664
2988+561541416+558835562+555887274+554085570+553218085+552630303+552390411
2978+552488606+552025460+550371744+548330208+547176244+547133408+547427148
2968+547323930+546636924+545652730+544821063+544211197+543425391+542327270
2958+541428989+541238467+541493001+541263394+539856045+537691326+536021880
2948+535684820+536447938+537430802+537768708+537041529+535505733+533854922
2938+532587697+531791665+531430647+531474874+531773333+531977771+531588679
2928+530282612+528415201+526852240+526078050+525893396+526014764+526268935
2918+526127844+524938848+523026545+521695793+521724229+522588023+523212167
2908+522907597+521784731+520627742+520052726+519766488+519068774+517810866
2898+516387484+515200424+514495268+514303959+514353994+514257190+513748606
2888+512672145+511021092+509196881+508030816+508139297+509038183+509348380
2878+508433158+507260680+506957835+507312137+507381897+506868019+506245115
2868+505918099+505732961+505278224+504428134+503486321+502851227+502661067
2858+502704992+502550801+501869059+500721659+499584756+499095594+499381377
2848+499539319+498483036+496420324+494658914+494001494+494034226+493798024
2838+492769058+491300299+490169567+489773760+489877280+489943560+489492302
2828+488393879+487067452+486138406+485761415+485453639+484679418+483543695
2818+482728424+482628081+482844649+482770050+482291233+481659556+481052111
2808+480464299+479825695+479179044+478710906+478497211+478368643+478095928
2798+477530320+476690122+475891731+475491356+475348539+474905843+473933930
2788+472865002+472224341+471937347+471436931+470457698+469344149+468421849
2778+467599257+466790217+466196536+465961575+465851400+465435808+464597425
2768+463772019+463425733+463362689+462946099+461921883+460591644+459297465
2758+458169608+457373879+457152923+457321151+457097896+455974153+454434061
2748+453308291+452849319+452789573+452746011+452343246+451457277+450374887
2738+449391298+448503696+447679017+447002780+446436537+445820984+445190094
2728+444807356+444840844+445093169+445097768+444517428+443422332+442185510
2718+441206125+440679602+440475073+440225258+439643315+438782576+437999795
2708+437693349+437948972+438288482+437945463+436696177+435221580+434264914
2698+433738724+433148854+432538445+432345411+432542710+432549033+431925494
2688+430805078+429666360+428858924+428396533+428146809+428063830+428136070
2678+428198327+427965392+427341067+426587811+425988322+425433725+424647979
2668+423729400+423077727+422798932+422540828+421968807+421169660+420490156
2658+420140966+420088782+420194480+420290467+420212449+419867676+419265434
2648+418536984+417898380+417439166+416979588+416386271+415857206+415566462
2638+415333376+414915061+414299236+413569334+412813083+412262510+412269891
2628+412935752+413733296+413782182+412831597+411661811+411110210+411103191
2618+411002122+410494778+409772560+409117045+408678130+408545690+408737876
2608+409061988+409170076+408874248+408342855+407936641+407878710+408100542
2598+408367449+408435152+408061730+407121733+405889932+404986871+404812170
2588+405133015+405328227+405005748+404406834+404146643+404434846+404748310
2578+404493836+403751773+403105153+402978884+403364799+403969249+404406320
2568+404376159+403877225+403240920+402825449+402703416+402760530+402949238
2558+403213089+403316609+403053393+402566983+402226777+402193017+402273788
2548+402261687+402260719+402483882+402812683+402870554+402561779+402231557
2538+402197312+402350626+402322190+401941750+401437280+401141634+401111201
2528+401178299+401278188+401488465+401793882+402057915+402167303+402001103
2518+401454523+400748217+400436659+400799432+401476425+401947134+402082630
2508+402018406+401834963+401630374+401634730+401950855+402330146+402467244
2498+402406954+402381784+402357583+402073191+401478754+400854066+400546380
2488+400744345+401351850+401998168+402363906+402495287+402603284+402685931
2478+402582623+402276692+401941568+401770497+401855624+402161404+402566408
2468+402923615+403101704+403084703+403065281+403272986+403644532+403826040
2458+403573291+402999908+402374917+401852145+401474307+401297186+401396380
2448+401763903+402235399+402582350+402762285+403008833+403506526+404058793
2438+404296023+404139503+403833330+403583032+403399043+403243068+403118191
2428+403015911+402899716+402756688+402605069+402469120+402401599+402490084
2418+402759592+403064404+403183776+403099617+403049944+403185016+403357841
2408+403422216+403514785+403822047+404301953+404850196+405458730+406026365
2398+406332477+406353593+406349569+406554915+406931210+407226826+407251329
2388+407080410+406838520+406253733+404677673+401670789+397409416+392466179
2378+387332450+382184261+376989485+371743948+366612700+361904939+357865731
2368+354406893+351205402+348226622+345924047+344810378+345082397+346661331
2358+349383883+353224311+358552011+365883251+374668428+382479786+386370702
2348+384990519+379485728+373077212+368925529+367623213+367733630+368185251
2338+368956930+370062039+370846151+370682915+369985473+369894386+371049712
2328+373072281+375093155+376500655+377346208+378218443+379725197+382071091
2318+385010697+388025476+390602823+392559081+394160401+395892436+398055855
2308+400485878+402659431+404177469+405132743+405947046+406966302+408280023
2298+409768778+411196668+412370931+413310656+414150007+414852804+415211614
2288+415163031+414914910+414734613+414753096+414915303+414997950+414804674
2278+414410380+414006283+413563012+412995528+412523215+412435003+412633481
2268+412765014+412663249+412424838+412219916+412181134+412375952+412825698
2258+413502358+414249201+414854740+415285064+415655219+415998782+416291645
2248+416551140+416711683+416652784+416448588+416273222+416073503+415642604
2238+414921838+414030212+413142005+412419575+411950438+411770110+411956821
2228+412525031+413210917+413601431+413569939+413436652+413586063+413996542
2218+414307677+414344281+414325162+414477598+414726959+414910070+415057484
2208+415302096+415681084+416174966+416829633+417683505+418611674+419414028
2198+420084124+420813391+421680361+422500927+423048595+423306639+423449031
2188+423681573+424143933+424848666+425638859+426282394+426682467+426945350
2178+427184154+427339101+427308910+427209444+427351595+427930392+428824891
2168+429729978+430404733+430804806+431071198+431383542+431774600+432155524
2158+432540260+433090772+433910400+434942935+436048558+437031694+437712650
2148+438136318+438590269+439306921+440268760+441333180+442418716+443550113
2138+444796586+446194920+447747505+449478785+451412566+453490464+455577650
2128+457561013+459481604+461591055+464114040+466851052+469227470+470895192
2118+472116102+473406711+474920333+476294436+477138778+477643067+478474069
2108+479983334+481860788+483777749+485988299+488959094+492697453+496679940
2098+500200793+502723960+504182100+504916056+505074966+504245628+501960660
2088+498363634+494028478+489289800+484142095+478776612+473812532+469770692
2078+466577793+463859294+461507440+459640242+458190783+456942828+455885577
2068+455142274+454580810+453890386+453098196+452601501+452558363+452667812
2058+452672138+452680699+452901019+453380168+454040220+454748977+455426363
2048+456176836+457161333+458316054+459399321+460391986+461723071+463949715
2038+467219664+471209442+475614962+480459096+485847812+491705968+497792521
2028+503693694+508865267+512942652+515924700+518013005+519494409+520651338
2018+521447067+521468787+520471464+518774550+516932067+515243563+513669953
2008+512014483+510103269+507885066+505428966+502883958+500452998+498296597
1998+496465943+495093443+494495013+494754417+495365674+495686549+495616760
1988+495466472+495477634+495819050+496666902+497998683+499519716+500921378
1978+502127193+503319940+504742051+506430071+508237009+510078463+511956824
1968+513788235+515474803+517131120+518956360+520913374+522812185+524673545
1958+526715504+528974850+531241455+533398067+535581845+537965704+540529498
1948+543086637+545496997+547792099+550035048+552214651+554427228+556861909
1938+559442825+561869884+564080464+566289169+568555411+570679775+572519717
1928+574234479+576218962+578615587+580897742+582457073+583585566+585043616
1918+586805691+588155563+588916261+589620571+590651231+591995052+593522196
1908+595065797+596500735+597887876+599244282+600265806+600594758+600284259
1898+599831943+599784146+600291278+601077084+601918311+602786462+603371037
1888+603246220+602706538+602486248+602771155+603187956+603348591+602963492
1878+601983593+600822853+599942057+599498392+599710877+600783889+602017596
1868+601902641+599914528+597130324+594683784+592827688+591280034+589763115
1858+588189202+586549040+584793136+582973644+581407415+580439012+580124217
1848+580407127+581357803+582621640+582804539+580761369+577301110+574148626
1838+572268027+571463343+570934491+570327953+570055390+570349674+570485865
1828+569580626+567637346+565128973+562536440+560417581+559054581+558179836
1818+557411514+556731042+556411589+556709504+557597983+558556645+558865511
1808+558372597+557648200+557388402+557986409+559403499+561132358+562512844
1798+563341305+564053540+565327300+567505451+569953080+571316141+571346271
1788+571314931+572270628+574054727+575959588+577835710+579971207+582270060
1778+584360724+586462945+589532842+594047721+598439235+600149520+599197150
1768+597657785+596757447+596867138+598362639+600937747+603188803+604450825
1758+605643511+607334436+609095482+611049471+614149136+618461089+622328047
1748+624314949+624878772+625141353+625763864+627184220+629577155+632378724
1738+635192212+638970775+644411040+649175310+650026883+648362701+647152167
1728+647045077+647576410+648555825+649965594+651992247+655378693+660796996
1718+667399272+672391395+674074393+673922713+674036095+675389536+678044628
1708+681715074+685829426+689488618+692702209+697183569+704051572+710547303
1698+713053257+712811912+712387608+712191762+712237260+713256424+715670354
1688+719389019+724611173+731024863+735878192+737187346+737417739+738927640
1678+741978600+746240579+751036189+755064507+757947633+760701768+763639407
1668+765768369+767012180+768479487+770312108+771281661+770877262+770650498
1658+772567157+777645496+786129763+796098762+801239600+799880895+798202737
1648+799483152+802146835+802108840+798463866+794326946+792549322+794434701
1638+799842900+806062013+807630601+803404320+798938932+797803905+799184814
1628+800274222+799182333+796511873+793693666+791118135+788886197+787711299
1618+787654064+786874005+783564941+779114134+775743842+773620204+771698099
1608+769849687+769114461+769572767+769656624+768308204+766444243+765400635
1598+765197710+765123654+765038709+765161287+765114156+764417832+763656771
1588+763791692+764456735+764320302+763074374+761746041+761340069+762383133
1578+765119843+768388431+769115187+766544495+763536674+762058960+761805092
1568+761882414+761996401+761695461+760803654+760984557+764944930+772516275
1558+776523901+772597046+766430690+762424395+761201337+761714882+762599248
1548+763535645+765576879+769714888+775632759+782195769+787727211+789138674
1538+786122745+783333882+783826372+786560965+788506181+789067281+790427620
1528+793514700+797120468+800283479+803867769+808818508+814177034+818376332
1518+821429772+823810970+825647281+827851509+831975905+839013073+849167996
1508+861304558+870299587+870798249+867048545+865108955+866304727+869955993
1498+874574936+877585118+877596492+876942400+879028103+884787095+891095994
1488+893180487+890954418+888614000+889268092+893447424+900118431+907467308
1478+914032375+919592072+924854097+930444529+935183751+936941651+936569561
1468+936946673+939084711+941433116+942929524+945224264+949945577+956553722
1458+962205322+962360511+956482208+949687473+945828926+946023623+949304311
1448+952505257+952989761+952150712+952983106+955644490+958149718+960018156
1438+962974430+967990572+972931147+975464931+976397094+977619607+979777913
1428+982636173+986081731+989669530+992379800+993575088+993761133+994195843
1418+995705744+996975329+995709677+992278337+990158874+991825295+995479283
1408+997736632+998143693+998364164+998620937+997880023+996470254+995711915
1398+995997911+996540921+996488465+995932750+996225158+998495212+1001484944
1388+1002047557+999132304+996406545+997928909+1003338378+1009198772+1013115039
1378+1015475242+1017070573+1016887129+1014083927+1010167538+1007388900
1370+1006839295+1008883131+1013567114+1019771405+1024850348+1026582414
1361+1025728966+1025038753+1026069353+1028666605+1032194385+1035829376
1352+1038727810+1040540465+1041396938+1041431425+1040678774+1039407495
1344+1038649156+1040150829+1044518626+1049190993+1051238156+1052347651
1335+1055752127+1060777103+1064791081+1067105424+1068341732+1068323460
1327+1066783550+1064702990+1063017753+1061148467+1058497852+1056309355
1318+1056198636+1057592614+1058386649+1057230567+1054297889+1051144982
1310+1049873703+1051701363+1056116110+1061492848+1066900199+1071733261
1301+1073741823+1070559391+1062562774+1052568606+1043617986+1037089160
1293+1032540944+1028964519+1025814880+1023113684+1021199627+1020132000
1284+1019031943+1016523993+1011863121+1005476053+998461392+991746278+986126018
1274+982501797+980806638+978453211+972207658+962806051+954549334+950044559
1264+947976886+945342728+940103634+932126196+923020931+915087842+909633177
1254+905806696+901310815+894701339+886715854+878886285+871511997+863729498
1244+855017681+845902131+837366618+830017862+823850841+818675335+814462485
1234+811248773+808891837+806948980+804856561+802311644+799706467+798009613
1224+797814674+798739394+799922884+800796117+801244864+801372706+801461039
1214+802111986+804081040+807548137+811564293+814812552+817266352+820314469
1204+824764550+829816086+834275242+837713176+840241818+842056531+843429030
1194+844859430+847281648+851463038+856717197+861351992+865120693+869724329
1184+876099963+882793295+887884097+891408187+894946435+899795106+906219928
1174+913676560+921123754+927459153+932284773+936085601+939640063+943714363
1164+948587114+952983408+954611107+953230016+951888373+953041309+955726350
1154+957730193+958218449+957715370+957078884+956856718+956511915+954826980
1144+952364952+951747584+954274290+958354156+962337460+966713969+971910409
1134+976255215+978188149+978718817+979629501+980726411+980899812+980959286
1124+983150989+988212266+994493334+1000236354+1003856037+1002941966+998519716
1114+996354210+1000342112+1007450794+1010989768+1009325223+1006874205
1105+1005966789+1004501297+1001774146+1000533966+1002261494+1004083466
1097+1001893457+995144583+986832567+980654837+979175974+982221368+987468448
1087+991746278+991726917+986329791+977887694+970318830+967113165+968872638
1077+971348825+968834340+961425626+954362018+950256015+947415544+944587838
1067+942875617+943133115+944299120+944536350+942926620+940603021+939843715
1057+941157285+942531297+942032756+939883525+937779853+936942256+936895306
1047+935757980+933034399+931901792+936026853+943954558+949457745+949101688
1037+945719658+942464200+939514218+937379326+938021500+941715057+945610572
1027+946539104+944867299+943167481+942106993+940486735+938773788+939605032
1017+943999451+949736178+954045893+955260723+952142242+944307651+932825968
1007+919948855+908739434+901817100+898898398+896074383+889696087+880642975
997+872301071+866229885+861942375+858693753+856061712+853615656+851141769
987+849069921+847903070+847341606+846253227+843423161+838644249+833420100
977+829688547+827469012+825045160+821713287+818617555+816543226+814650042
967+811738964+807709557+803657462+800967278+800064944+800141782+800529119
957+801754174+804470253+808153222+811782949+815219129+819118939+823965433
947+829652487+835468412+840542637+844824762+849286641+854715108+860931136
937+867501346+874264861+880719995+886048633+890490909+895616016+902075566
927+907685480+909193203+905683876+899185362+892831327+889283278+889803056
917+893779946+899138049+903196860+903346361+898852416+892493360+888114975
907+886734247+886857128+887783905+890461988+895136957+899926396+902674541
897+903681606+905256123+908654307+912768478+915869232+917464925+917907985
887+917824128+918310387+920066291+922644484+925078621+926483732+926408951
877+925607353+925491914+926124710+926006367+924410311+922899805+923983344
867+928444679+933715415+935898891+934874643+934867262+938200225+941934621
857+941614200+937135864+933631861+935571995+941272119+944945408+944370210
847+942794180+943170082+945262501+948181687+952072664+956255626+958862316
837+959138329+958523079+958960088+960225196+960168686+958072819+955985664
827+956555597+960403799+965143566+967572681+967745416+968639159+971377987
817+973491098+973063647+972790478+976189873+982368086+987440012+988438848
807+985217936+980460079+977733534+978386840+979798968+978904136+977463995
797+978777686+981081501+979959845+974815074+967850690+960607209+954138280
787+949356646+945960458+942957235+941015164+941185902+940836682+935626387
777+925928742+916152928+909254552+906247215+907817134+913308705+920152204
767+926228714+931598856+936480683+939867250+941176888+942417855+946349066
757+951450396+952359627+947555546+941839451+940039017+942635906+946416526
747+947080965+943149209+937908058+936168369+939221991+944672904+949793595
737+953992227+958841140+964678967+968446035+967943985+966469600+968526019
727+972808811+974641190+974106892+973892532+973280488+970360093+966146698
717+963526576+963821889+966806659+970381631+970567616+965762204+960494674
707+959397037+960443549+958596650+952901730+946786015+943755081+944575798
697+946871384+946874591+942484770+935090032+928012751+923963016+924177013
687+927450683+930079214+929597614+928337347+929604209+931317882+928334443
677+920947207+914921218+913013816+912181906+907941587+900100643+895637010
667+900438974+906864461+905814622+899845383+896046491+896494028+897839362
657+897000434+894089174+892271558+894470038+898464656+899697515+899388892
647+903640706+913181165+919478327+916335827+907847204+898044647+888213110
637+880949057+879416650+883530458+889206077+894009190+898956359+905480587
627+910121069+904462330+889802814+877957692+873474093+870130603+864695179
617+860997144+860582581+862729452+867987786+874199095+877371907+878719419
607+881915101+885644899+885769958+880664756+867685213+847962725
##END=
