##TITLE=<SNM>
##JCAMP-DX=4.24
##DATA TYPE=INFRARED SPECTRUM
##DATE=29/4/2025
##SAMPLING PROCEDURE=Instrument type and / or accessory
##ORIGIN=Admin
##XUNITS=1/CM
##YUNITS=ABSORBANCE
##RESOLUTION=4
##FIRSTX=4497.3318
##LASTX=599.83466
##DELTAX=-1.4281778
##MAXY=2.1202295
##MINY=0.38220629
##XFACTOR=1
##YFACTOR=1.9746176e-09
##NPOINTS=2730
##FIRSTY=0.39792138
##XYDATA=(X++(Y..Y))
4497+201518201+200666792+200045395+199520576+199317760+199568178+199807519
4487+199570865+199163754+199329834+200307027+201669672+202991823+204086859
4477+204539791+203724800+201697035+199520289+198262191+198063873+198489533
4467+199244802+200139271+200842244+201220694+201586783+202175504+202701258
4457+202742295+202284398+201631698+200949448+200167646+199313006+198796171
4447+199180024+200458361+201742162+201959799+200857684+199139696+197745764
4437+197316603+198093183+199717128+201204031+201642701+200934446+199574170
4427+197931586+196104568+194398761+193559651+194066842+195310149+196194974
4417+196539601+196942531+197484721+197636055+197238680+196672024+196238199
4407+196049208+196261246+196939421+197826103+198453718+198399973+197478789
4397+195951393+194618556+194364062+195293245+196550513+197233895+197276804
4387+197289859+197712772+198182245+197839913+196531903+195330282+195223954
4377+195863010+196313119+196333796+196163098+195812645+195358219+195340545
4367+196202445+197630335+198846279+199352519+199148526+198460887+197570191
4357+196824174+196577000+196868969+197129786+196642986+195655560+195430256
4347+196669473+198513062+199580479+199392695+198353442+197069853+196101640
4337+195834681+196257820+196887985+197038958+196486459+195877499+196035610
4327+196883714+197532791+197410148+196894928+196858721+197710447+198848694
4317+199309172+198987064+198576889+198321747+197804988+197117259+197115885
4307+198128832+199336777+199822823+199552950+199088894+198848256+198870412
4297+199002519+199117706+199204927+199267743+199274776+199287877+199428209
4287+199658554+199771553+199657301+199537495+199783008+200431481+201098941
4277+201430679+201381054+201131934+201053270+201451959+202089083+202468136
4267+202669880+203078530+203381245+202879744+201722496+200865638+200884594
4257+201429577+201788180+201771955+201881060+202523783+203541922+204647146
4247+205620248+205912594+205032628+203505533+202462401+202320092+202668854
4237+203180165+203886488+204781274+205666613+206229254+206126216+205303226
4227+204246117+203549966+203253832+202994736+202800945+203155367+204124063
4217+205084849+205670174+206311041+207344831+208199214+208092810+207160715
4207+206295601+206061860+206202796+206142757+205695364+205256227+205408980
4197+206267242+207221086+207598298+207473436+207414876+207601980+207732834
4187+207595717+207160655+206341740+205232863+204412243+204551005+205827757
4177+207779591+209460813+210028737+209587516+209151881+209409996+209916643
4167+209916115+209509065+209389500+209763603+210228217+210536395+210782693
4157+210894545+210556468+209716046+208763274+208166312+208158690+208659934
4147+209295382+209617702+209545197+209494742+209859910+210482529+210937846
4137+211194316+211503475+211798251+211810023+211683214+211887811+212484999
4127+212958608+212976734+212885333+213046508+213138151+212727162+212211625
4117+212434152+213480725+214434765+214407644+213568670+212882737+212813748
4107+212796331+212352908+212082673+212825415+214422284+215992167+216992783
4097+217515307+217808921+217833326+217311948+216236487+215101953+214409923
4087+214227452+214452982+215092385+215944926+216478288+216455301+216352958
4077+216745444+217506810+218043643+218145171+218113477+218162286+218176640
4067+218004477+217598302+216987349+216434911+216395927+216985508+217726439
4057+218152416+218402487+218874421+219542620+219962137+219852156+219427085
4047+219120145+219090322+219058521+218640680+217852388+217195448+217147528
4037+217645935+218215835+218576551+218912469+219515423+220380929+221189793
4027+221600933+221645019+221780808+222334167+223034800+223402112+223335402
4017+223037698+222679714+222396349+222292285+222270687+222097257+221704620
4007+221287397+221094497+221248428+221721810+222340868+222852345+223109630
3997+223150350+223024854+222752672+222561735+222804546+223455193+224108420
3987+224594239+225046598+225309256+224954638+224021637+223166379+222996722
3977+223666068+225009892+226581315+227606773+227476991+226467395+225570918
3967+225456968+225922578+226438432+226820293+227190939+227564604+227690825
3957+227356823+226847293+226887923+227909035+229553853+231005938+231550150
3947+230956313+229791111+229112044+229342465+229754933+229439843+228386765
3937+227388216+227485262+229385675+232637384+235377630+235866891+234488368
3927+233216476+233300285+234082555+234165218+233543082+233554643+234756898
3917+235892216+235318693+233053233+230614191+229306529+229333002+230377009
3907+232698645+237027007+243030779+248475564+251162639+250905067+248435598
3897+244432137+240326770+238208509+239057791+241177259+241659833+240754362
3887+241416177+244398737+246969266+247315719+246855497+246034198+243330853
3878+239602441+238091767+240259502+244758245+249825199+253955272+254889209
3868+252451752+249894610+249304304+249010057+246778992+243405410+241094083
3858+241294907+245329489+254375966+264517661+265984763+258289565+248985833
3848+242901239+241302468+243296215+247018936+250988288+254795453+258226568
3838+260142135+259533053+257197487+254697864+252761635+251415577+250834116
3828+251183768+252122580+253803047+257517211+262944095+265833594+263853431
3818+260763230+259164399+256881959+252367067+248000053+246540467+248840218
3808+253406471+257108591+259063912+261686994+265519666+266905901+264206932
3798+260528659+257737806+254991507+251982882+249849920+249275205+250016846
3788+251863106+254524479+256944473+258399138+259820177+262169900+264252633
3778+264163616+262394449+261224825+262309658+265791425+270199884+273509503
3768+275453202+277215245+279077655+280863152+283586148+288307478+293894406
3758+297928022+300347835+303829813+310945209+321344325+330012941+332662918
3748+332829723+335999403+342393669+346148613+344379114+342158042+344663763
3738+353339835+365260477+374401132+377171912+375256315+372173691+370435826
3728+371404868+375270744+380671820+385668652+389453390+392373617+394990360
3718+397923054+402233078+409316327+419741221+431216718+439064020+441489267
3708+440937809+440318193+441456998+444835380+449056085+452159538+454166687
3698+456414021+459466792+463339792+468426215+475031779+481921026+485530688
3688+483253410+477691536+473322289+472474622+475143103+479921272+486095457
3678+494646743+504284945+508512683+505313724+501105847+499518125+497520545
3668+492660271+487855659+486187009+487863598+491375670+495360235+499755503
3658+504799968+509250233+512060978+515726936+523980956+535764012+542651840
3648+539364468+532636683+528872562+527786068+527096211+526359566+526840058
3638+529283567+532832767+536150989+539448625+545021456+554307213+563288459
3628+564490563+558527314+552420685+550501376+554413767+563647605+573203522
3618+576212706+572622211+567981868+565373849+564388355+564896859+567399592
3608+570741962+572917727+573557778+573599313+573790508+574623746+576427988
3598+578859785+580964010+581736455+580677370+579025201+579968012+585504983
3588+592530517+594791283+591420237+587388009+586045905+586663801+587071908
3578+586796496+586955573+587762006+588163593+588258315+589987577+594418856
3568+599613946+602416299+602184234+600937697+600083148+599640268+599685365
3558+600364355+601133842+601566218+602318680+604193798+607168932+610692053
3548+614341227+617534059+619067659+618228203+616443219+616057751+617471213
3538+619014955+619572178+620021397+621450496+623498515+625209666+626324836
3528+627144249+627827586+628263524+628011657+626505405+624085018+622340603
3518+622520146+623764630+623864483+622346700+621232014+621632393+621952298
3508+620896895+619861898+620858680+623729736+626147889+626522611+625791882
3498+625798583+627247483+629411777+631644894+634702133+639083002+643097964
3488+644660542+644173832+643656273+643487838+642693117+640912178+638323960
3478+636141253+636535655+639745572+642835351+643416903+642476748+641446761
3468+639559388+636151274+633240857+633544945+636852723+639193843+636757216
3458+630734019+625703016+624250011+625546052+627668509+629106120+629057400
3448+627677505+625985491+625024992+624896341+625212322+625970520+627132779
3438+628303610+629314822+629802799+628637159+625951865+624433659+625929467
3428+628548837+629319772+627999462+626416479+626025034+627026405+628000670
3418+627011192+624733702+624367916+627039325+630285464+632135165+633519468
3408+635267989+635877191+634195742+632065256+632031931+633981849+635873991
3398+636980648+638279708+639483200+638080665+632645118+625665345+621411858
3388+621564053+623778757+624692469+623863940+623677575+625903206+629764826
3378+633313000+635910334+638366038+640477327+640503226+638323537+636606772
3368+637431800+639736335+641125649+641202742+640861225+639331851+635715940
3358+632247334+632199943+635589705+639483744+641973859+643538007+644403543
3348+643505406+641152212+640370591+643703181+649615296+653523039+652509534
3338+647950752+643254505+640492661+639383830+638454119+636933257+635532352
3328+635538812+637568358+640715610+642649288+641770228+639354610+637973326
3318+638287194+639128763+639994843+641977964+645747760+649281989+649540738
3308+646626397+643647157+642801664+643871797+645632331+646779376+645964551
3298+643251668+640711022+640380975+642768822+646746293+649795624+649809207
3288+647840514+646821576+647483059+648310199+648638254+649177245+650281065
3278+651485765+652755364+654975561+658508703+661731901+662080965+659143623
3268+655624970+654520908+656208756+658502666+659057655+657412188+654966264
3258+653657787+654635552+657585935+660794584+662339835+661768063+660110160
3248+658217353+656415465+655450438+656041408+657945685+660468400+663163776
3238+665489985+666579558+665691624+662648210+658601131+656041106+656510067
3228+658939751+660811971+660396378+657741329+654090766+650966516+649236710
3218+648982247+649904653+650948163+650748577+649615115+649542247+651405713
3208+653168179+652022100+648116771+644388631+643019783+643683198+645021620
3198+646384551+647846974+649532829+650932829+650629828+647892313+644173409
3188+641779404+641352100+641345640+640266451+638699949+638214688+639062597
3178+639903140+639419750+637434456+634549817+631612113+629620721+629100505
3168+629191363+628492269+626960903+625850744+625825026+626236936+626055461
3158+624465656+621198206+617399372+615139933+615120735+616108885+616969049
3148+617474775+617263900+616103331+614810309+614367670+614738286+615271602
3138+615341934+614575587+613433552+612979020+613132845+612452043+610440487
3128+608230312+606410071+604357885+602283001+601799189+603508226+605475893
3118+605411658+603478283+601469383+600230151+599440682+599091799+599693696
3108+601395731+603506295+604937868+605274013+605119162+605010977+604459067
3098+602785527+600328857+597924710+596047419+595031016+594891861+594771119
3088+594018657+593622021+594926333+597240105+598251377+596818415+593969214
3078+591201151+588977150+586842921+584410037+582183863+581486037+583191271
3068+586341058+588517306+588146086+585910011+583372927+581236524+579557551
3058+578667082+578957344+580057663+580905330+580635472+579237465+577510437
3048+576482443+576795767+578349954+580241854+581212436+580670306+579302364
3038+578147772+577490756+577096716+576749583+576109109+574646083+572119805
3028+569002075+566388199+565287941+565649442+566263292+566072339+565367268
3018+565374452+566813995+568874511+569584714+567609984+563712444+559976939
3008+558009453+558127358+559582959+561102130+561654221+561245330+560706520
2998+560561872+560544062+560180509+559164408+557212921+554489110+552040530
2988+550961281+551075744+551020987+549873761+548196176+547185025+547324120
2978+548182049+549179677+549933648+549999634+549001040+547090424+544963258
2968+543392530+542672970+542354876+541807494+541093307+540834558+541287037
2958+541947434+541899197+540552505+538374085+536546056+535680821+535428894
2948+535288230+535015535+534376570+533254156+531948335+531007999+530892328
2938+531482816+531738607+530675959+528795348+527611959+527793373+528640376
2928+529382756+529955192+530276788+529835658+528440066+526655927+525148890
2918+524141120+523571823+523230064+522736834+521800362+520614739+519773532
2908+519625805+519888418+519962976+519437568+518306159+517011688+516219985
2898+516210325+516516768+516339941+515371895+514080141+513078227+512460331
2888+511844609+510938262+509785481+508538763+507431925+506852425+506957229
2878+507286793+507130795+506267824+505127057+504294393+504063595+504389990
2868+504908303+504953310+504143767+503074328+502697675+502971336+502847576
2858+501641789+499739746+497987634+497062964+497263667+498250428+499100449
2848+499038297+497996569+496405345+494794108+493485268+492349421+491088154
2838+489889280+489341355+489501579+489596633+489046020+488128414+487190282
2828+486072124+484854867+484230210+484534448+485162909+485392831+485183616
2818+484796005+484162957+483086122+481784014+480802717+480332035+479998487
2808+479470966+478837707+478167621+477250890+476082744+475081374+474549024
2798+474276691+473863090+473231249+472659930+472329219+472053384+471593721
2788+470985545+470344015+469597258+468649949+467653076+466927358+466606125
2778+466376384+465727428+464562150+463335807+462498826+462091293+461947942
2768+461953436+461927960+461566037+460753566+459729918+458716866+457695331
2758+456747207+456188234+456118053+456245013+456258958+455919252+454881719
2748+453093776+451230401+450168236+450160026+450701884+450998003+450498223
2738+449206076+447645642+446493102+446111710+446333904+446630476+446503516
2728+445778312+444634647+443507433+442899106+442993828+443362211+443314458
2718+442632780+441683872+440815951+440004627+439108603+438157491+437321446
2708+436743033+436393818+436086319+435704142+435349916+435153077+435019054
2698+434675181+433959666+433015406+432117662+431365925+430701514+430080690
2688+429392795+428467431+427466724+426883874+426866698+426964771+426748673
2678+426308480+425995578+425913262+425736375+425025418+423753194+422399680
2668+421514734+421377844+421939232+422761573+423149214+422658550+421462151
2658+420155546+419336947+419223813+419444709+419362575+418717090+417766461
2648+416861412+416209588+415972663+416192231+416585034+416689445+416309441
2638+415668967+415068066+414530192+413931374+413386648+413240038+413588558
2628+414025221+414013146+413400232+412475079+411654941+411201888+411104390
2618+411107468+410909331+410411997+409784683+409238056+408762454+408187030
2608+407484555+406845862+406400869+406097173+405930851+406024788+406362503
2598+406708307+406900075+406962830+406881843+406527798+405888773+405211352
2588+404812301+404757575+404793314+404712025+404685582+404958157+405307221
2578+405215578+404565867+403790676+403336778+403290081+403486678+403689826
2568+403659309+403295786+402758576+402311560+402085773+402061867+402150732
2558+402206062+402084958+401780780+401435217+401205235+401131522+401107042
2548+401023247+400966015+401126662+401515269+401914532+402062832+401789111
2538+401177766+400675934+400709500+401132458+401372009+401149482+400769206
2528+400653777+400818137+400926261+400806848+400677865+400734644+400813307
2518+400708805+400557667+400612091+400822333+400922488+400829487+400721121
2508+400776089+401000396+401256399+401356554+401204933+400954756+400880470
2498+401018779+401131492+401042837+400805067+400560686+400453105+400599746
2488+400950923+401227693+401155157+400750914+400317482+400185028+400485796
2478+401093881+401719926+402123264+402288167+402357291+402430219+402512474
2468+402580905+402589236+402484583+402275670+401991927+401628796+401287490
2458+401228055+401557951+402002763+402222875+402253846+402369788+402597084
2448+402675506+402501849+402312768+402329521+402433479+402336342+401993376
2438+401705498+401755877+402064915+402336493+402473445+402669559+403056446
2428+403406204+403346467+402868964+402398011+402265105+402393031+402618093
2418+402996045+403585596+404183539+404474254+404346751+403992284+403742107
2408+403805768+404098325+404307178+404221150+404024431+404107200+404548420
2398+405017411+405252283+405362883+405581244+405963240+406404551+406786065
2388+407045870+407124956+406849363+405935349+404179554+401654756+398711165
2378+395756708+393021004+390579396+388469889+386496970+384150779+381279331
2368+378586460+376845577+375969234+375443254+375302650+376043883+377791256
2358+380070073+382399089+384964879+388576775+393521055+398505421+401466369
2348+401288486+398574335+395185901+392698925+391236653+390341777+389958603
2338+390096913+390572967+391130461+391415260+391241393+391016873+391352143
2328+392251789+393160913+393637601+393715600+393889468+394789024+396515478
2318+398363339+399503743+399847314+400056831+400847930+402350862+404063552
2308+405440157+406454870+407409484+408359600+409078798+409511626+409918616
2298+410542609+411364044+412249443+413164031+414063496+414678222+414696484
2288+414221275+413812353+413922771+414392668+414651025+414413133+413989179
2278+413797623+413795117+413602323+413058231+412425062+412048982+411958033
2268+411899745+411752138+411689926+411854769+412109262+412292246+412503634
2258+412942289+413614065+414368912+415129131+415897471+416563059+416893076
2248+416769074+416295858+415670899+415085423+414676109+414393996+414006053
2238+413381245+412697968+412262543+412184967+412271991+412243587+412058762
2228+411935847+412004941+412114243+412104130+412069719+412158947+412284911
2218+412267403+412153846+412199245+412602341+413390512+414430701+415428208
2208+416068260+416291119+416341347+416526323+417011101+417792571+418759108
2198+419787857+420817331+421804152+422647774+423228632+423527045+423679119
2188+423878101+424185177+424485069+424686134+424893870+425293525+425905384
2178+426555215+427075642+427424163+427578923+427507414+427389812+427645874
2168+428438634+429328922+429785537+429892001+430166417+430829560+431654075
2158+432428964+433195281+434038118+434935531+435829079+436664611+437374421
2148+437935749+438433446+439015300+439832299+441000202+442510228+444213228
2138+445977445+447770700+449498332+450939413+452054402+453223604+454914862
2128+457137444+459451277+461553630+463603552+465820912+468042287+469923623
2118+471366123+472503781+473458183+474299270+475087924+475843918+476622641
2108+477647828+479184446+481234398+483500145+485684000+487666487+489336766
2098+490481639+491040401+491289642+491503807+491506313+490759707+488874296
2088+485927505+482360495+478688410+475247363+472066002+468955305+465801080
2078+462783475+460235947+458288354+456777966+455570550+454785820+454519222
2068+454465069+454068312+453075575+451802897+450827516+450467857+450570276
2058+450768111+450896761+451082915+451487762+452108404+452803544+453419779
2048+453930063+454474367+455230239+456272602+457575857+459119479+461018534
2038+463513569+466705888+470408551+474424328+478786693+483552306+488541773
2028+493361146+497530506+500661608+502646179+503669434+504142439+504570619
2018+505140822+505485177+505228118+504560205+503911068+503411198+502873656
2008+501966735+500418374+498317168+496104698+494211167+492827558+491876084
1998+491133130+490632686+490786904+491704027+492704492+493077856+492993608
1988+493050236+493408265+493924345+494710615+496033340+497806551+499579552
1978+501043575+502306321+503604445+504975466+506393878+508067629+510278892
1968+512899287+515359640+517261804+518756344+520205063+521816239+523628330
1958+525547096+527462239+529473856+531780263+534320184+536907798+539624304
1948+542652867+545942111+549325594+552551871+555041322+556321727+556792197
1938+557418363+558880242+561263381+564184121+567070088+569516857+571463092
1928+573233104+575500451+578626573+581915394+584451150+586606931+589199375
1918+591499685+592000159+590944153+590101497+590594485+592157546+593728576
1908+594411128+594288998+594216010+594732905+595572180+596212775+596539622
1898+596919415+597763158+599047547+600442717+601784157+602849158+603006485
1888+602086312+601066287+600814541+601004045+600946934+600666632+600591893
1878+600822751+601056145+600946632+600635964+600988711+602739646+604969623
1868+605127130+601978007+597310678+593443082+591025231+589487344+588249863
1858+587073477+585898299+584771417+583683716+582527735+581417637+580825278
1848+581299431+583006114+584989597+585054979+582155549+578103399+575058536
1838+573315208+571825679+570109457+569325904+570785912+573477243+574238278
1828+571805998+568331597+565534073+562955575+560159923+557937129+556938596
1818+556774810+556729290+556777104+557495034+558923347+559978086+559622079
1808+558294585+557331731+557674094+559655404+562949356+566156738+567562895
1798+567165051+566991726+569087983+573563815+577703080+578086133+575237415
1788+572743436+572644730+574354371+576569014+578936154+581502518+583940714
1778+586290649+589478530+594459847+600886865+606216763+607689932+605910502
1768+603268977+601145071+600543476+602282699+605430011+607677858+608548224
1758+609347413+610227560+611004351+613398899+619388832+627817384+634085626
1748+635254828+633437243+632264782+633312698+635891619+638346901+639506805
1738+640327848+643620775+650736986+657812144+658944520+655478510+651967887
1728+650046645+649896141+651479064+654103927+657377475+662630823+671532259
1718+682509728+689252786+687834193+682189340+677502390+675943676+677582382
1708+681690556+687099178+692440607+697653628+704209175+712078089+717993041
1698+720351609+720859871+719030333+714526669+710926455+711143066+714532827
1688+719724416+727953442+740356688+750915545+751593872+746307742+742718033
1678+743861456+749267784+756224254+762121638+767264749+772332155+774737933
1668+772255907+768505128+768284111+772106670+776516518+778365857+778667168
1658+780201613+784803922+793680064+805590201+812696209+811738909+810045386
1648+811105015+811989085+808660902+802749572+798419415+797334249+799465218
1638+804176618+809166387+809878521+805326984+800537404+798907935+799718233
1628+800606891+800561673+800332506+799607573+796578286+791852759+788805240
1618+789026318+789742558+787068674+782113859+778174482+775961348+774104100
1608+771408120+768144654+765537661+764577342+765053366+765506268+764784052
1598+763457705+762792056+762910323+763078757+763143233+763219904+762652479
1588+760886632+758798587+757827582+758239794+759167271+760223579+762337343
1578+766459644+771041790+772173803+769879047+768551312+769907422+770848905
1568+767970122+763018930+759726788+759897275+764786527+776406522+792789171
1558+800233498+792452664+781705390+774968972+771850759+770362195+769450716
1548+769839565+773318494+780824821+791336408+802521974+810540427+809764662
1538+801797524+795771913+795616518+798393274+798670980+795839528+794480520
1528+797524961+804201128+812719029+822866157+833849783+841522492+843408356
1518+842807425+842642552+842611582+842542276+844014600+848850061+857890471
1508+869571682+877038285+874256700+867588018+864713944+867091468+873270180
1498+880378965+884379076+883395031+881004528+882545433+890123360+900100302
1488+905476867+904241197+900460414+898085547+898647539+901814411+906250761
1478+911257796+917840148+926917445+936582995+942323053+941680707+937095000
1468+931971207+928141825+926659541+928133494+932641142+940244787+951142204
1458+964074479+973174777+972306584+964619024+956984047+952726575+951118840
1448+949689682+948103016+948131209+949686361+950683265+950836184+952651353
1438+957916233+964684285+969695184+973568093+978130316+982097102+982955213
1428+981182846+979665486+979720182+980614575+981937240+984817713+990152320
1418+995550679+996876242+993792983+989665309+987497151+987322498+987172900
1408+986820696+988284266+991812699+994436536+994135044+992588404+992327723
1398+994008446+996926832+1000999207+1006269821+1010103066+1009156392+1004174350
1388+999398716+997985616+999340699+1000788029+1000385477+998278294+996507195
1378+997067496+1000070100+1004116394+1008054383+1011730664+1014616812
1370+1014445962+1010244696+1006409579+1008843912+1017667712+1026718626
1361+1030889284+1031337357+1031084886+1031147309+1031675071+1032731681
1352+1034164643+1036059925+1038486952+1040606934+1041235274+1040922553
1344+1042075636+1046271287+1051808016+1054551870+1052729758+1049229820
1335+1047391287+1047730088+1049432545+1052340004+1055752766+1058001217
1327+1059632679+1063488925+1069400436+1073474863+1073741823+1072221082
1318+1070580807+1068424723+1066156833+1065576186+1067269467+1069330527
1310+1069513813+1067619618+1064702620+1061234920+1057300071+1053929568
1301+1053010241+1055016484+1057296448+1056002581+1049981195+1041467460
1293+1033454803+1027882214+1025178808+1024027295+1022283061+1018551178
1284+1012850965+1006360619+1000730134+996979295+994686531+992383385+988651804
1274+983027175+976413792+970561566+966483577+963489003+960100207+955308515
1264+948781402+940808107+932358184+924577532+917904564+911867964+905653030
1254+898758983+891516175+885212857+881058318+878603218+875543081+869448828
1244+859714998+847959229+836919398+828656625+823088744+818461381+813648740
1234+809247646+806063508+803775816+801781224+800249496+799463528+798982312
1224+798356025+798033887+798706357+800081484+801004795+800903674+800695576
1214+801828857+804619800+808031838+811185308+814369205+818131636+822163501
1204+825801205+829219160+833412336+838913627+844823690+849369431+851618728
1194+852316494+852879089+854278606+856978208+861034403+865985957+871123635
1184+875913094+879856577+882593609+884781387+888259652+894553371+903366605
1174+912914070+921436679+927768613+931357900+933515130+937307807+943504630
1164+948699721+950475408+950924506+952417416+954380374+956202969+958828073
1154+961773506+962691202+960826408+958359173+958071144+960504330+963411849
1144+964699619+964905121+964911400+963970762+962237818+961959267+964361180
1134+968297358+972315881+975719468+978365460+980741415+982965717+984437075
1124+985193642+985931736+987021972+988036625+987906164+986281283+984527148
1114+984347545+985871063+988079428+990151898+991294114+990743713+989601437
1104+991124170+996553560+1001721242+1001636541+998279622+998120424+1002524355
1094+1005231745+999825356+987788259+976417535+970754269+970674580+972945247
1084+974105514+973269559+972539133+972995355+971658443+964681085+954547359
1074+948096133+947616970+949642773+950522437+948880048+944549468+938706719
1064+933808110+931864532+933016890+936503124+942222475+949455443+954646066
1054+954243815+949377987+943526485+938474895+935236786+934838097+936984702
1044+940063010+943171806+946909665+951318064+954495863+953847118+949923377
1034+947041938+948192727+951516322+952797390+950400548+946108484+942193617
1024+939451937+937810635+937557561+938971928+941594799+945184569+950289405
1014+955718855+957119277+951314381+940496473+929081195+919309272+911345938
1004+904567140+897692714+889919970+882761621+878504451+876834594+874969075
994+871025955+865559196+859983769+855291085+851985722+849786352+847439799
984+843603535+838133636+832231785+827239178+823776851+821695989+820285727
974+818767944+816899829+814763064+812111940+808824568+805547458+803009167
964+801165865+799467030+797498095+795264858+793479210+793525031+796454103
954+801837550+807691166+812005446+814850542+817991273+822169115+826516358
944+830759099+835840209+842084243+848445516+854216484+860210401+867155340
934+874420063+881760491+890407042+900415679+908271131+909892691+905507657
924+898995214+893798916+891373338+891504342+892813182+893919054+894583556
914+895163901+895394698+894933103+894316234+893884583+892525575+889486025
904+886847458+887658660+891972518+896625358+898919147+899288315+900010350
894+902418059+905719256+908018902+908439324+907864956+907485284+907899911
884+909642515+912883220+916129601+917023089+915410162+913840038+914805729
874+918937690+924926898+929878634+931331699+930024188+928473020+927639540
864+927116306+926853029+927099946+927913986+929640954+932538331+935400934
854+936173560+934619132+933271051+934642676+937931498+939859380+939520337
844+939849781+942733634+945746018+945430822+942883415+942617179+946355220
834+951333036+955046505+958793904+964625121+971765118+976454120+974606592
824+967419325+962125105+964319343+972369732+980527219+985869071+989768724
814+993620866+995707825+992594622+984410874+976476518+974382918+979067030
804+986024405+989155236+986775177+983661853+985071693+989651182+989867491
794+980586141+966150632+955378243+952053622+952428585+950229034+943995807
784+937662304+933827127+931558271+929765680+928048069+925191081+919801777
774+912608231+906232408+902731685+903054428+907063352+912437201+916491102
764+919786624+924643578+930489103+933913578+934420089+936129429+941128616
754+945792383+946610588+945370149+945021568+944722370+942859508+941493920
744+943747200+949038280+954075682+957111489+958808332+959849850+960428987
734+960624649+959274757+955685953+952742272+953312233+953808058+948038841
724+938502606+934544212+940367581+951382902+961211634+968750199+975275863
714+979211558+978999414+977745090+978606280+980990022+981675834+978299294
704+972590086+968382662+966793762+965207639+961972669+958213317+954540296
694+951581160+950863049+952633665+955174914+956182745+953298347+945272590
684+933345730+921386270+914325117+914422193+918928091+923597291+926909657
674+928163076+924603974+914409697+900733653+893025687+898623753+908392114
664+910605550+907293365+907411330+914358744+921273014+920579414+914263116
654+909752691+910298021+911680634+907626793+898144710+890022299+889931562
644+897018492+901965036+897177932+888454348+888023843+898575577+911120453
634+916281494+913626687+906295737+895268523+882421854+872855795+872125247
624+880227072+888627371+887425569+875896130+859513722+843833065+834573992
614+833151896+835701537+838880665+841302018+842128253+841477033+842068365
604+849016443+864043405+877616155+872337270
##END=
