##TITLE=<SNM>
##JCAMP-DX=4.24
##DATA TYPE=INFRARED SPECTRUM
##DATE=29/4/2025
##SAMPLING PROCEDURE=Instrument type and / or accessory
##ORIGIN=Admin
##XUNITS=1/CM
##YUNITS=ABSORBANCE
##RESOLUTION=4
##FIRSTX=4497.3318
##LASTX=599.83466
##DELTAX=-1.4281778
##MAXY=2.1125615
##MINY=0.38753545
##XFACTOR=1
##YFACTOR=1.9674762e-09
##NPOINTS=2730
##FIRSTY=0.39699581
##XYDATA=(X++(Y..Y))
4497+201779221+201024346+201320313+202138641+202751402+202605169+201768588
4487+200979798+201087890+202396012+204414400+206206151+207088204+206954118
4477+205977742+204411916+202741905+201589605+201302121+201760287+202458647
4467+202755644+202395240+201740777+201355986+201562794+202265138+202836728
4457+202487594+201198618+199919504+199551662+200180783+201272356+202201276
4447+202719714+203036948+203348789+203529483+203429768+203091373+202596853
4437+202090533+201816636+201779858+201620400+201075787+200283392+199500464
4427+198814707+198281909+198118286+198480265+199126502+199593348+199727312
4417+199882135+200509014+201513580+202217166+202109512+201260905+199885134
4407+198216896+196970848+196973090+198091369+199307273+199851916+199674660
4397+199140181+198851803+199302971+200280726+201115989+201579335+201936634
4387+202293736+202401389+201922729+200742058+199294352+198415449+198448774
4377+198814949+198885779+198831975+199115627+199746792+200536385+201385962
4367+201920881+201648862+200773928+200036139+199714346+199588031+199699683
4357+200290663+201170520+201876484+202236873+202273302+201903401+201215629
4347+200743739+200980737+201738460+202397239+202697008+202789801+202693085
4337+202280437+201605980+200815856+200035019+199492390+199317603+199294973
4327+199291686+199644380+200590583+201600648+201817393+201063472+200074705
4317+199716649+200186963+201035450+201712360+201911671+201600905+201042251
4307+200651718+200632648+200809025+200841668+200686467+200890518+202029428
4297+203584908+204150697+203341715+202503317+202804191+203735565+204189293
4287+204073566+204142290+204803433+205632970+205852169+205137798+204033577
4277+203438962+203671582+204277648+204739965+205009332+205254570+205459486
4267+205464363+205226532+204920856+204790057+204816868+204625389+203965246
4257+203227670+203167398+204142033+205793457+207333654+208038451+207667732
4247+206603545+205568835+205104489+205187740+205401440+205548522+205863090
4237+206481699+207067770+207223698+206989306+206667498+206380438+206061644
4227+205778325+205769918+206111070+206627448+207207263+207877691+208506433
4217+208753655+208518566+208173022+208185306+208684977+209485203+210242623
4207+210483059+209891838+208730177+207660582+207160336+207360738+208172007
4197+209175498+209716445+209455575+208672344+207977422+207807801+208090513
4187+208395553+208518066+208593546+208495239+207865073+207035097+206992290
4177+208072624+209548505+210784646+211971194+213400814+214713586+215262334
4167+214979440+214522061+214449974+214483829+213930733+212844522+212177700
4157+212459216+212950418+212729356+212086527+212064381+212979804+214078861
4147+214519547+214269795+213964179+214001912+214008016+213383985+212162870
4137+211036155+210715134+211334393+212330523+213089336+213708353+214586665
4127+215436788+215530142+214742593+213658518+212892434+212738157+213188264
4117+214061290+215194064+216344213+216949628+216540873+215440120+214517896
4107+214296318+214699832+215559255+216838642+218269277+219240489+219442935
4097+219294171+219285355+219296489+219029454+218628394+218330624+217979960
4087+217449404+217194366+217812974+219164933+220340651+220627635+220286574
4077+220143355+220552367+221025484+220921587+220229332+219479789+219106661
4067+219164918+219490392+219825697+219921929+219764743+219625992+219780769
4057+220223348+220676864+220929782+221159206+221695094+222419613+222764112
4047+222425051+221705000+221086437+220843259+221038632+221524881+221970899
4037+222125979+222072736+222167120+222685830+223449264+223863396+223520018
4027+222678135+222024021+222071690+222840925+223907460+224672196+224768640
4017+224281421+223537892+222818855+222325471+222233072+222649158+223542542
4007+224681754+225622519+225993496+225916138+225868151+226053147+226180689
3997+225905050+225249285+224606820+224409327+224734392+225274294+225781356
3987+226348175+226997623+227312858+226943971+226265121+225984665+226209802
3977+226468794+226588611+226868218+227358573+227663416+227564503+227306693
3967+227197767+227353347+227897051+229026236+230635293+232044797+232459459
3957+231776626+230700230+229992464+229899261+230319604+231035792+231571756
3947+231411617+230798946+230692959+231459922+232223704+232079833+231314082
3937+230749308+230750580+231319792+232320996+233183767+233126827+232172157
3927+231348558+231565954+232546800+233210138+233077083+232663284+232648151
3917+233242433+234026497+234224687+233551866+232572838+231959123+231905940
3907+232631459+234659602+237912949+241065277+242761024+242906000+241901298
3897+239876639+237393829+235855405+236440961+238407393+239306457+238425055
3887+237791511+238808771+240287727+240757602+240697693+240599977+239736888
3878+238211067+237508738+238385732+240322657+242986903+246128144+248124083
3868+247788081+246394891+245389204+244436684+242734712+240706827+239346083
3858+239397963+241858067+247693773+254439025+255958167+251790154+246290040
3848+242181284+240245117+240470723+242419932+245382963+248889182+252510977
3838+254829315+254357047+251778081+249027509+247139254+246014613+245464547
3828+245540027+246054163+247096250+249703269+253978269+256666978+255141051
3818+251937569+250306533+250050555+249277594+247715207+246603684+247274066
3808+249827251+252509356+254137408+256049355+259102906+260913637+259593049
3798+257011069+255193946+254035829+252789827+251642132+251309463+252109326
3788+253818932+255948624+257899257+259380196+260770130+262352952+263367773
3778+262931161+261663741+261061143+262054213+264734228+268392407+271851275
3768+274613207+276953343+278803003+280048974+281589777+284582103+288754660
3758+292557467+295479721+298970641+305020730+314171115+323478368+328657022
3748+330279591+332087989+335392595+337630757+337074633+336027426+337519938
3738+342973186+351329388+359380491+364467835+366357030+366500628+367088623
3728+369961344+374995945+380042058+383690816+386673235+389837182+393289324
3718+397278022+401933663+406873016+412010953+417748246+423992889+430037979
3708+435373228+440025627+444627192+449692239+454256420+456649268+457132564
3698+457741887+459982322+464029276+469246101+474664964+478811346+479772333
3688+477395450+474360681+472885770+473063753+474293457+476378175+479587534
3678+484248446+489542978+492757154+493090641+493678727+496293244+498197587
3668+496539028+493200097+491586677+492802112+495684406+498765436+501910599
3658+505942164+510855767+515277258+518360802+520917759+524520558+529594725
3648+534061416+535616518+534461613+532205849+530088290+529141572+530304839
3638+533409407+537217850+540663661+543252124+544946340+546445639+548494670
3628+550345693+551071621+551627958+553295272+556439952+560919367+565799948
3618+569084166+569835905+569357124+569349186+570477795+572685875+575567170
3608+577911092+578292809+576991094+575844551+575950704+576732375+577567729
3598+579145552+582066351+585075854+586158657+585339966+584923288+587093984
3588+591565523+595127667+594931658+591809094+589098118+589364714+592193538
3578+595017090+596196170+596381091+596982083+598862552+602755639+609106435
3568+615633064+616991491+611140864+603100820+599013421+600154391+603372142
3558+605591249+606614795+607704808+609501361+611987306+615056672+617957476
3548+619465136+619612491+620083517+621977256+624099904+624474350+622563403
3538+619301967+615878635+613311620+613335735+617366603+623745998+628050429
3528+627672287+624703198+622593698+622769833+624811412+627145700+627816552
3518+626405776+624780087+624631157+625225847+624827892+623674865+624101176
3508+626772345+629225026+629514404+628483223+627058754+624538696+621335245
3498+620103694+622389571+626493389+629883215+632142493+634032778+635345217
3488+635414229+634680849+634123845+634274290+635724813+638151380+638993581
3478+636590220+633231113+632082812+633021169+633547332+632721369+631912372
3468+632363646+633192820+632518635+630359391+628865304+629606258+631186687
3458+631147424+629187157+626656679+624861035+624556449+625987341+628750789
3448+631663348+633195486+632494824+630185135+628134165+628046612+629890364
3438+631823548+632166911+631334647+630816543+631284903+632300572+632669686
3428+631274239+628847066+628050490+630333641+633845798+635319467+633484863
3418+630046202+627827701+628439114+631267635+634560577+637173943+638713898
3408+638811569+637356622+634735501+631371001+627996626+626044841+626301319
3398+627693191+628715828+629249868+630219489+632340016+635126912+636903349
3388+636831247+636390697+637155160+638207123+637819408+636492185+636051212
3378+636988962+638157561+638443424+638354902+639522410+641983513+642894907
3368+640197988+636222015+634783185+637071849+641832887+647190190+651019717
3358+651496439+648942451+645474464+642452237+640280572+640105770+643170713
3348+648761832+654917226+660146442+662640325+660781001+656258082+653040937
3338+653036151+655100026+657706182+659897236+659803624+655591350+648516080
3328+642442119+639925212+640366489+641631364+642406613+642918598+644212012
3318+646891239+650009077+651835318+651649368+650095720+648861139+649747389
3308+652557308+654682864+654219836+652660372+652754226+654796531+656553034
3298+656465360+655526822+655349112+655924474+656014147+655207089+654830037
3288+656082614+658271668+660007025+661237304+662748781+664157497+664091575
3278+662492728+660818688+659962006+659523335+658661322+656554670+653168600
3268+650101840+648933363+649049029+649024914+649172208+650803835+653866657
3258+656993220+658955910+659088057+657513566+655825833+656456938+660202488
3248+664811020+667001711+665925148+663716160+662573252+662718849+662980416
3238+662414991+661472878+661355151+662270060+663143585+663111109+662197170
3228+660540035+658373398+656495110+655612133+655772938+656436580+656589509
3218+655439936+653311350+651891182+653021488+656434459+659557629+659836101
3208+657266481+654369251+653133458+652656009+650772510+647888428+647019811
3198+649396209+652398744+653089046+652177591+652351848+653786254+653721908
3188+650766087+647154805+645713794+646472138+647122935+646126654+644156996
3178+642393162+640848845+639001457+636976299+635537348+635303107+635964992
3168+636267699+635338189+633898208+633166645+633063642+632517424+630883010
3158+628519638+626628686+626395536+627496758+628037948+626853414+624669995
3148+622593395+621238422+621146022+622368546+623849001+624331236+623432142
3138+621282108+618108163+614882536+613333675+614240161+616226664+617158961
3128+616414795+614983115+613955207+613818516+614524692+615229050+614631997
3118+612522860+610263219+609162966+609124673+609127157+608361300+606669568
3108+604481119+602664936+602043646+602680871+603744224+604182714+603528948
3098+602203785+601026462+600328708+599917242+599841262+600375120+601124921
3088+601188298+600528897+600098890+600290658+600331192+599486205+597998237
3078+596508936+595067804+593265859+591430589+590768765+591594000+592403845
3068+591737053+590124148+589125081+589391192+590650554+592429475+593882180
3058+593914716+592228195+589744976+587681040+586364784+585042348+582815182
3048+579781201+577018481+575545418+575728278+577275867+579404392+581198097
3038+581928812+581261595+579680743+578395872+578002765+577797971+577008362
3028+575703376+574197897+572629284+571110718+569778890+568925057+568998795
3018+569854204+570359948+569597242+567997303+566641603+566110714+566303511
3008+566791866+567257318+567796569+568563274+569062414+568361691+566150340
2998+563056859+559995612+557751421+556816458+556967932+557324989+557271003
2988+556963631+556746597+556524899+555883857+554606560+553019528+551729567
2978+550827565+549837404+548763568+548313748+548792045+549731190+550674333
2968+551323251+551136574+549846432+548081022+546647585+545640459+544734821
2958+543757141+542681064+541551061+540747578+541048589+542807697+545003295
2948+545786360+544290757+541329302+538290595+536162857+535448259+536070215
2938+537234451+537919602+537747830+537227908+536897026+536488952+535557867
2928+534416170+533580514+532821806+531742820+530707944+530153425+529685610
2918+528816871+527947163+527851188+528651642+529721661+530246248+529591937
2908+527530849+524646222+522208991+521039302+520761618+520601964+520440310
2898+520581727+520972956+521129763+520596692+519334180+517777078+516543346
2888+516045115+516165810+516197438+515354450+513460771+511067408+508985658
2878+507803639+507616083+507977623+508241401+508100560+507748199+507522289
2868+507509384+507494024+507251937+506821991+506466873+506432670+506683179
2858+506813508+506439426+505733250+505267465+505312362+505485376+505050371
2848+503585094+501458144+499474065+498072923+497130295+496382584+495720094
2838+495127130+494557463+493937598+493364599+493178163+493469389+493661096
2828+493051318+491650630+490123339+489089462+488688781+488625131+488540124
2818+488397495+488376652+488410522+488131869+487335474+486214469+485070470
2808+483987152+482898866+481796795+480766675+479949286+479468323+479276889
2798+479139350+478896112+478682229+478686137+478716038+478294817+477308352
2788+476288926+475815113+475819960+475682724+474841765+473216834+471244631
2778+469601492+468688946+468308775+467978166+467538646+467252722+467289197
2768+467303224+466740889+465627579+464683648+464298296+463854383+462673849
2758+461183154+460404270+460640632+461233595+461336507+460636057+459581549
2748+458902609+458692301+458300405+457310062+456055517+454983166+454055412
2738+452985697+451746935+450687066+450176020+450147754+450081439+449528222
2728+448576778+447702950+447217897+447002681+446807006+446602818+446462764
2718+446247852+445679306+444678905+443433812+442159151+441011153+440194552
2708+439883059+439958554+440033504+439807140+439249530+438457468+437583398
2698+436881433+436588844+436683849+436745469+436211490+435007931+433750598
2688+433017278+432691637+432379357+432070590+431940140+431864463+431561635
2678+430990241+430330356+429695252+429074811+428526018+428141150+427780610
2668+427199007+426529245+426219873+426376498+426549997+426261650+425504366
2658+424718606+424325316+424214952+423836113+422949227+421996360+421462986
2648+421209357+420759840+420031488+419406836+419169747+419181805+419106734
2638+418764522+418256869+417844403+417633095+417390887+416866875+416213230
2628+415805339+415716877+415641958+415347430+415032393+415087832+415471003
2618+415583307+415031938+414158716+413493196+413168222+413117477+413261015
2608+413312304+412964215+412312813+411624935+410900431+410105672+409467387
2598+409143958+409015538+408990696+409031624+408891601+408395733+407879779
2588+407827035+408232594+408738854+409140686+409407373+409413705+408960158
2578+408099811+407303569+407068237+407334621+407584130+407552563+407445894
2568+407404208+407239798+406835754+406413654+406233217+406263148+406329797
2558+406438253+406655892+406753230+406400687+405727533+405225878+405106850
2548+405185132+405334001+405621501+406043267+406401990+406435587+406057203
2538+405556427+405389320+405610231+405774702+405546157+405066163+404675570
2528+404612951+404915537+405301646+405329942+404946104+404614405+404707047
2518+405085704+405416373+405529979+405385230+405032536+404710440+404729162
2508+405140598+405610382+405698238+405294042+404729101+404403309+404377346
2498+404418487+404368500+404312879+404371439+404473897+404488499+404512583
2488+404778634+405217396+405425038+405230362+405006785+405143597+405475327
2478+405625075+405664156+405919391+406273812+406240942+405736591+405244116
2468+405140265+405301677+405468784+405615502+405817721+406047357+406253908
2458+406451341+406601604+406573490+406326798+406033149+405913484+405978012
2448+406010003+405865860+405706629+405778277+406048145+406256150+406223644
2438+405945687+405539977+405268988+405415101+405948353+406447190+406466973
2428+405941446+405228060+404840678+405083462+405792334+406423015+406546194
2418+406293352+406160569+406396840+406813214+407173179+407453953+407637752
2408+407563893+407192719+406823726+406839177+407325805+408063760+408762756
2398+409220120+409404677+409497622+409690934+409939534+410145328+410420467
2388+410785219+410779675+409828110+407889473+405323701+402180688+398055573
2378+392744863+386712103+380691643+375046023+369723105+364626187+359775386
2368+355322357+351628279+349080380+347700808+347209575+347420276+348378234
2358+350375460+353920790+359428569+366906338+375614508+383638102+388435160
2348+388387900+384076259+378303339+374066344+372151005+371645684+371746536
2338+372050910+372326837+372524723+372647691+372853909+373592379+375038055
2328+376624331+377747426+378611439+379848867+381674170+383879705+386351593
2318+389082716+391844921+394297087+396325426+397982562+399297485+400428154
2308+401752378+403536025+405650917+407710127+409347934+410412621+411057116
2298+411638780+412459652+413585020+414826872+415849478+416435838+416735940
2288+417104993+417649636+418121632+418293586+418189856+417880635+417360713
2278+416771021+416407360+416335955+416272669+415974748+415529533+415155208
2268+414909153+414701208+414472572+414256690+414153808+414349635+415034029
2258+416152913+417345444+418252961+418775701+418992431+419048386+419133878
2248+419332795+419515989+419576669+419638804+419782433+419686155+418893427
2238+417489709+416179421+415511568+415317802+415142575+414926784+414910364
2228+415126671+415419381+415791494+416334834+416887384+417102782+416900563
2218+416616123+416595856+416796530+416949307+417031922+417326359+417974368
2208+418740680+419357546+419883709+420536020+421328446+422075187+422659456
2198+423141085+423647345+424263575+424975295+425639603+426114174+426499556
2188+427081159+427912423+428696336+429230618+429656293+430103356+430475378
2178+430752850+431145867+431791059+432550735+433191050+433569283+433622572
2168+433383302+433077232+433023064+433320379+433790103+434299362+434921227
2158+435702080+436546188+437397568+438304872+439296942+440352843+441405927
2148+442296963+442902256+443343200+443891660+444676663+445622503+446679192
2138+447972514+449636042+451581616+453554939+455397086+457131686+458830567
2128+460580587+462578722+465005562+467676640+470065581+471838018+473110317
2118+474076878+474766876+475315821+476074680+477227495+478547750+479715561
2108+480785276+482159850+484037502+486092986+487851428+489120363+489924574
2098+490372818+490682160+491005862+491272034+491348317+491047730+489880404
2088+487340049+483618371+479589776+475983250+472869774+469977059+467243906
2078+464897954+463101674+461733099+460503426+459196046+457852494+456729580
2068+455975538+455426593+454853625+454288926+453989339+454158779+454714359
2058+455266242+455450345+455316471+455229222+455427139+455853934+456350257
2048+456870513+457551544+458567455+459856810+461137469+462330334+463780009
2038+465898082+468788890+472332857+476393625+480834536+485518987+490292506
2028+494785403+498424708+500953430+502738955+504325806+505900054+507271932
2018+508143094+508387575+508168027+507669190+506853104+505727403+504582374
2008+503630233+502672518+501383861+499705307+497882549+496302212+495212077
1998+494498570+493946444+493708416+494142028+495153578+496107869+496555144
1988+496742398+497260048+498401472+499939578+501434060+502670610+503747778
1978+504834671+506048833+507535044+509407667+511603932+513981845+516451734
1968+518801594+520637954+521837211+522809559+524028568+525585003+527362591
1958+529340489+531532391+533819723+535984117+537890277+539668713+541673271
1948+544186482+547264573+550845196+554668120+558066671+560412653+561869781
1938+563135323+564625351+566367737+568348543+570547959+572826262+575010409
1928+577044898+579087810+581416281+583994323+586310314+588077601+589646760
1918+591155935+592045819+592131918+592225771+593092632+594558303+595928787
1908+596843332+597461531+598055676+598701262+599432522+600511084+602157555
1898+604026574+605339800+605601791+605082778+604659496+605097137+606287669
1888+607374108+607802297+607716199+607343813+606715132+605943337+605293388
1878+604889435+604490511+603777912+603022295+603060224+604223006+605552713
1868+605587856+604005488+601651872+599233908+596958634+594923297+593130379
1858+591346248+589435543+587637415+586169381+584909656+583797042+583212774
1848+583674711+585175161+586595632+586056260+583123585+579673654+577419162
1838+576381741+575644240+574703460+573912640+573685246+573595330+572691146
1828+570914164+569148755+567671511+565985232+564087797+562609887+561772049
1818+561202140+560670948+560396778+560573277+560930091+560897736+560259906
1808+559537371+559519557+560567582+562435994+564530286+566288545+567500587
1798+568349755+569253272+570686346+572708293+574324046+574298356+573255481
1788+573133090+574846331+577638619+580261558+582357546+584240319+586033781
1778+587866688+590329124+594029595+598708230+602812896+604735052+604589818
1768+603369839+601802741+600825546+601457741+603659762+606182788+608247391
1758+610193177+612061528+613515445+615160159+618166936+622529533+626586394
1748+628819801+629321001+629226480+629976948+632636725+636776473+640314684
1738+642085062+643823630+647726956+652670187+654785686+653662530+651953105
1728+651195186+651677360+653193018+655112690+657092709+660075067+665524164
1718+672956310+678449516+678986464+676832855+675538047+676464407+679364545
1708+683592270+688190078+691901273+694846611+699028287+705480087+711712249
1698+715216832+717228479+718317523+717478716+715868235+715703309+717510404
1688+720667020+725385220+732282780+739376349+743105418+743683386+743528821
1678+744554730+747923955+753086765+757934809+761726831+765244078+767784857
1668+767741111+766277440+766161774+768324593+771305558+773325566+774565237
1658+776431044+780393748+788123147+799483218+807647230+807820275+805729497
1648+805060766+803875445+799890140+795393578+793565519+794902557+798357578
1638+802839902+806821752+807359246+803707186+799564348+797559427+797011875
1628+796278979+795361890+795212111+795089114+793288623+790396785+788673062
1618+788674092+788208034+785083168+780514140+776854689+774945802+774289552
1608+773703466+772273422+770189612+768293025+766919572+765842101+765261043
1598+765853674+767607692+769436418+770367686+770553636+770695053+771065864
1588+771241938+770582720+769011864+767200104+765955647+765547937+765760850
1578+766278591+766543854+765795871+764288090+763212558+763139244+763559981
1568+763918431+764803650+766746770+769002776+770987279+773593313+777003558
1558+777584192+773627244+768809676+765413972+763681645+763647230+765079879
1548+767083347+769143951+772054813+777003316+784057077+791023952+793628896
1538+791127864+787935682+786985208+788286498+790527175+792866614+795734457
1528+799487702+803465432+807349854+812640630+820519020+828457394+832536128
1518+833052718+832566363+832440639+833674311+837557157+844510945+853542362
1508+862561843+868041053+867645461+864624446+863393380+866091450+872801000
1498+880811719+885787790+886693913+887117800+890327977+896181572+901254587
1488+902287100+900542716+899800671+902201608+907267716+912560430+916002606
1478+918341075+922006464+928314121+936418996+943064624+944429594+940622848
1468+935759596+933991460+936756422+941952495+946769396+951216941+956750925
1458+962687649+964875674+961729965+957834273+956467424+957012855+957248792
1448+955994217+954471712+954518488+956208281+958696407+961991107+966736755
1438+972531396+977166164+978872862+979308019+981264832+985128653+988762354
1428+989952401+988984961+988007888+988342223+989670961+991439884+993597493
1418+995899305+998245833+1001401600+1005442465+1008211608+1007170006+1003115326
1408+999967375+1000308194+1002353286+1002149704+999431336+998346836+1001432925
1398+1005953420+1007543300+1005802248+1003588412+1002975363+1003075215
1390+1001426442+997325047+992987049+991132815+992145151+994933259+998795141
1380+1003285341+1007582199+1010781349+1012941320+1015284273+1018527653
1371+1021660154+1023359702+1023564859+1023253185+1024028009+1027732842
1362+1034734738+1042202329+1045882563+1044450701+1040623961+1037943461
1354+1037523694+1037938977+1038189577+1039616834+1043470598+1048041625
1345+1050560349+1051393825+1053474484+1057478025+1060511522+1061265019
1337+1062565521+1066445217+1071191713+1073741823+1072486884+1068207294
1328+1064190665+1063761688+1066379659+1068190208+1066924847+1064307604
1320+1063548896+1066186619+1070542673+1072192417+1068351377+1062136423
1311+1059120013+1061143596+1065336058+1067952332+1067571948+1065237296
1302+1063057512+1062337340+1062606117+1062655073+1062307287+1061403285
1294+1058264725+1052099092+1045364519+1040640562+1037372340+1033589588
1285+1029043403+1024904503+1021473294+1017645948+1012212362+1005088801
1277+997653202+991508896+987054020+983764955+980805984+976719737+969842353
1267+960491142+951484385+945195996+941296791+937845344+933559999+928450872
1257+922841394+916686909+909930826+902974251+896390971+890477513+885199401
1247+879974002+873670223+865703069+856640145+847350251+838450980+830603430
1237+824602904+820786040+818455569+816183627+813167641+810102759+807882319
1227+806012755+803515904+800801898+799335682+799881597+801842288+803930097
1217+805292825+806320189+808227803+811659194+815960474+819907849+822869183
1207+825213893+827725407+830713704+833965688+837516925+841801907+846711208
1197+851119006+854007026+855681551+857308694+859598510+862373954+865581949
1187+869692675+874276123+877621112+879070182+880369957+883407271+888354441
1177+895072715+904215315+915692082+927347166+936302785+941741945+945736216
1167+950701502+955695266+957269272+955259503+953961787+956215794+960116636
1157+962741150+964118845+965719207+967363982+967453776+965384932+962809799
1147+962286483+964704022+968257987+970384755+970195896+968584021+967300120
1137+968269923+972132835+976879573+979969116+981286341+981898057+982086916
1127+982339273+984348618+988910254+994208906+997711005+998776964+998999693
1117+1000401684+1002964336+1004450486+1003501345+1001671467+1000969775
1108+1002080813+1005467670+1010948092+1016046434+1017297071+1013581998
1100+1006641843+999949865+997679680+1001172449+1006659838+1008273409+1003709350
1090+996301986+991378628+991787065+996338400+1001042423+1001858145+997243008
1080+988719577+979493060+972397008+968259683+966052028+964209245+961719967
1070+958708344+956193679+954218143+950806565+945172730+940349588+939608088
1060+942176981+945135164+947925513+951694935+955179221+954643061+948555103
1050+940158669+934060048+931897471+932390976+934374449+938154596+943870106
1040+950066641+954773693+957494424+959119992+959885788+958757058+955443515
1030+951301767+947724476+945605463+946178160+950065247+954946919+956660524
1020+954056126+950067307+947056169+944866690+943950146+945836129+948963116
1010+947856259+939371363+926900799+915974977+908866321+904417261+900781380
1000+897371256+894530011+891280451+885350330+876722018+868250088+861706737
990+856178510+850846594+846549373+843841971+841835232+839787473+838267756
980+837913123+838131065+837704088+836056586+833545557+830506850+826655873
970+822005413+817580286+814434940+812277635+809656635+805736344+801406525
960+798297291+797334153+798383450+800644788+803447619+807063567+812428807
950+819782064+827969403+835305998+840726799+844086512+846362150+849527611
940+854897214+861463529+867021203+871420094+877179836+886385873+898425521
930+910233049+918150338+920873796+920060739+917286749+912449429+906143833
920+901162914+900009403+902280617+905396395+906946165+905642633+901350077
910+895289143+889759946+887129978+888393703+892149735+895584943+897397673
900+899317769+903728233+909985175+914487433+915493650+915747461+918350164
890+922490033+924975130+924825291+924427336+925455911+926075746+924062221
880+920930084+920198521+922667743+926740478+931336893+935350614+936716251
870+935464099+935028760+937227872+938671367+935450163+929727866+927935676
860+933049892+940799044+944728060+943748442+941766726+941635973+943180108
850+945363225+947397956+948879623+949700496+950508523+952902554+957737329
840+963070093+965163961+962772051+959128474+957740661+958537419+960147718
830+963275554+969419072+977650156+984017615+984762629+980879662+977608895
820+978247210+981380619+984362069+987518684+993146037+1001523204+1009412985
810+1011619611+1006048486+996783555+989141041+985080545+984064088+984461376
800+984812252+985801020+988770049+991758285+991096824+987705059+985337931
790+982383565+973852863+960784155+949257704+942805541+940511969+939695398
780+937645155+932228353+923839068+916164563+912796852+913765322+916292408
770+918318414+920363265+923592467+927663869+931369006+934117608+936161307
760+938051169+940783533+945756878+953057664+959965040+963157403+962893110
750+962104229+962120649+962073328+961433619+961947907+965761256+971884174
740+975310657+971308145+962104471+954698743+953640418+959044739+967822345
730+975163605+977196762+973562455+967404153+963410730+964870948+969722022
720+970920249+965261268+959394888+961491240+971709009+982237240+984913922
710+978217824+966149093+954753274+950277736+954741762+961559949+961801037
700+957161482+955771851+958292696+959959344+959903480+959521703+958368131
690+956173866+954082725+953166302+952444191+950463808+948448768+946837742
680+943305590+937628372+933156288+932654785+935792678+938904396+935109284
670+919215449+898080946+889123085+896180906+908575732+919552511+927155641
660+927989904+923824163+923462865+930701304+939833422+942333788+936218989
650+927466407+919451992+909774262+898808874+891467674+890696727+894868891
640+900321017+905245708+910390764+915212331+916765130+914287607+909194052
630+901940526+893821533+888136378+886240700+885510712+883615398+881700755
620+880655336+877468668+870102687+862181762+857477377+857024043+860536927
610+866563446+871209181+873638050+879815862+891301354+900064176+898638192
600+894468270
##END=
