##TITLE=<SNM>
##JCAMP-DX=4.24
##DATA TYPE=INFRARED SPECTRUM
##DATE=29/4/2025
##SAMPLING PROCEDURE=Instrument type and / or accessory
##ORIGIN=Admin
##XUNITS=1/CM
##YUNITS=ABSORBANCE
##RESOLUTION=4
##FIRSTX=4497.3318
##LASTX=599.83466
##DELTAX=-1.4281778
##MAXY=2.110112
##MINY=0.38070661
##XFACTOR=1
##YFACTOR=1.9651949e-09
##NPOINTS=2730
##FIRSTY=0.39481682
##XYDATA=(X++(Y..Y))
4497+200904662+200628142+200792182+201299848+201901249+202046364+201299879
4487+200076709+199351364+199588530+200390338+201086961+201301289+201066625
4477+200765158+200924998+201765492+202915975+203704862+203654969+202736678
4467+201369592+200225661+199762413+199823422+199903934+199816856+199735920
4457+199596052+199002992+197930397+197025588+196925438+197509232+198065396
4447+198182895+198160815+198351334+198600101+198745580+199071098+199669648
4437+200000717+199715856+199260116+199157221+199382847+199681235+199906951
4427+199920843+199658077+199378297+199400059+199671938+199922981+200004069
4417+199829367+199386577+199091829+199505760+200410038+200822619+200162650
4407+198785085+197281514+196011424+195351773+195697871+196953902+198366544
4397+199164424+199215182+198879093+198517482+198316863+198207493+197839619
4387+197100655+196511310+196522547+196802100+196723227+196125874+195380056
4377+195068990+195532844+196452727+197154840+197482117+197909105+198696324
4367+199405503+199440246+198746308+197640213+196227769+194651192+193724607
4357+194387987+196491459+198827320+200338701+200822831+200624957+200106433
4347+199436410+198775152+198502544+198949550+199879321+200546978+200382543
4337+199476506+198361782+197395676+196544749+195915596+196076633+197371624
4327+199192464+200402470+200386699+199400908+198055918+196795412+195832354
4317+195376523+195690910+196750478+197969523+198592018+198429252+197967415
4307+197703952+197711822+197935265+198552256+199757105+201273264+202382225
4297+202508702+201631812+200203762+198907786+198415163+199009862+200329359
4287+201624093+202312056+202273552+201747097+201056691+200436895+199981048
4277+199564630+198929760+198156493+197796732+198177572+198977621+199821542
4267+200695884+201503743+201963502+202126451+202321565+202655424+203063895
4257+203493324+203701162+203361494+202602983+202010923+201922041+202136991
4247+202383802+202594779+202722453+202705453+202680052+202980987+203815900
4237+204851038+205175328+204139387+202397815+201440656+201878472+202869509
4227+203339732+203122872+202728534+202610444+202939496+203593869+204113621
4217+204056130+203627505+203551179+204093376+204668208+204702041+204368015
4207+204195770+204441384+204981503+205551952+206028454+206439867+206649464
4197+206368243+205678111+205094483+204971631+205297361+205973450+206720998
4187+206933475+206310161+205476946+205312739+205816901+206307719+206598888
4177+207192252+208300895+209426113+210033519+210202595+210423247+210910273
4167+211390687+211600921+211549511+211082108+209907998+208383787+207416089
4157+207329724+207622576+207898292+208297376+209003538+209851948+210437547
4147+210453213+209965474+209386077+209182456+209606228+210542095+211515708
4137+211962456+211611324+210754588+210186565+210594157+211760351+212593611
4127+212297073+211324173+210727033+210806043+211013865+211070446+211319669
4117+211870647+212333212+212570363+212869797+213289536+213507034+213305839
4107+212829276+212450271+212528629+213185868+214237960+215305824+216037538
4097+216371610+216519515+216563175+216305293+215672727+215003493+214811594
4087+215389580+216556093+217728065+218368273+218366590+218015079+217761489
4077+217892060+218299621+218679415+218878517+218785010+218155341+217005267
4067+215935280+215638075+216178028+216953433+217344434+217332044+217379632
4057+217709427+218013335+218051323+218100807+218457308+218835358+218709139
4047+218166441+217974103+218613523+219542535+219762141+219039677+218175813
4037+217973314+218305748+218518817+218555183+219069415+220272703+221374430
4027+221626641+221285502+220984127+220842864+220800463+221062182+221591427
4017+221859773+221613068+221233759+221080395+221120597+221296103+221671181
4007+222165289+222547282+222736284+222884280+223166624+223537061+223667268
3997+223259009+222471821+221837951+221669573+221759911+221749266+221625943
3987+221742563+222356763+223226359+223762429+223723030+223595188+223983869
3977+224832825+225654014+226253929+226688332+226825652+226539487+225974649
3967+225253641+224435819+223984051+224552999+226029880+227375052+227745186
3957+227302760+226656926+226082154+225708669+226041633+227544552+229624472
3947+230849173+230683844+230097304+229998018+230022950+229304125+227761413
3937+226186096+225622880+226704741+228942211+230714174+230792380+229845958
3927+229555365+230564024+231806195+231936827+231231636+231321975+233133594
3917+235515087+236227208+234511902+231857575+230106009+229805498+230629113
3907+232721362+236611249+241682145+245810184+247441385+246720073+244024330
3897+239743382+235477523+233461054+234608155+237193906+238323036+238000172
3887+238718344+240881369+242160027+241964125+242281211+242932035+241435197
3878+238158025+236316091+237584558+241262255+246155053+250544523+251760898
3868+249798689+248044773+248248879+248365241+246193754+242803330+240472716
3858+240585802+244661248+254423596+265950568+267923119+259491278+249398589
3848+242845049+240866446+242460887+245947110+250042119+254253839+257880293
3838+259214789+257511387+254632814+252591731+251364316+250009484+248703741
3828+248290523+248738226+249911699+252767343+257198532+259845261+258969266
3818+257628886+257311117+255557944+251323143+247241631+245853587+247825152
3808+251921071+255576506+257956270+260813794+264324235+265501591+263280969
3798+260130183+257228103+253887177+250451879+248400303+248249577+249266501
3788+250795656+252694793+254549618+255948535+257529797+260022753+262348105
3778+262614828+261104357+260070402+261546691+266234943+272716222+277850387
3768+279966431+280269368+280231182+280488594+281932188+285336534+289839985
3758+293608839+296676429+301290372+309711446+321738410+332596298+337371173
3748+338594175+341411421+346227423+348276982+345784573+343228500+344872181
3738+352062094+362861960+372593812+377448758+377561040+375856729+375459252
3728+378151993+383449638+388664845+391475206+392266338+392905667+394667423
3718+397957789+403119525+410950404+421887636+433750847+441626919+443547484
3708+442821077+443176182+446251568+451593829+456648347+458627510+457764982
3698+456928628+458522325+462794205+468580772+475149887+482040714+486611011
3688+485411485+479665712+473836743+470902362+471626434+475453552+481795858
3678+490491996+499126685+502436158+500826993+500595119+503575207+504693479
3668+500293849+493910931+490038924+490181324+493551337+498670944+504878069
3658+511848300+517766439+520575192+521694860+525071393+532437918+539340089
3648+538365035+530366066+522468824+519006517+519908657+522744344+525605811
3638+528624691+532435613+536312958+539126140+541419645+544867454+549565897
3628+553384462+555039093+554683077+553100996+552427242+554827449+559656918
3618+564073229+567022411+569447003+571635202+573217950+573988275+573240151
3608+570401189+567046979+566027582+568421844+572671279+575849514+576487539
3598+576389452+578359516+582836124+587809297+591773204+595022412+598102620
3588+600169862+599281189+594986744+589402903+585598229+585126838+586741918
3578+588158943+588705795+589029903+589353829+590039412+592675465+598486903
3568+605711422+610071562+609791554+607163993+604142686+600861571+598129310
3558+598102499+601344730+604960690+605508695+603521404+602844313+606180205
3548+613098389+620581200+624224335+621576938+615320618+610327791+608905611
3538+610502432+613548671+616148631+616703794+615160960+613408424+613517916
3528+615945905+619686400+622988382+623899196+621430019+616762695+612490452
3518+610656570+611572176+614058763+616974096+620145052+623258502+624993629
3508+624839309+624503555+625434629+626711468+626775828+625481641+623684580
3498+622317722+622086667+623269724+625506755+627654129+628098647+626328520
3488+624240956+624402737+627283434+631243701+634158610+634559089+632106594
3478+627709876+623685369+623128811+627318374+633716761+638165404+638892964
3468+636636886+632874311+629640086+628421299+628216814+627026841+625377002
3458+625162689+626181176+626780621+626341622+625177127+623420829+621534598
3448+620609104+621294201+623155137+624758510+624328368+621669385+619390681
3438+620471829+624560697+628234162+629265994+629083952+629766745+631053835
3428+631612152+631226353+630217026+628048906+625057322+624101438+626994994
3418+631308729+633715123+634028979+633229052+630950955+627824099+626645166
3408+628631305+630962784+630064769+626508195+623930558+623674389+624042173
3398+624166951+625218861+627268087+628092399+626095220+622637948+620693361
3388+621720703+624240471+625683761+625425227+624826692+625055381+626679015
3378+630082542+634375410+637093598+636794967+634961267+634305711+636253271
3368+639922005+642700428+642303043+639234421+636441863+636065102+637502751
3358+638865849+639441879+639800381+640357182+641018318+641788704+642896179
3348+644052849+644641315+644552751+644140382+643494047+642286968+640559363
3338+638949863+638016605+638290850+640418691+644105866+647748031+650036380
3328+651172244+651596745+650560242+647510364+643678818+640632337+638557452
3318+637095175+636614442+637418676+638646076+639259958+639693801+641380824
3308+644603887+647652127+648553479+647342032+646072412+646118332+646403011
3298+645446701+644048906+644622085+648369617+653705903+657476728+658026675
3288+656684323+655610939+655185529+654404224+652783017+650667368+648628455
3278+647491014+648189820+651003062+654701035+657009644+656786232+654765092
3268+652119879+649822371+648884441+649650338+651015316+651287559+650017272
3258+648739342+649447611+652092946+654398522+654756964+653949333+653189502
3248+652652294+652495609+653121380+654163100+654691511+654210354+652492636
3238+649556133+646533794+645082618+645734413+647776724+650440438+653179796
3228+654833881+653835049+650038867+645559529+643098420+643667778+645919670
3218+647629016+647727771+646657238+645294747+644386420+644599762+645827709
3208+646759026+646406529+645163539+643324440+640556148+637910267+637623951
3198+639692830+641421527+641395079+641324289+642702309+644167558+643867896
3188+642302375+641058415+640402920+639671781+638901335+638401858+637848697
3178+637043068+635898226+633428078+628637493+622759268+618725359+618067680
3168+619808084+622182207+623983393+624226095+622142778+618173108+614151694
3158+611963981+611963253+612991809+613970442+614673434+614808342+613667140
3148+611352344+609313733+608856961+609768746+610835215+611111401+610257547
3138+608172592+605140063+602266767+601110400+602519478+605698987+608583019
3128+609603629+608849439+607198388+605362261+604153787+604158519+604689053
3118+604365613+602958719+601585066+601101907+601098753+600416446+598510014
3108+596137530+594358546+593298264+592526302+591915816+591469235+591270148
3098+591738749+592939520+593946359+593694012+592039078+589573783+587066390
3088+585255984+584436039+584186968+583836291+583032299+581920578+580991930
3078+580633609+580932240+582000832+583922732+586010234+586863118+585916878
3068+584395882+583932195+584557905+584558633+582393850+578680348+575680879
3058+574799000+575321588+575702171+575264325+574407316+573873506+573979358
3048+574207076+573762679+572593513+571428835+570951499+571295383+572018757
3038+572341409+571794738+570702428+569746422+569120347+568395821+567201602
3028+565865741+565050588+564794480+564404071+563295504+561620067+560088334
3018+559316917+559306786+559604204+559838474+559815484+559334751+558450081
3008+557725009+557675692+558186876+558848983+559385038+559323165+557927857
2998+555157926+552389330+551339664+552027249+552602611+551679180+549897769
2988+548592602+548037682+547618762+546831210+545630621+544324969+543302479
2978+542574071+541733622+540703429+540119513+540427667+541065995+541183555
2968+540751289+540287602+539839626+539017982+537881027+536997752+536585141
2958+536213233+535489070+534420782+533092321+531646180+530408710+529511605
2948+528669398+527737110+527131114+527287011+527996675+528586839+528601883
2938+528177382+527828525+527791340+527529894+526182751+523726191+521253617
2928+519892036+519815907+520343895+520610800+520126913+519096598+518090304
2918+517153709+515810569+514224060+513393985+513838564+514928144+515615546
2908+515231991+513833408+512257817+511402022+511149311+510584746+509403933
2898+508370221+508227669+508808855+509334295+509208546+508453325+507516033
2888+506743160+506181052+505810539+505634230+505479333+505015161+504091729
2878+502840035+501408027+499843902+498239498+496807794+495905593+495897829
2868+496728268+497814330+498573584+498784227+498411864+497533109+496418688
2858+495295472+494200978+493326075+493036210+493300658+493584427+493467504
2848+492960627+492178382+491118071+489810235+488422510+487204724+486374376
2838+485947358+485607053+484879797+483670686+482473525+481759765+481353645
2828+480724264+479784030+479075184+479117676+479773869+480358149+480356996
2818+479837259+479058290+478102223+477094838+476347533+475933011+475436871
2808+474448927+473101207+471897616+471116463+470588597+470068981+469559768
2798+469109669+468550988+467691098+466605703+465538446+464680042+464222876
2788+464331246+464741067+464742917+463998099+463028748+462431669+462017875
2778+461283521+460265065+459291862+458345774+457267052+456190392+455285401
2768+454434429+453578482+453078034+453277880+453793947+453724582+452714558
2758+451374329+450479833+450196367+450202949+450237920+450304403+450427028
2748+450372646+449791429+448662602+447311212+445942716+444499092+442976155
2738+441586155+440635123+440342589+440619624+441006728+441038847+440652775
2728+440098977+439578815+439099750+438575039+437915297+437035086+435938500
2718+434871395+434206982+434056060+434134251+434043200+433540932+432683469
2708+431872441+431474297+431287008+430773822+429838046+428898146+428225241
2698+427685910+427114096+426546831+426091606+425763647+425432047+424877612
2688+424017661+423102874+422528906+422390116+422385627+422240406+421995429
2678+421749725+421386734+420762357+419974502+419299989+418936028+418831722
2668+418801119+418811765+418956652+419080430+418765815+417825944+416520292
2658+415255374+414303250+413723550+413390889+413169691+413070390+413130110
2648+413186767+412927475+412197549+411241755+410547104+410279319+410030036
2638+409429772+408764086+408532758+408667151+408682043+408380622+407939106
2628+407477269+406945854+406295546+405542752+404834694+404474949+404614953
2618+404951223+405037785+404810491+404494269+404161456+403738806+403294560
2608+402952709+402631634+402218992+401908654+401980052+402269128+402252052
2598+401762706+401292680+401368869+401830130+401974562+401441237+400685773
2588+400363546+400446499+400292725+399566500+398736061+398497969+398892261
2578+399221070+398942609+398414167+398399184+399010761+399578389+399509449
2568+398903817+398282807+397996430+397952421+397830615+397526555+397264199
2558+397241149+397408783+397665134+397953270+398105831+397936740+397522825
2548+397088133+396693477+396308497+396002435+395849025+395845659+395989848
2538+396239465+396473675+396649104+396848949+397090711+397216945+397014795
2528+396430727+395727250+395338812+395461436+395868073+396185205+396267581
2518+396253660+396307435+396405462+396463787+396556355+396812189+397171238
2508+397418913+397431713+397289586+397144941+397024106+396874609+396790534
2498+396898509+397015523+396834118+396440888+396228304+396383685+396821531
2488+397443360+398161608+398781071+399036845+398765360+398091848+397403051
2478+397019011+396972090+397149218+397455583+397759885+397856001+397616393
2468+397180670+396947189+397276695+398082992+398801847+398952102+398630845
2458+398258907+398039893+397950571+397999099+398115991+398050812+397743507
2448+397540537+397757428+398279926+398770576+399045185+399129625+399078670
2438+398860596+398456417+398013627+397744204+397683635+397723216+397809960
2428+397928430+398011322+398038316+398116234+398347592+398673095+398885983
2418+398833208+398643827+398657415+399010518+399405113+399454369+399182975
2408+399022256+399329227+399999675+400584046+400793051+400834118+401143273
2398+401824215+402480833+402628267+402219478+401715785+401587852+401805623
2388+401965372+401847569+401545117+401062716+400154329+398594844+396338766
2378+393424919+390023848+386571883+383568471+381182338+379207876+377427951
2368+375904135+374855015+374306919+373987876+373702773+373783633+374839607
2358+376919588+379446544+382395513+386683256+392387173+397507508+399691733
2348+398303795+394595147+390886771+389068630+389036753+389247518+388775095
2338+388140649+388282958+389206572+389931493+389723398+389047096+388939940
2328+389604291+390278621+390560874+391040454+392264396+393867314+395273723
2318+396520383+397769560+398717863+399106270+399337356+400044442+401303689
2308+402648346+403676750+404384140+405031082+405879689+406973091+408077654
2298+408889167+409307299+409522885+409861704+410485231+411205632+411685334
2288+411841504+411895400+412007925+412062701+411902710+411653760+411604747
2278+411734499+411621974+411009093+410202918+409672838+409475661+409298988
2268+408905515+408382684+408032462+408068525+408423994+408912309+409490008
2258+410173588+410804698+411201962+411520944+412140893+413090833+413860612
2248+413987240+413603655+413177456+412957805+412915282+412935573+412813615
2238+412319780+411494527+410658385+410047961+409685212+409580300+409759188
2228+410061033+410158059+409868619+409353158+408966631+408937696+409198383
2218+409539112+409857457+410151569+410389145+410583591+410892686+411411695
2208+411977019+412380774+412639217+412901482+413303841+414011565+415108182
2198+416358845+417384883+418099007+418679586+419227500+419770895+420398669
2188+421065750+421524493+421701015+421817907+421982509+422040621+421964371
2178+422046050+422577980+423498076+424412196+424974274+425225620+425430076
2168+425646572+425744144+425770501+425937560+426258604+426531242+426713708
2158+427055529+427748269+428638429+429468443+430275437+431273724+432394969
2148+433305571+433927520+434613255+435713208+437204329+438821229+440402278
2138+442001466+443699226+445438993+447156528+448971666+451096414+453570444
2128+456197126+458774126+461340542+464135950+467270176+470477073+473300567
2118+475503840+477185585+478559450+479797253+481047159+482460270+484256604
2108+486887895+491031236+497186799+505228746+514433459+523869107+532576891
2098+539578180+544271831+546839035+547737171+546909522+544038592+539291864
2088+533137635+525707963+516992899+507446486+497917877+489133569+481525222
2078+475354858+470669093+467167539+464358239+461905532+459779753+458126881
2068+457046643+456392482+455802985+455082098+454402188+453929614+453537293
2058+453130839+452914191+453050373+453343939+453487764+453448335+453484276
2048+453899132+454872002+456504704+458899268+462078323+465991002+470811766
2038+477034359+484967936+494306497+504474435+515186011+526276410+537123440
2028+546724751+554463426+560478137+565176458+568683897+570846618+571469174
2018+570422420+567692647+563469295+558232978+552675161+547292834+542020121
2008+536511378+530761389+525107426+519724310+514597060+509918150+506009262
1998+502936030+500659115+499361956+499078672+499169450+498811706+497979659
1988+497306088+497140212+497320555+497679452+498311774+499344940+500680043
1978+502060884+503359196+504623720+505856822+507111368+508800545+511330018
1968+514321541+516787685+518261124+519215674+520346988+522026186+524332248
1958+527047948+529655613+531717820+533237178+534537674+536044172+538219086
1948+541285343+544904578+548459028+551555675+553984331+555624404+556768214
1938+558022669+559698591+561684124+563842417+566170983+568546865+570629515
1928+572314293+574200768+577049132+580544317+583424043+585327685+587242548
1918+589565473+591242366+591565200+591411184+591967802+593288074+594478956
1908+594984924+595191047+595574542+595930860+595916423+595816516+596191093
1898+597068180+597857977+598007565+597851183+598544166+600545470+602503160
1888+602717776+601495532+600499065+600501795+601019895+601408788+601492317
1878+601329201+600886139+600186422+599772780+600583808+602907036+605380095
1868+605588100+602614229+598099223+594147630+591547548+589841356+588264249
1858+586449172+584479836+582606039+581029114+579908598+579401781+579623191
1848+580758206+582981041+585461380+585850152+582890111+578541436+575250919
1838+573472420+572264249+571130447+570833758+572162400+574192154+574611317
1828+572611286+569655128+566706674+563481488+560274379+558147022+557322043
1818+556927690+556373498+556115934+556772460+558063493+558964117+558792751
1808+557884970+557157653+557453372+559190622+562024489+564762148+566186937
1798+566331673+566600519+568503917+572132677+575272878+575272696+572837913
1788+571041095+571521342+573699471+576419236+579330080+582272832+584551415
1778+586042748+588156456+592660482+599579698+605860282+607756887+605578940
1768+602233707+599548822+598482717+599650246+602293882+604486266+605699351
1758+607046858+608776890+610438860+612844162+617314340+623132754+627224957
1748+627773326+626440377+625820975+627076885+629884365+633027660+635062388
1738+636264250+639439816+646656571+654452388+656020639+651942994+647559439
1728+645408789+645477395+646753203+648071047+649600839+653470056+661728711
1718+673033666+681098997+681208065+676412505+671840054+670133376+672043690
1708+677310580+684420330+690936398+696280690+702627758+710888294+717612305
1698+719889978+719293263+716882198+713231419+710810589+711310611+714070837
1688+718259915+725188108+735991342+745879333+747844241+744377323+741825042
1678+743102305+747949062+753851186+758528034+762783535+767827317+771649218
1668+771712002+770114149+770708620+774117668+777239974+776730610+773564749
1658+771831806+775007008+784789753+799031151+807972478+807449768+806083638
1648+808344993+811334756+810529612+806645109+802791179+800442413+800941344
1638+805545581+812164832+813674363+807024722+798912682+794685994+793919248
1628+793543336+791960891+790355214+789488499+788134562+786051063+785176160
1618+786362068+786882048+783337485+777400602+773068973+771648005+771530446
1608+770379781+767647459+764741831+763077920+762802704+763204032+763737661
1598+764369620+765198785+766100561+766618661+766109660+764338258+761970384
1588+760041630+759019382+758715838+758856752+759492654+761211888+764957115
1578+770756602+775549432+774634736+769567236+766550600+767893801+770577290
1568+770426489+767658985+765195085+765160691+769453013+780041994+794459671
1558+800063104+792081363+781611882+775065667+772709864+772473531+772031560
1548+771458078+773618979+780917747+792503316+804684569+812019065+808825908
1538+798400163+790721905+789910149+793435968+795656438+794821145+795005674
1528+799485982+807348708+815317044+821668297+826771162+830775287+833398905
1518+835091873+836553665+838195375+840636709+844463038+850083275+858395433
1508+869457807+877742183+876101019+869943211+867735904+870965033+876903494
1498+881828988+883627444+882999428+882452939+884820207+891626413+900729156
1488+907034247+908722909+908698038+909465148+911250501+913478311+916175692
1478+920228285+926749569+935771816+944482149+947876516+945107981+941350197
1468+940287914+941789620+944476932+947314681+950196651+954122646+960017127
1458+965976273+966652817+961220324+955070827+951436305+951058694+953596600
1448+956750692+957460781+955610097+953896383+954167595+956264196+959455716
1438+962979958+965041073+964508536+963729962+965255628+968471230+970996518
1428+972032717+972619484+973409645+974823758+978080063+984151794+991485077
1418+995677976+994727248+991753013+989559476+988113032+986763340+985936723
1408+986449969+988660370+992111637+995493023+998088677+1000565861+1003035402
1398+1004232957+1003759201+1002216246+999066642+994298197+990461677+989868298
1388+991456809+991667907+988996306+986068113+986236263+990452092+997345649
1378+1005390356+1014359647+1023732632+1030555458+1031818527+1028743414
1370+1025182413+1023615315+1024624823+1027501820+1029345164+1026606231
1361+1020564466+1016797038+1018015521+1022150976+1026450698+1030508143
1352+1035036313+1039681314+1043055118+1044443996+1044717088+1044918723
1344+1044966038+1045237675+1047994442+1054211394+1059737667+1059700301
1335+1056093197+1054308814+1055350594+1056339114+1056501562+1057933752
1327+1060719636+1062103419+1060762341+1058618970+1058171176+1060292345
1318+1063975274+1067199247+1069086146+1070665618+1072600682+1073741823
1310+1072835194+1070678357+1069286931+1069271160+1069230275+1067212228
1301+1063170676+1059397606+1057826262+1058374631+1059742763+1060190193
1293+1057888499+1052666134+1046514331+1041338431+1036861459+1031272706
1284+1024217550+1017590899+1012406325+1007278043+1001153841+994868222+989101491
1274+983830355+979761627+977206373+974395011+969486562+963103523+957086204
1264+952054069+947174252+941126058+933026817+923358356+914177603+907796141
1254+904900218+903653710+900763065+894301046+885523684+876991451+869362146
1244+861281771+852276448+843845759+837072432+831091388+824891906+819194631
1234+815395477+813700932+813184046+812864973+812141417+810770616+808836887
1224+806646687+804696640+803501026+803156658+803420469+804441382+806772071
1214+810345690+813989372+816311448+817107129+817687162+819748824+823951732
1204+829342612+834174750+837417043+839488167+841788708+845452408+850214301
1194+854716508+858047667+860426036+862671013+865485104+869019294+872646900
1184+875496054+877709001+880715689+885916157+893474610+902543809+911867720
1174+919929654+925707607+929857378+934040269+938816114+943381650+947355566
1164+951287990+955081624+957616860+958487396+958736225+960146940+964619059
1154+972247091+979486714+981593749+977653803+971100611+965214197+960720665
1144+957415893+956094590+957893532+962169961+966710141+970650087+975148897
1134+980207358+983186567+982291282+979336641+977425902+978130229+980813961
1124+983606336+985363544+987010774+990424249+996009485+1002210361+1006357705
1114+1006439597+1003154418+999413619+997751891+998036873+997759959+995488777
1104+992657155+991469972+992819664+996628887+1002332653+1007628599+1008634165
1094+1004020465+997627416+993870239+992794914+991617923+988699920+984364469
1084+980193710+977817343+977645068+978651665+978679447+976253642+971681555
1074+966531982+962541687+960170780+957963898+953439308+945451561+936531526
1064+931698114+933285897+937877881+940077544+939139979+938900068+941519076
1054+945201762+947662932+948200988+946227648+941627536+936371625+933242343
1044+933252413+935072949+936720483+937257751+936981868+936774167+937112773
1034+937539821+937291357+936495918+936516482+938754968+942930398+946678900
1024+947741365+946225768+944277299+944202383+946526582+949763173+952477963
1014+954592399+955416833+952514481+944474809+933736057+924854238+920381816
1004+919154416+917652528+913033975+904927152+894487334+883340824+873832202
994+868335652+867052748+867394933+866331982+863033397+858859484+855093451
984+851416588+846984201+842220064+838447176+836237200+835084897+834358551
974+833606849+831944757+828397100+823250560+818065804+813965775+810630066
964+807156112+803306307+799899989+798267681+799029089+801216256+803372123
954+805663869+809593503+815504605+821699173+826450936+830199803+835019141
944+842102443+850258462+857068307+861628869+865757590+871807423+879635330
934+886754906+891926257+897031123+903888951+910891635+914832491+915091814
924+913813338+912597948+911187475+909059755+906824484+905949763+906999307
914+908239689+907029698+902782932+897415770+893403638+892315271+894091040
904+897068429+899602513+901889284+905130364+909400120+913513252+916167382
894+916709745+915937904+916252428+919268639+923321110+924757061+922436926
884+919143861+918319124+921032822+925650829+929692503+931706728+931948277
874+931587591+931585165+932627369+935007194+937408552+937522472+934879200
864+931461357+929672546+930445964+932786481+934971101+936789332+939404458
854+942303716+943413132+943296361+945492567+950781538+954746658+953831901
844+950533498+949223114+951500362+956061894+960078819+961116777+959000036
834+956130319+954957817+955520259+956269656+956416514+956702528+958191920
824+960930611+963422171+964674078+967430421+976239387+991043591+1004423188
814+1008820149+1005367790+1000147244+996010273+992419548+989586895+989583801
804+994025226+1000745840+1004283730+1003729356+1003908668+1005795809+1003322507
794+992446967+978369109+968982233+966597919+968179879+969197152+967302367
784+963695203+959881733+954992757+947888042+939123297+929942848+921962623
774+916894820+914930397+914487152+914567163+916176178+920497495+926463859
764+931519288+935015019+939220233+945754923+952874985+958520941+962744656
754+964854239+962941863+957687348+952791334+951354413+953074921+954876653
744+954255128+951610278+949585559+950229893+952908105+954771286+953971177
734+952631798+954325858+958379239+959961562+957426205+955425932+957009287
724+958840500+957684739+956449878+958720696+962232198+962690244+960887724
714+961257206+965988769+973779006+981321021+984345118+979937845+969060363
704+957410009+951319655+952060378+956450181+960550695+962531436+963917098
694+967290660+970907226+968159861+956339051+942634376+936255582+939268154
684+946330771+950519728+949706819+946525976+942385608+936655880+930643960
674+925619407+918952114+908584118+898990754+898341749+908120976+919190751
664+925223053+927146773+927748037+929292145+931502606+929822862+920423793
654+907908362+901925741+906492187+914652755+916430162+912057101+909355838
644+910077331+910757333+912191646+916947412+923127604+924616025+917019477
634+905914822+900408870+901173857+904599768+905615282+897621166+882516329
624+869610974+862687573+858213695+853739270+852644534+857205763+863022114
614+862815020+855306611+846083942+840296101+840645505+846995363+853077649
604+850941618+842855783+840053642+845810849
##END=
