##TITLE=<SNM>
##JCAMP-DX=4.24
##DATA TYPE=INFRARED SPECTRUM
##DATE=29/4/2025
##SAMPLING PROCEDURE=Instrument type and / or accessory
##ORIGIN=Admin
##XUNITS=1/CM
##YUNITS=ABSORBANCE
##RESOLUTION=4
##FIRSTX=4497.3318
##LASTX=599.83466
##DELTAX=-1.4281778
##MAXY=2.1966493
##MINY=0.64870036
##XFACTOR=1
##YFACTOR=2.0457891e-09
##NPOINTS=2730
##FIRSTY=0.66314679
##XYDATA=(X++(Y..Y))
4497+324152082+326841443+329044595+329426325+327959276+325487585+323039085
4487+321622440+321618681+322413288+323207516+323672194+323584963+322843645
4477+321911782+321488709+321999683+323438005+325005512+325495713+324843811
4467+324305362+324602397+325286959+325967472+326725426+327299508+327044778
4457+325817221+324327389+323386581+322962575+322427856+321661598+321277973
4447+321695540+322516223+322819492+322103347+321081893+320875644+321369108
4437+321412404+320651448+319868962+319508792+319112464+318269056+317385703
4427+317334833+318431981+319928806+320806360+320894116+320808779+321072628
4417+321715003+322566365+323535492+324279053+323977153+322348549+320648593
4407+320518038+321973316+323414901+323568065+322796155+322278129+322429924
4397+322611728+322316850+322011104+322197862+322363000+321792677+320920629
4387+320862970+321890164+323064228+323257658+322229823+320740602+319687770
4377+319226208+318907935+318709145+319339836+321122566+323147759+324138213
4367+323913872+323314034+322859436+322239700+321234649+320378917+320264910
4357+320805982+321584797+322376985+323021196+323263135+322900372+321821405
4347+320396951+319892591+321251402+323321872+323895167+322675709+321326979
4337+320839983+320855395+321040579+321459137+321883113+321977599+322009619
4327+322481668+323174301+323290464+322585973+321774380+321634327+322075872
4317+322424097+322405392+322398516+322754899+323281257+323553352+323424457
4307+323113147+322842859+322589323+322120915+321264251+320262609+319581659
4297+319347994+319340011+319431845+319752916+320546561+321827203+322956282
4287+323004064+321866681+320461865+319657352+319559545+319736542+319682176
4277+319541744+320454727+323290522+327077526+329548839+329323682+327077614
4267+324740469+323891175+324460916+324720394+323144875+320350714+318499341
4257+319005159+321401798+324054974+325623821+325994451+325697097+324888971
4247+323609233+322599870+322831350+324113885+325055246+324830147+324253210
4237+324492702+325370432+325576476+324420796+322759182+321703290+321272904
4227+321098675+321373304+322165725+322774449+322737622+322728590+323404616
4217+324132619+323928585+323017029+322436450+322530674+322659772+322144427
4207+320977938+319767192+319355249+320179661+321620371+322450756+322222714
4197+321612213+321299155+321264892+321129354+320595392+319822812+319463399
4187+319825696+320361465+320397243+319769319+318615970+317412420+317090534
4177+318209882+320155245+321667250+321985786+321382802+320714176+320389201
4167+320203435+320160140+320546707+321237941+321884570+322584516+323482203
4157+324268972+324752618+325163163+325527908+325378968+324372403+322867507
4147+321534917+320747624+320646437+321273370+322229940+322736398+322481756
4137+321864088+321247847+320650021+320017173+319405128+319163480+319821530
4127+321186896+322174408+322243109+322033480+322045688+321774730+320676825
4117+319190139+318269027+318312322+318962855+319764832+320426232+320542103
4107+319973383+319364106+319510307+320363796+321047571+320849714+320082349
4097+319692839+319981657+320232599+319792074+318877226+318167811+318128478
4087+318692275+319316382+319553689+319592351+319923328+320696520+321730590
4077+322912317+324156889+324954292+324502025+322743041+320728453+319340827
4067+318419860+317609899+317145629+317441993+318582989+320272981+321928419
4057+322926856+322895797+321969936+320962933+320753859+321215420+321454154
4047+321284616+321290589+321435071+321147243+320576046+320440742+320882258
4037+321265329+321020417+320396107+320246876+320971470+321889465+321983339
4027+321091799+320035791+319646660+319929825+320273797+320301679+320137473
4017+320021602+320202648+320905508+321930312+322586526+322379491+321636541
4007+321155168+321324124+321784403+321904906+321546542+321124897+320876052
3997+320539394+319986377+319677747+320129839+321309206+322732203+323840421
3987+324334964+324358243+324149634+323656724+322974579+322658724+322872751
3977+322969976+322623033+322331389+322245236+321743089+320699434+320027837
3967+320492107+321737757+322724744+322778382+322173330+321846344+322639669
3957+324510912+326340433+326913262+326223309+325426459+325407958+325789339
3947+325594919+324631852+323654830+323260309+323207253+323018486+322774216
3937+322949639+323846219+325334566+326789203+327273869+326440367+325211149
3927+324887165+325650364+326283269+325703681+324632522+324913561+327253649
3917+330079742+330904213+328962521+325842452+323596122+323076931+324015816
3907+326066678+329044041+332051181+333505702+333062292+331881148+330458239
3897+328491491+326655502+326392177+328034154+329995978+330473651+330051714
3887+330657029+332492872+333693362+333392628+332940361+332850246+331898542
3878+330229906+329937300+332126817+335755150+339158675+340775043+339281306
3868+335877926+333795540+334296579+335472275+335117145+333464913+332021143
3858+332024552+334769620+340964480+346927249+345975458+339114623+331916402
3848+327629640+327284562+330312300+334658352+338081107+340013563+341154821
3838+341680596+341329254+340354650+338840198+336292026+333071645+330850283
3828+330633371+331684252+333213213+335709699+338912162+340284608+339128870
3818+338177224+338448736+337840916+335438741+333080764+332389034+333731704
3808+336613155+339761951+342347765+344692427+346325518+345518500+342663854
3798+340098551+338384580+336670056+335069422+334548308+335329192+336968780
3788+339257968+341895731+343927946+344914671+346049257+348630585+351998303
3778+354434479+355842879+357742412+361386624+366765114+372519216+376856906
3768+379224992+380327967+380815808+381193547+382066032+383528186+384967120
3758+386111029+387892856+391806394+398898068+408411000+416324901+419079904
3748+419245509+421599844+427192828+431756637+431976870+430521126+431536257
3738+437391022+447362572+457295373+463116777+464664881+464310945+464220859
3728+465522157+467786260+469251998+468903394+467340811+465126995+462310633
3718+459579841+458377953+459829939+463840032+468643945+471495415+471209743
3708+468848387+466116401+464776673+466027596+469105273+471377038+471301199
3698+470111664+469896908+471499261+474535711+478599384+483179071+486206868
3688+485374677+481832817+478709165+477470683+477643542+478285101+479355765
3678+481804964+485746706+488873737+489425676+488825722+488266791+486671285
3668+483653976+480744993+478997226+478118593+477521990+477532479+479016368
3658+481721783+483574787+483407725+483368363+486014546+491087203+494854570
3648+493266406+486766470+479004073+473297345+471365938+472819176+475674900
3638+478196647+480098219+481784336+483447436+485708276+489607888+493853074
3628+494097868+489651649+484426498+481468277+481997985+485784523+490649416
3618+493760132+494642815+494660645+494488806+494152584+494111445+494726666
3608+495754967+496933605+498156938+499058442+499414708+499691027+500312308
3598+500932889+501208742+501585520+502672207+504615298+507563847+511628801
3588+515330556+515920487+513210964+509742117+507473003+506887966+507615999
3578+508804310+509583388+509615204+509265755+509213137+509972927+511580903
3568+513219413+513728115+513097919+512432935+512524886+513266146+513955079
3558+514047496+513795418+513897741+514493615+515149392+515907959+517117131
3548+518301830+518537127+517829372+517099941+516847455+516557093+515219142
3538+512555595+509810235+508589700+509282654+511199697+513200359+513718908
3528+511611612+507661217+504103682+502506428+502890372+504459948+506466262
3518+508349276+509549824+509733376+509315168+509446569+510948551+513063423
3508+513901295+512725162+510890630+509938838+510023564+510514260+510851822
3498+510508491+509204804+507355005+505791023+505237919+505869047+506763967
3488+506370698+504306056+501948895+500870598+501408027+502603332+503289526
3478+503237490+502851215+502072195+500598999+498997141+498234496+498207575
3468+497855737+496632580+495185547+494460370+494426106+494087962+493067761
3458+492488086+493416511+495075357+495707593+494799504+493237445+491799153
3448+490674531+490038857+490052434+490305503+489932280+488613792+487091474
3438+486224000+485755155+484903152+483985361+484071339+485223989+486225515
3428+486079547+485011710+483822116+482996335+482567522+482255454+481582079
3418+480226618+478637230+477938362+478501809+479067442+478372303+477005917
3408+476238464+475995796+475501079+475057844+475729791+477515609+478933827
3398+478722072+477403730+476539839+476908372+478079027+479249013+479854765
3388+479850423+479861757+480467450+481299787+481600726+481364555+481136513
3378+481226279+481808198+483111273+484921798+486555472+487721845+488816457
3368+490125389+491287479+491663790+490959824+489539828+488254875+487927481
3358+488724011+490041829+491325996+492554980+493725461+494667696+495409830
3348+495981406+495950523+494985795+493747604+493229287+493404740+493447219
3338+492996496+492394794+491983870+491876420+492146853+492767551+493618302
3328+494619856+495539657+495953436+495711963+495027692+494032780+492817955
3318+491695431+490920141+490361327+489761314+489126865+488737151+488859111
3308+489336639+489646871+489587319+489462969+489462736+489402368+489312165
3298+489516170+489933679+490187797+490404622+490990998+491746884+492151690
3288+492330639+492819237+493499604+493736533+493486086+493404740+493745390
3278+493860824+493338195+492951337+493648719+495090974+496035831+495961070
3268+495424281+494873624+494119137+493175154+492782469+493618535+495101695
3258+495552826+494026137+491473712+489508886+488718330+488736131+489125058
3248+489616920+489973128+489993231+489545772+488789857+488376427+488784554
3238+489527533+489707472+489247834+488727391+488263470+487543653+486683143
3228+486204596+486246492+486415011+486424538+486196525+485393615+483829633
3218+482281326+481792232+482312122+483037853+483731476+484527714+484900530
3208+484132873+482469452+480840440+479744895+478975695+478204193+477409732
3198+476694752+475895746+474824325+474000612+474460046+476298599+478016387
3188+478027021+476328230+474024037+471893257+470074137+468509281+467042466
3178+465578184+464651420+465080000+466625161+467855835+467824136+467048526
3168+466374568+465829301+464964333+463646719+462327066+461719508+461997953
3158+462364330+461973305+461000012+460135597+459548259+458889277+457895152
3148+456548461+455097582+454167671+454265945+454978477+455123483+454022111
3138+452224843+450704302+449853319+449558848+449701669+450128326+450489983
3128+450528208+450309140+449977988+449526158+448898147+448105697+447238602
3118+446530877+446305340+446629587+447058254+446957155+446131781+444913198
3108+443648290+442468107+441570886+441229275+441316418+441280116+440868522
3098+440423334+440200654+440025084+439881243+440037787+440317020+440158233
3088+439670013+439543362+439697458+439245686+438028385+437073243+437123531
3078+437603039+437559977+436960606+436454759+436388651+436607312+436847736
3068+436888496+436657687+436463412+436681490+437023567+436646877+435254852
3058+433583215+432540055+432312217+432448804+432416289+431928476+431070938
3048+430278837+430039520+430537442+431478278+432148215+431873411+430695471
3038+429425464+428817994+428848935+428881217+428304688+426991532+425411904
3028+424361927+424336812+425130574+426149027+426936583+427233879+426877992
3018+425989366+425010333+424275774+423688436+422900792+421694767+420313812
3008+419506678+419907433+421184054+422203760+422243267+421637982+421093793
2998+420736798+419997986+418402188+416399866+415115000+415132772+415820452
2988+416073405+415595208+415102035+415230055+415666414+415655547+415043007
2978+414320189+413877187+413763938+413967099+414359551+414515629+414123380
2968+413474946+413061982+412877614+412627109+412379080+412389132+412505993
2958+412360725+411899280+411249447+410438175+409635877+409309445+409757167
2948+410640869+411231004+411157117+410712192+410249466+409590105+408447070
2938+407135428+406250386+405898461+405823729+406027559+406662534+407438173
2928+407724748+407357264+406903075+406876998+407017081+406643042+405541233
2918+404205584+403268127+402949387+403044806+403258221+403447834+403541504
2908+403334876+402616983+401587255+400848850+400725142+400815607+400518980
2898+399830572+399320180+399432060+400090663+400897564+401453262+401539502
2888+401189966+400590915+399873168+399055515+398194422+397491854+397179290
2878+397278933+397549104+397766337+397979200+398279817+398479511+398399243
2868+398315625+398583320+398944422+398795250+398053728+397189517+396477888
2858+395750001+394857791+394014266+393583588+393657417+394013596+394506215
2848+395171083+395798657+395869834+395219593+394386703+394001447+394113676
2838+394317098+394255215+393843126+393250543+392805618+392675383+392598000
2828+392171751+391380611+390540117+389841511+389282754+388873404+388604835
2818+388387311+388213548+388226630+388530365+389008970+389350523+389296739
2808+388927246+388579487+388432412+388351911+388158133+387826515+387469578
2798+387265981+387253919+387159637+386697464+385991895+385416328+385176690
2788+385268466+385521331+385531237+384996226+384215400+383758734+383661364
2778+383474927+383028604+382574647+382240757+381872982+381409527+380964952
2768+380550240+380102722+379750331+379661089+379697217+379584260+379298850
2758+378963212+378574431+378127321+377795091+377765023+378036681+378453694
2748+378805066+378919159+378771851+378463280+378066544+377592339+377104090
2738+376748726+376582073+376438348+376116899+375646277+375200361+374841822
2728+374526141+374253756+374070349+374004999+374048905+374107992+374032502
2718+373768508+373397761+373010582+372647469+372376540+372314366+372474289
2708+372635757+372523994+372114643+371573688+371000189+370510105+370364021
2698+370625131+370900692+370767690+370265864+369754103+369480668+369398244
2688+369263464+368915443+368494701+368292531+368386055+368577795+368672630
2678+368615233+368380665+367983930+367639435+367644125+367999255+368358260
2668+368431681+368289792+368225520+368405780+368636386+368490447+367763493
2658+366732628+365842895+365268289+364943547+364887520+365243669+365936594
2648+366451618+366203589+365186826+364056407+363484801+363592748+364005332
2638+364280603+364256275+364094312+364023425+364069547+364104975+364084260
2628+364052269+363958891+363698975+363355441+363169354+363202422+363244464
2618+363150270+363055027+363135557+363349410+363533516+363598924+363508110
2608+363222963+362850148+362704996+362969194+363334609+363297199+362833016
2598+362420460+362351118+362432377+362441379+362464775+362677026+363083842
2588+363533778+363774173+363546335+362839746+362062446+361750902+362001815
2578+362345466+362339843+362106615+362018160+362079578+361995755+361705947
2568+361479886+361507943+361649657+361615249+361287098+360830956+360548897
2558+360661942+361158203+361759410+362104401+362047383+361695837+361197332
2548+360705849+360478040+360673654+361055647+361205461+361071468+361008302
2538+361213269+361445040+361426335+361217377+361023016+360933716+361013255
2528+361324857+361715969+361881399+361763431+361601031+361543867+361517878
2518+361455762+361367103+361227545+361026191+360882875+360992074+361440466
2508+362058688+362471068+362422937+362065301+361771909+361723574+361799995
2498+361806988+361698022+361578305+361538273+361580170+361742337+362089513
2488+362480217+362613773+362434212+362204247+362113753+362102507+362067865
2478+362013411+362020899+362170247+362400998+362488054+362322945+362117016
2468+362126864+362328801+362554016+362741793+362844466+362683814+362157718
2458+361489763+361054831+360961395+360974913+360895257+360841328+361011828
2448+361329723+361566447+361663526+361668595+361553103+361349360+361231275
2438+361277483+361422344+361666964+361984014+362089105+361745512+361222359
2428+361034845+361297237+361655601+361789332+361719873+361671480+361829422
2418+362224205+362736957+363188758+363445964+363494008+363455433+363496135
2408+363658564+363852489+364050609+364350702+364772960+365157429+365373613
2398+365523018+365832056+366432127+367334592+368562469+370276032+372898033
2388+377172091+383926174+393665867+406466104+422166205+440401366+460544161
2378+482085682+505072255+529565822+554631081+578626434+600456336+619435876
2368+634348887+644197662+649585125+652404372+653970801+653422999+648138034
2358+636132957+617920666+595493957+570783216+546654307+527418726+516607905
2348+515725747+524478976+539954065+556294065+568679066+576583293+581287126
2338+583956851+585763588+587113542+587451686+586767124+586146833+586119679
2328+585617678+583374669+579434355+574582398+568948917+561938327+553534487
2318+544865633+536983607+529653344+521976838+513727416+505314195+496936519
2308+488563621+480342751+472473195+464977182+457813078+450923924+444221177
2298+437780473+431892349+426735782+422191902+418081933+414356579+410996931
2288+407966367+405327380+403236545+401711983+400468372+399129606+397629401
2278+396239270+395179881+394412312+393822440+393362947+392961579+392481779
2268+391827576+391043924+390315105+389818436+389563823+389432947+389335081
2258+389216326+388990615+388603873+388114867+387595880+387022876+386374441
2248+385771807+385407674+385368604+385562324+385765397+385779528+385636124
2238+385559906+385645797+385754239+385815335+385963925+386252510+386490225
2228+386461294+386124577+385594781+385051729+384598296+384161908+383654954
2218+383172037+382829435+382517542+382046424+381426251+380827695+380419073
2208+380336387+380581240+380906506+381054164+381077093+381188478+381432194
2198+381737707+382119204+382612698+383147738+383606502+383945491+384223820
2188+384523943+384855036+385180477+385494905+385784510+386011416+386228386
2178+386535618+386880638+387121674+387271779+387465179+387759737+388124452
2168+388481330+388673244+388568824+388268206+388091005+388309141+388897586
2158+389526762+389833091+389744607+389520324+389458702+389612216+389821145
2148+389990975+390224960+390622395+391075973+391385564+391462860+391338831
2138+391134127+391121599+391614306+392623056+393738093+394534506+395048656
2128+395642725+396429698+397138239+397593973+397984793+398533090+399207339
2118+399874391+400526643+401249956+402033112+402675661+402973832+402997723
2108+403031578+403237565+403531248+403755532+403859545+403946339+404146993
2098+404386252+404417981+404212111+404074913+404246345+404612196+404916456
2088+405033580+404939065+404643721+404308607+404233904+404541019+404974027
2078+405209878+405289388+405533512+406081664+406706644+407096562+407208587
2068+407317203+407752485+408582578+409517267+410136508+410248475+410024046
2058+409819895+409950625+410547665+411435039+412191158+412581600+412896465
2048+413626944+414864553+416191141+417092557+417376422+417294843+417379773
2038+418059004+419294019+420629755+421674663+422433929+423119657+423868317
2028+424762799+425882730+427180824+428477344+429692110+430980706+432533412
2018+434255745+435803090+437012350+438111741+439397481+440907301+442458580
2008+443854451+445096867+446447695+448109251+449907976+451571863+453187182
1998+455067602+457306007+459641404+461620535+462869885+463414016+463698347
1988+464187849+465056109+466208206+467442639+468620957+469764866+471015207
1978+472512644+474325471+476448733+478811080+481284142+483744995+486114830
1968+488318186+490318381+492222197+494152468+496010658+497660006+499305742
1958+501303548+503640256+505986987+508192586+510407217+512775624+515241402
1948+517699720+520262402+523202268+526492516+529581555+531962607+533825575
1938+535714066+537759130+539670521+541384083+543314646+545837586+548817718
1928+551858742+554798376+557685507+560372480+562591190+564514701+566619784
1918+568838203+570563419+571692004+572829270+574375713+576084905+577511718
1908+578551440+579455042+580455838+581566825+582831646+584469282+586468778
1898+588379062+589791949+590749276+591629220+592889262+594645595+596184288
1888+596462180+595503047+594552246+594725718+595984944+597390256+598221952
1878+598658048+599178929+599735588+600092845+600686913+602292384+604585797
1868+605712108+604446472+601903078+599769035+598481547+597730090+597395092
1858+597336589+597133224+596603370+595937454+595190775+594261359+593349891
1848+593057897+593893148+595404978+595851447+593958236+590748868+588120691
1838+586818518+586129585+585149533+584265568+584534895+585672161+585980821
1828+584889996+583492551+582008866+579432724+575787201+572564023+570883966
1818+570505498+570423686+570031875+569556970+569394628+569429940+569201461
1808+568436310+567301258+566460938+566780494+568404029+570124758+570453987
1798+569529525+569006779+570205988+572908751+575232232+575285841+573840439
1788+573299922+574562120+576435519+577633737+578378260+579312687+580302237
1778+581196749+582590056+585289965+589381840+593392895+595115897+594395556
1768+592972240+592145905+592427060+593923915+595945670+597421139+598532708
1758+600138937+601893172+603189401+605033315+608849745+613992822+617721789
1748+618463631+617442090+616516579+616676356+618242786+620836642+623193745
1738+624791873+627211034+631748505+635995147+636092109+633237259+630743046
1728+629665565+629759148+630615375+631788245+633425473+636671960+642422507
1718+649326287+653473170+652737213+649390327+646316846+644919401+645664973
1708+648402815+652089419+655257532+657935297+661805920+667248216+671294116
1698+671553070+669517038+666770747+664003769+662347020+662527834+664209464
1688+667049105+671839295+678909321+684515591+684068539+679752904+676064902
1678+675168934+677234392+680755158+683666123+685823590+688317396+690459189
1668+690457266+689329322+689834820+692510021+695055746+695481529+694952316
1658+695813088+699378023+705970872+713646387+716777381+714862028+713696384
1648+715246497+716964721+715920338+713521339+712734103+714334854+717810169
1638+722774588+728325967+731697851+731318568+729855627+730104035+732629831
1628+736733652+741700519+747343440+753194970+758045238+761811381+766389758
1618+773147628+780401207+784807802+786457500+787806638+789876467+792024262
1608+793093410+792773097+791973625+791781040+792516298+793942587+795756492
1598+797398789+797997111+797174972+795769661+795326688+796766320+799682995
1588+803000339+806019745+808419734+809657751+809388774+808557777+809239601
1578+813015709+818966940+823184214+823753343+823604170+825699754+829756493
1568+832843493+833417458+832974951+833645354+836789692+843365759+853110870
1558+861218986+863133524+861332497+858918639+856926776+855132101+852974459
1548+851514664+853261091+859021195+866699566+874139494+880032571+880316115
1538+873678923+866437290+862613284+860726017+857839818+854290208+852857509
1528+855115319+860514553+866930667+872301349+875858825+877600299+877606825
1518+876200698+874333651+873241719+873130073+873498809+875480707+881820661
1508+892786366+901211474+899388305+893303284+890627442+891974075+895059210
1498+898010964+900837844+904632306+909520624+914383361+917714456+918691188
1488+918231258+917715622+917208377+916745126+917203307+918810351+920524205
1478+921872935+924250433+929618376+937753413+943951770+942863567+936570171
1468+931270230+930090076+932316944+935400098+937678593+939419776+941440366
1458+942982264+940882134+934709941+928755680+925679518+925077525+925384844
1448+924847764+922184392+917751924+913238578+910045933+909437181+912722242
1438+919154905+924020788+923151858+919524165+917668481+917826045+918222751
1428+918401117+919027875+920212923+921658034+923786133+926659921+928051655
1418+926093880+923050234+922058061+923357087+925222677+925929383+924920544
1408+923103027+921852366+921519816+921819501+923501947+927502571+932449859
1398+934839535+932855247+928646656+925483030+924550526+925048856+926312570
1388+928345688+930796606+933169908+935161771+935990670+935514541+935736144
1378+939062403+945405737+951957679+955477396+955265233+953972442+954101337
1368+955560490+957335586+959533261+962525338+965363872+966380402+965734007
1358+965476859+967261336+971072173+975114519+977969835+980482462+984114466
1348+988452244+991144577+990498706+988070921+987581099+991054491+996695897
1338+1001135182+1003490478+1004974979+1006033989+1006788826+1008764314
1330+1013407546+1018800137+1020719570+1018572999+1017182197+1021017449
1321+1029343963+1037731196+1043373651+1047486621+1052215161+1057535147
1312+1062172901+1065553410+1067409327+1067452331+1066828486+1067642992
1304+1070174499+1072773366+1073741823+1071953150+1067448136+1062604103
1295+1060864727+1062913520+1065886251+1066732806+1065334779+1062227559
1287+1055431579+1045233298+1036456702+1033492828+1036262078+1041223351
1278+1044648145+1044848363+1041459346+1035199223+1029391745+1028121913
1270+1031455456+1033928692+1030521378+1022819991+1015458437+1010172830
1261+1005514099+1000507258+996205492+993247212+990526909+987208866+984054447
1251+981857064+979814681+976201848+970625588+964698946+959184453+952041822
1241+942149344+932491115+925939755+920680428+913189222+903741349+895111420
1231+888053573+881365801+874764212+869203860+865009312+861544252+858495012
1221+856081795+854090107+852153718+850590143+849858615+849819865+850228691
1211+851127515+852183319+852570294+851975410+851280824+851813476+854078161
1201+857579290+861540989+865518305+869347439+873009161+877128249+882518626
1191+888721645+893812220+896150501+896163437+895695350+895959373+896804588
1181+897900657+899941234+903545152+907556848+910423293+912759652+916508314
1171+922453310+930249562+939943803+951434701+962479770+969859271+973620345
1161+976753262+979601527+978850653+974205848+971228979+974840531+984309673
1151+994676706+1000548514+998962273+992079004+986531296+986608330+990115752
1141+992430492+992124455+990219357+987333449+984099899+981999361+982711544
1131+987214926+994872029+1002932713+1008375300+1010665100+1011352227+1011151776
1121+1009773327+1007422926+1005538339+1006032707+1008656630+1010235063
1113+1008908942+1007971718+1012725664+1023610955+1034357679+1038258894
1104+1035448971+1030269183+1026447333+1026863618+1031148603+1035155287
1095+1036181548+1035277072+1033607155+1030786743+1026752671+1022669886
1087+1020167165+1020706284+1024060105+1027828462+1030178514+1031276915
1078+1031077862+1029083844+1027151592+1028795404+1033664027+1035418204
1070+1028547521+1016784559+1007477234+1002050147+997185253+991789282+988496646
1060+988949758+990997036+991663535+990974543+990272267+989645275+988893235
1050+989099863+991645704+996355597+1001229930+1003661561+1003011378+1000883686
1040+998579785+996370048+994850468+994901863+995631760+994889510+993087085
1030+993022171+995783264+998930573+998982434+995397746+990481924+986361146
1020+983919027+983060934+982967119+982424154+980957134+980009188+981629227
1010+985281276+986342150+979984715+968205844+958903298+956998666+959962715
1000+960565932+954394787+944210491+935156993+929000533+924300895+919615359
990+915325596+912910223+912788263+913454528+912777657+909382639+903435778
980+896584150+890456534+885703812+882408087+880497570+879280123+877200680
970+872931312+866925831+861400091+858244332+857379480+857239573+856532751
960+855502177+855174755+855484288+855269853+854264977+853848750+855350324
950+858754666+863264807+868065603+872077823+874261046+875315044+877614342
940+882706316+889707116+896297343+901045928+904515357+908148411+912938484
930+919375575+927252824+934364863+937313528+935546182+932452423+931357985
920+932748321+935940091+940283229+943699400+943834587+941605738+939579904
910+937770311+934956834+932228023+931564496+932696518+933536081+933127954
900+932296199+931489327+930197294+928542118+927839317+928663904+929434066
890+928821059+928505408+931288643+937407519+944074313+948735841+951593080
880+953673223+954570998+953978561+953060799+953112718+954401780+956317075
870+958497385+961121716+963878672+965381178+964557815+962024677+959127931
860+957018594+957406968+961993852+970330913+979537663+986177827+988091782
850+984959506+978724206+973325671+972168883+975559007+980019910+980790014
840+977328159+975304481+980086805+989950846+997116494+996312244+990700089
830+986564860+986434334+988433364+989195310+987200825+983354618+979378235
820+977190233+978709172+984897389+994206462+1003739294+1012596187+1021331178
810+1028035789+1029195723+1025488317+1021105554+1018473123+1018411356
801+1021705624+1026809427+1028687371+1023545110+1014568179+1008305026
793+1008388353+1013060603+1016139387+1012807243+1004311394+995569411+990315736
783+989652268+992113267+993413167+990018557+984121575+980997690+982628683
773+985968286+986386902+982228015+976590338+973765497+974420225+974608089
763+970729775+964920666+963136421+968968023+979429513+987654520+991163107
753+993341261+996533555+999147923+998803893+995326772+990716638+987600561
743+988629969+993878748+1000037714+1003745121+1005005979+1006504232+1008935863
733+1008217037+1000310537+989442960+985080476+989740373+997240144+1000853502
723+998495642+992845378+988589413+987115750+986759950+988679033+997433836
713+1014230560+1030590254+1035315997+1029891590+1025338678+1025992823
704+1027469982+1026134770+1022164796+1014479142+1003021284+993374475+991609110
694+996196635+998507529+994083977+986415454+981033119+978761149+973263787
684+960671343+946448722+938404004+940255260+950539607+964842817+976428637
674+977044906+966186885+952604308+942485973+936249799+934362940+938974006
664+948004895+954405276+952110290+944944700+939968161+938985136+942958256
654+949582687+950980249+943746308+934801018+931396793+933364823+935452541
644+933340291+928783650+928214871+933624768+939641263+940755279+936411034
634+928440902+919497477+912613218+908353057+904947492+903102296+903860629
624+900819954+887224907+869824616+860708012+866362005+884347506+904892426
614+918030691+919567402+910324933+895506028+887584436+895965026+917703618
604+936691548+937409791+918467196+892061480
##END=
