##TITLE=<SNM>
##JCAMP-DX=4.24
##DATA TYPE=INFRARED SPECTRUM
##DATE=29/4/2025
##SAMPLING PROCEDURE=Instrument type and / or accessory
##ORIGIN=Admin
##XUNITS=1/CM
##YUNITS=ABSORBANCE
##RESOLUTION=4
##FIRSTX=4497.3318
##LASTX=599.83466
##DELTAX=-1.4281778
##MAXY=2.1679533
##MINY=0.5115459
##XFACTOR=1
##YFACTOR=2.0190638e-09
##NPOINTS=2730
##FIRSTY=0.52760857
##XYDATA=(X++(Y..Y))
4497+261313472+260424597+259364559+258898099+259673702+261133867+261965117
4487+261554540+260522045+259930298+260182850+260735924+260879130+260409571
4477+259429564+258146791+257062015+256692885+257095078+257996205+258989761
4467+259497846+259116436+258098731+257133013+256759898+257245192+258578358
4457+260274660+261665155+262535402+262990408+262931189+262378174+261873543
4447+261775327+261645907+260918334+259695223+258519404+257783270+257486467
4437+257297592+256999106+256977792+257707638+258747690+259125853+258759409
4427+258506681+258846969+259426937+259746826+259649111+259248335+258708870
4417+258062125+257259599+256455124+255972722+255923658+256116371+256338044
4407+256617754+257244661+258422517+259811683+260725179+260802199+260123395
4397+259011813+258057874+257869501+258434236+259060316+259055032+258151869
4387+256519981+254808033+253819967+253822152+254487376+255422718+256352893
4377+257026560+257393240+257588639+257637348+257550262+257562454+257837973
4367+257993607+257375911+255885606+254232995+253357965+253742888+255142948
4357+256818231+258101890+258797196+259057040+259061468+258896298+258528556
4347+257832157+256838158+255902728+255391425+255299940+255362288+255392931
4337+255358569+255259939+255122608+255100290+255341417+255536757+255159155
4327+254498860+254518580+255338199+255931777+255740629+255514173+255955689
4317+256661770+256900772+256488896+255597452+254477192+253730460+254136166
4307+255690443+257257945+257742856+257370302+257160999+257482304+257827316
4297+257650308+256901244+256103736+256179870+257586779+259480960+260468435
4287+260171278+259322256+258468304+257563280+256724650+256371904+256560307
4277+256870099+256913790+256610404+256173701+255929858+255885429+255672730
4267+255245887+255181738+255871318+256921200+257700907+258035054+258105314
4257+258018493+257661054+256943134+256159412+255894492+256357882+257029217
4247+257314655+257376797+257890107+258961746+259734456+259401224+258324389
4237+257584772+257611134+257903657+258008987+258064428+258272107+258458207
4227+258470547+258589930+259061704+259499115+259393490+258987341+258992654
4217+259640166+260596290+261443600+261692964+260954025+259547914+258251118
4207+257383675+256862985+256802998+257242683+257712302+257803610+257743299
4197+257846239+257930373+257901797+258395623+259914003+261552031+261687177
4187+260154067+258593827+258380951+259274255+260312181+261114796+261847358
4177+262519195+262884753+262820427+262472847+262164324+262187734+262405481
4167+262198598+261282711+260282040+259956808+260264209+260591951+260502621
4157+259979687+259283701+258715837+258374132+258188504+258122732+258123647
4147+258087336+258209257+259104863+261051208+263200893+264117311+263300113
4137+261733939+260708440+260588851+260924238+261251980+261408175+261302461
4127+260913286+260502916+260346189+260315989+260205433+260172252+260345244
4117+260411106+260165875+259979510+260227161+260714404+260988978+260909478
4107+260739349+260770907+260966011+261109187+261199934+261350639+261413400
4097+261121202+260426309+259525330+258819721+258740870+259312750+260005016
4087+260190378+259718279+259035017+258665503+258579420+258370146+258012264
4077+257940765+258481057+259652624+261177439+262344550+262542104+262096338
4067+261813084+261782412+261375318+260353599+259365888+259228438+260012248
4057+260975369+261369473+261149513+260789298+260688514+260972328+261577094
4047+262307560+262934909+263296688+263239978+262723067+262153697+262169490
4037+262800146+263366505+263484648+263498818+263620621+263519571+263070056
4027+262627449+262386115+262229625+262218731+262611005+263414418+264223203
4017+264529482+264155983+263440219+262929241+262803128+262715037+262281404
4007+261638291+261431998+262207602+263728107+265012386+265285513+264795909
3997+264478913+265010585+266223452+267179901+266969033+265705094+264430380
3987+263884686+263920997+264180043+264593513+265047870+265218028+264982304
3977+264643610+264647595+265207814+266106313+266859865+267160890+266999203
3967+266475768+265853762+265604841+265961838+266593970+267071234+267356348
3957+267534447+267504631+267341056+267570551+268617452+270110414+271096738
3947+271086317+270629481+270542571+270874446+271058715+270840703+270444473
3937+270035018+269824504+270381446+271852651+273066906+272660610+271079380
3927+270052111+270459529+271644411+272531072+272891758+273227323+273827572
3917+274336365+274125704+273069622+271840990+271253465+271503596+272482510
3907+274675443+278708533+283557346+286472479+286099453+283775299+280876019
3897+277754860+275225801+274789246+276985692+279975956+280974914+280165214
3887+280212064+281901193+283169235+282895694+282435462+282174409+280953364
3878+279152085+278519570+279548109+281492830+283836998+285736375+285667798
3868+284169876+283743919+284968919+285602881+283940440+281320870+280116180
3858+281561909+286143675+293765744+300475143+299619036+292656878+285525773
3848+281318479+280411625+281819567+284244800+286882938+289782986+292993269
3838+295109094+294388251+291573844+288953596+287603131+287071843+286841432
3828+286884355+287213750+288218052+290869415+294883642+297369069+296786680
3818+295525663+295008221+293529547+290232472+287000874+285795417+287157276
3808+290181784+293001004+294885059+296977355+299460154+300427024+299379857
3798+298154532+297556438+296946713+296213944+296118326+297122362+299185964
3788+302260333+305961549+309152467+311159890+312986261+315876154+319449958
3778+322563353+325339915+328820994+333675357+340179261+348144126+356497399
3768+364085311+370408016+375164310+378727074+382273925+386119174+389025362
3758+390081355+390377096+392110831+397234189+406096195+415337664+420582028
3748+423103145+427103556+433100084+436583908+435713985+434541355+436649976
3738+442951750+451916548+459921444+463666322+463132406+461342936+461473182
3728+464440007+468534560+471351122+472620286+473469987+473629371+472386156
3718+470660303+469875489+470525127+472374584+474413712+474780746+472486379
3708+468390350+464470029+462943148+464643111+467653803+469352555+469868847
3698+470803037+472303379+473649445+475176474+478135977+482849939+487228099
3688+488414782+486599894+484128697+482468764+482086321+483304266+486398296
3678+491306003+496890478+500508740+501074066+500407365+499227473+496164676
3668+491235654+486602876+483690547+482410638+482102291+482396497+483379397
3658+484706510+484913629+483286937+481923070+483627933+488580660+492529734
3648+490773298+484638376+478199122+473633681+471256862+470600405+471240006
3638+473013741+475440185+477461158+478694779+480482301+484050939+487118341
3628+485272456+479433599+474847316+474758665+479441393+487059446+493833408
3618+496108586+494561099+493247565+494606915+497408038+498990715+498603105
3608+497384127+496168218+495252391+495474358+497605002+500852954+503365363
3598+504395584+504867210+505894834+507640643+509891378+512899797+516353864
3588+517912510+515696079+512179722+511050074+512567096+514198718+514025666
3578+512419491+510844904+510415197+511343512+513348692+516698078+521724961
3568+526649348+528244954+526351659+523753994+521630849+519199918+516681310
3558+515737467+517135047+519851150+522489022+524480091+526129425+528146354
3548+530652563+532398018+531976990+529933138+528125631+527326263+526832319
3538+525999356+525053978+524113913+522544640+520151023+518112249+517727650
3528+518490412+518475297+516810612+514651097+513528593+513749409+514339592
3518+514207456+513437845+512990721+513304706+514095867+515273221+516970143
3508+518725103+519484264+518542133+516423770+514721415+514532127+515354639
3498+516099512+516506782+516873078+517218473+517377709+517224436+516673399
3488+515983612+515711429+515748035+514907515+512231443+508452350+505459991
3478+504470154+505174110+506379863+507002755+506419539+504657612+502620136
3468+501328005+500913118+501086937+501936608+503147793+503297760+501462030
3458+498944308+498058916+499542638+501653089+502033732+500449462+498829058
3448+498708613+499637518+500077026+499155737+497296567+495534640+494500079
3438+493987330+493672460+494003773+495355684+496596449+496010754+493772034
3428+491850841+491220304+490879839+489947479+489053467+488939841+489078767
3418+488628366+487896070+487910564+488990529+490289686+490527329+489048242
3408+486525147+484543466+484186233+485161073+486384775+487189752+487602454
3398+487722250+487609362+487695298+488416376+489310713+489140406+487362774
3388+485194137+484465767+485535812+486998958+487471234+487035092+486660766
3378+487049616+488375962+490434840+492462485+493316821+492704085+491794220
3368+491768183+492476006+493309648+494402512+496063242+497952109+499661135
3358+501137595+501964063+501351031+499481530+497869392+497808756+499025608
3348+500092908+500121366+499878114+500738885+502631885+503925434+503546208
3338+502173248+501032973+500568904+500477153+500247007+499685342+499216786
3328+499312375+499648028+499447699+498536624+497418489+496570293+496173001
3318+496283763+496798549+497199857+496694104+495078128+493339139+492647434
3308+492874834+492903440+492244060+491500251+491387982+492093179+493353929
3298+494531342+494926568+494570339+494294289+494600952+494982481+494860825
3288+494693087+495483510+497503686+499894232+501331252+501045372+499476924
3278+497938057+497557828+498490748+499893465+500698205+500622041+500253089
3268+500153367+500345017+500608226+500724361+500629717+500672286+501131750
3258+501319798+500091904+497464423+494854537+493683589+494213756+495516219
3248+496381655+496354082+495857835+495445428+495375699+495771634+496399013
3238+496511488+495771929+495065169+495432084+496476063+496873355+496115258
3228+494768011+493392159+492087215+490889285+490016381+489701009+489861396
3218+489948247+489429771+488433410+487500814+486750244+485822785+484651335
3208+483747404+483679034+484610537+486208446+487520652+487286905+485167273
3198+482341086+480174427+478837778+477898747+477385673+477475033+478063503
3188+479112175+480462581+481272192+480633950+478838014+477158864+476242741
3178+475481868+474139729+472388222+470907482+470051847+469668961+469366814
3168+468850995+468218066+467776639+467408986+466576259+465071636+463290402
3158+461780909+460890498+460652884+460713579+460569104+459961534+458857776
3148+457344621+455875807+455168604+455412329+455924222+455902051+455181652
3138+454078189+452941869+452156554+452142826+452917308+453787083+453867734
3128+452980069+451750434+450825986+450348898+450148097+450028891+449865434
3118+449650876+449352301+448766370+447820224+446830476+446171864+445845067
3108+445505488+444809325+443743915+442742771+442305035+442424477+442684320
3098+442721428+442333847+441600813+441137482+441660534+442991515+443893025
3088+443273617+441433695+439694942+438879780+438705843+438646240+438612350
3078+438561190+438248770+437683149+437151743+436671998+436040457+435413610
3068+435207347+435424414+435623031+435525523+435183996+434676767+434175413
3058+434084341+434529664+434961142+434771146+433935142+432701669+431232560
3048+429836368+429037118+429094507+429636245+429954983+429674888+429041871
3038+428529919+428247994+427858878+427041444+425889596+424843256+424274535
3028+424166961+424210327+424104583+423706080+423034863+422296603+421764843
3018+421490269+421279696+421071101+421066496+421330472+421565577+421456084
3008+420973446+420291896+419579999+418822492+417819607+416577572+415568901
2998+415195402+415192923+415083489+414942083+415101644+415414891+415413592
2988+414988903+414465143+414180768+414251146+414504406+414538739+414118006
2978+413469786+412863131+412102908+410923546+409633423+408788209+408457958
2968+408313099+408163930+408004074+407839170+407772630+407889621+408032591
2958+408139280+408533384+409339483+409969400+409795906+408942721+407899570
2948+406855769+405837857+405010209+404445119+403994393+403623168+403477836
2938+403475740+403226997+402501608+401485144+400559220+400049393+400039297
2928+400198149+400033836+399470547+398837884+398274359+397643349+397103854
2918+397123869+397741417+398409683+398738811+398872157+399015836+399072309
2908+398853854+398346626+397703542+397114983+396655106+396233016+395779545
2898+395389071+395114527+394756969+394087818+393229261+392647964+392745856
2888+393393899+393870013+393510772+392463045+391542169+391355508+391770336
2878+392200604+392225520+391820227+391076152+390043008+389015502+388555448
2868+388853255+389337103+389279360+388646284+388027466+387799328+387661879
2858+387131092+386306780+385797484+385848939+385994832+385791787+385424783
2848+385245502+385203464+385119595+385063122+385120540+385184777+385166120
2838+385069705+384809153+384256521+383481213+382746171+382306929+382234249
2828+382336746+382350060+382266988+382244581+382151177+381591962+380477134
2818+379217357+378272687+377727170+377317921+376782707+376212333+376004476
2808+376343849+376854886+376973589+376531779+375760250+374932335+374243346
2798+373818717+373624676+373507655+373406250+373404243+373590254+373964757
2788+374373976+374452088+373877434+372827256+371887133+371376214+371087440
2778+370768644+370462836+370300914+370309298+370444829+370536904+370276766
2768+369555511+368701145+368150255+367960583+367772801+367261823+366566398
2758+366125060+366084823+366126950+365950385+365656829+365544384+365685494
2748+365796168+365517874+364803408+363934164+363231684+362929685+363106634
2738+363457637+363407127+362746301+361863566+361161588+360650522+360238173
2728+359989961+359960883+360078170+360255915+360410516+360390855+360115071
2718+359768554+359634175+359670309+359483589+358857745+358087957+357569038
2708+357279969+356942161+356469029+356000680+355673971+355533924+355510927
2698+355423427+355151244+354796048+354541608+354402003+354234767+353983190
2688+353801045+353869239+354093391+354118307+353712483+352991463+352245056
2678+351753444+351728499+352123873+352499999+352390329+351817918+351200783
2668+350821557+350660018+350652992+350779165+350877322+350682720+350132745
2658+349458133+348930977+348640285+348511780+348440930+348389504+348386464
2648+348428206+348424989+348326802+348208925+348104805+347900579+347555302
2638+347228535+347037741+346917030+346791035+346675047+346626455+346758266
2628+347128223+347501249+347486400+346964677+346183878+345526063+345292729
2618+345490283+345781153+345849671+345723026+345571407+345431979+345268522
2608+345059219+344762917+344381329+344038739+343882780+343937630+344094976
2598+344193842+344096689+343771102+343368761+343160048+343278870+343590139
2588+343900965+344160956+344338731+344327129+344113516+343839266+343625092
2578+343507421+343484011+343465590+343306384+342988798+342653617+342428579
2568+342315366+342200028+341959934+341648606+341513017+341704165+342054519
2558+342241947+342109723+341787532+341565593+341660326+342023079+342345477
2548+342357699+342192972+342290273+342783037+343214072+343125863+342685234
2538+342387899+342397582+342504093+342514396+342392416+342162330+341900066
2528+341728254+341677714+341658939+341696932+342002503+342589468+343030953
2518+342923468+342435841+342073353+342040290+342127141+342138181+342187127
2508+342518263+343134159+343700104+343864772+343613460+343220153+342931438
2498+342810786+342800808+342809665+342824750+343020680+343570360+344256485
2488+344572359+344381536+344114873+344139110+344348414+344514675+344614250
2478+344674590+344640730+344489406+344280899+344104895+344073101+344273726
2468+344648346+344989697+345132637+345092046+344953770+344715093+344366303
2458+344072865+344075079+344381654+344742282+344948692+345010952+345017122
2448+344976678+344868572+344751935+344753057+344937622+345211251+345381056
2438+345355550+345269024+345349173+345653741+345986825+346106444+346006309
2428+345944906+346149545+346541287+346849988+346964647+347037564+347233553
2418+347517220+347758170+347956462+348238771+348613421+348882445+348909899
2408+348838075+348906416+349187987+349605088+350060094+350459010+350708994
2398+350775593+350737511+350768596+350992808+351326542+351575610+351695790
2388+351785681+351822700+351613515+351014210+350029126+348693157+346972145
2378+344816084+342287174+339570126+336794657+333946536+331073648+328433561
2368+326281072+324687709+323721755+323552068+324123653+324975302+325784943
2358+327013162+329507828+333547354+338706255+344191303+348823049+351332771
2348+351170848+349047378+346763787+345969408+346738753+347963488+348817853
2338+349301495+349787291+350459069+351230097+352042129+353013899+354265262
2328+355750578+357272618+358559023+359424370+360029106+360884062+362344344
2318+364089031+365374638+365928244+366299765+367125200+368392002+369720178
2308+370965460+372120082+372953665+373225494+373082347+372890963+372788141
2298+372679091+372599089+372775181+373284772+373893641+374325621+374529669
2288+374624196+374709865+374761143+374664137+374436767+374351924+374628683
2278+375082065+375338779+375290985+375104501+374949369+374918726+375009946
2268+375057445+374922239+374797897+375022669+375549736+375918511+375808634
2258+375361746+374934844+374767992+374881913+375087497+375107187+374839285
2248+374466554+374244822+374264985+374476237+374844864+375364138+375914172
2238+376254518+376252895+376045953+375897935+375959959+376199462+376499837
2228+376771341+376953958+376975006+376794958+376475040+376134014+375864517
2218+375684292+375479978+375072058+374473107+373968063+373793595+373868135
2208+373953805+373947841+373898807+373832090+373692426+373489116+373406309
2198+373638698+374121011+374559309+374771298+374870636+375068810+375431918
2188+375879809+376311199+376691192+377056071+377429953+377769739+378069288
2178+378439865+378949455+379495149+379939705+380205954+380228361+380075147
2168+380075944+380530773+381331853+382073744+382482284+382619763+382716119
2158+382888344+383084245+383252514+383390289+383437935+383350288+383240913
2148+383253046+383376355+383548639+383817929+384263754+384831678+385320397
2138+385549184+385551457+385545582+385699475+386012515+386424332+386927988
2128+387549050+388256076+388897241+389275788+389385665+389529698+390038196
2118+390847571+391534080+391839327+391995463+392414660+393205172+394099007
2108+394777161+395226204+395768976+396678221+397800607+398723785+399293805
2098+399731512+400209397+400597420+400760966+400846901+401052721+401350558
2088+401691938+402227005+403039155+403901904+404526656+404832079+404868272
2078+404759812+404775399+405162596+405845533+406460424+406744002+406833067
2068+407128896+407821635+408609991+409057381+409197015+409499368+410204653
2058+411007386+411517655+411734900+411891685+412143617+412596291+413319554
2048+414161550+414825092+415255743+415711694+416393273+417235505+418096454
2038+418947365+419838927+420807981+421824593+422783787+423608100+424370951
2028+425227825+426241869+427373111+428574820+429823555+431163953+432722186
2018+434497398+436208461+437566453+438603789+439585183+440746359+442168028
2008+443767531+445438298+447210735+449138038+451104191+452960231+454713273
1998+456411819+458089907+459924190+462081963+464296682+465982210+466921123
1988+467493799+468203984+469296908+470727581+472242477+473597429+474819035
1978+476138945+477730920+479653265+481838020+484017875+485989372+487940499
1968+490081179+492149563+493871224+495586656+497784667+500399808+503069268
1958+505711332+508411021+511009690+513226535+515118118+517109954+519500736
1948+522180115+525026110+528232674+531766979+534839635+536696679+537767108
1938+539212158+541610143+544570915+547377588+549688428+551675718+553744309
1928+556272540+559487252+563244381+566890865+569793245+572086903+574267555
1918+576160260+577178024+577556955+578361577+580285397+583026357+585708334
1908+587714694+589083107+590143794+591074530+591998240+593260969+595220509
1898+597711603+599965231+601249451+601630448+601903989+602733468+604093852
1888+605556260+606841247+607895144+608727516+609392209+609924944+610285572
1878+610453428+610410504+610139207+610055368+611170550+614057579+617492812
1868+618957050+617555987+615110591+613552181+613029838+612585902+611728437
1858+610845348+610240523+609560892+608555291+607794241+607971780+608907889
1848+609939587+610825451+611312605+610403006+607631758+604264601+601792105
1838+600570233+600099020+599938662+600224248+601192475+602261547+602193825
1828+600735078+598896515+597213172+595319640+593112774+590973746+589027077
1818+587197015+585716127+584950472+584944863+585394467+585782490+585583165
1808+584663647+583503120+582983847+583813385+585716068+587230551+587111050
1798+585954125+585543961+587115419+590484997+593588238+593764005+591219832
1788+588706361+588029860+589055594+590906202+592919707+594543004+595501489
1778+596388652+598304207+601927960+606843136+611036289+612329542+611137487
1768+609335175+607938363+607548332+608805510+611303926+613536771+615037733
1758+616695865+618668277+620452345+622516625+625748282+629619184+632228008
1748+632664623+631981390+631592777+632179358+633762270+635806890+637361580
1738+638450902+640924520+646145002+651500926+652314168+649274752+646037900
1728+644161195+643806767+644894023+647022246+649814099+653622064+659025043
1718+665254314+669384293+669182842+666044767+662743559+661132484+662050880
1708+665375114+669494701+672108012+673297824+675606892+679985259+683746344
1698+684739133+684119134+682548916+680130856+678397092+678650795+680663650
1688+683831600+688440999+694401983+698794049+698710918+695905898+693410670
1678+692935738+694976343+698323485+700949136+702770282+704885811+706475749
1668+705825226+704145190+704153633+706547957+709521601+710782322+710139415
1658+709413968+710982474+716801108+725983476+731361836+729556394+727037255
1648+727328273+728106208+725680060+721032816+717494319+716464511+718140060
1638+722446219+727736547+729818717+726977210+723054114+721331332+722169372
1628+724635905+727943312+731720692+734791223+735312032+733776530+733051496
1618+734533033+736116654+734939950+732073290+730108613+729528409+729530947
1608+729855382+730987924+733044765+735399709+737349094+738720046+739842668
1598+741075639+742412642+743540165+744403947+745455424+746975811+748623964
1588+750220456+752528285+756442229+761518825+765961194+768531936+770192902
1578+772960784+776879275+778984294+778211790+777571540+778966936+780580432
1568+779699173+777132446+775589918+776513274+780423794+787548671+795069718
1558+795323421+788313381+782057541+779587289+779469854+779029166+776966657
1548+774842744+775366032+779516793+786184804+793975259+801153628+803447523
1538+799634304+795409622+794730287+796589515+797433164+796348152+796529647
1528+800614340+807703733+814770926+820638506+826101886+830664995+833199426
1518+834590571+836074765+837797075+840190042+844204534+850173490+857852415
1508+866543732+873307686+874737562+873301664+873298475+876014873+880748082
1498+885862466+889316297+890146721+889931395+891475399+896639259+904516802
1488+911030949+913173874+912186753+911083260+911754921+914365988+918651660
1478+925222665+934621008+945306936+953559276+956159598+953851061+950493822
1468+949081305+950671361+954014489+956103744+956234227+957113655+960983436
1458+966947255+970298412+967522441+961871308+958139035+957830128+959181242
1448+959522740+957851856+954195570+948600822+942431715+938425961+938369753
1438+941953948+947165751+950929138+951770367+950306896+947272675+943631091
1428+940702379+939070993+938605979+939631655+942878603+948095955+953089893
1418+955048666+953768875+951104020+948160488+945373063+943508698+943333639
1408+944632619+946099632+946364612+945299201+944180712+944667630+947770989
1398+952510929+955518344+954483399+951697568+951450655+955084800+960302447
1388+963346705+962415851+960727844+963124943+969667195+975649789+977663412
1378+977227329+977450979+979119679+980726681+981150602+981485723+983481869
1368+987394633+992415317+997672877+1001503513+1002201269+1000908135+1001155874
1358+1004370113+1008243968+1009758038+1008827538+1008432075+1011112694
1350+1015967234+1019618855+1020055765+1018519378+1017573291+1019141797
1341+1023574896+1028823128+1031625491+1031116550+1029135459+1027216362
1332+1026595006+1028932119+1034375424+1040073318+1042886191+1043051862
1324+1043166404+1044755102+1047357313+1049889855+1052240193+1054896605
1315+1057246353+1058644464+1060720849+1065597352+1071424312+1073741823
1307+1072033388+1069538278+1068051486+1067185106+1067280281+1069140809
1298+1071179288+1070628546+1067958791+1066367730+1066710055+1066788108
1290+1065360712+1063328255+1061891413+1061563140+1061678035+1060999526
1281+1059051971+1056905681+1056136012+1057125081+1058590146+1058717558
1273+1056799760+1053470862+1049761262+1045995454+1041990644+1037901404
1264+1034246477+1030711759+1026100707+1021024996+1017810993+1017127761
1255+1016817437+1014917234+1011936918+1008869930+1005263062+1000944740
1247+996960832+993079183+987343798+979032238+969563813+960739416+953910280
1237+948968417+943966449+937883366+932311526+928028275+922766819+915639757
1227+909715201+906977548+904755035+899730219+892756017+886963951+883592601
1217+881625681+880010886+878999912+879169539+880138475+881035321+881478844
1207+881735794+882375808+883691437+885318395+886740359+888168700+890212021
1197+892767884+895440119+898696573+903616236+910100036+915932664+919401137
1187+922038892+926320135+931747736+935498488+936550850+936943597+938824257
1177+941867629+943997092+944601031+945668331+948975738+953571557+957519273
1167+960876747+964952525+970260979+976693059+984451573+993116970+1000103984
1157+1002623537+1001506819+1000811070+1003027265+1006294642+1007852284
1148+1008357801+1010688655+1014809777+1017040143+1016525888+1017806861
1140+1024024559+1031232980+1033117242+1029746778+1025990417+1024595376
1131+1024415416+1022983061+1020299018+1019646605+1023581863+1030251941
1123+1035281599+1037058641+1037310395+1037059586+1035950189+1035475965
1114+1038786206+1046512778+1055127222+1060352427+1061209715+1059977157
1105+1059089286+1057532470+1051773290+1043569660+1040267684+1044998945
1097+1052014535+1054181726+1051736330+1048870674+1046788150+1043886951
1088+1040766824+1040648386+1046001240+1055693552+1063996137+1064821542
1080+1058309343+1051274505+1050209744+1054619108+1057992524+1055152374
1071+1046788976+1036450274+1026366632+1018070187+1013356993+1012350330
1063+1012314904+1010809337+1009428938+1012357887+1021516107+1033536321
1054+1041937624+1044111428+1043097207+1041451592+1039045518+1035823485
1045+1033962486+1034126032+1033299918+1029328762+1023838813+1020221200
1037+1020232773+1022660574+1023992677+1021439470+1016649994+1013416035
1028+1013112206+1015127186+1018630022+1021418924+1020462918+1015429599
1020+1009986293+1009335534+1015573897+1024399239+1027589389+1021186771
1011+1010599266+1004346024+1005167887+1009099721+1010389195+1006723286
1003+1000216400+994041212+988669406+981763279+972887693+965230081+960822842
993+958101071+955126129+951755488+947555781+941040157+932699490+925810663
983+922703408+922498651+922880947+922375903+920773802+918613637+916690289
973+915474204+914544295+912866030+910025466+906937931+904458822+901726601
963+897436619+892457973+889411826+889542545+891002532+890880906+888824183
953+887391178+888719147+892451420+896883161+900714860+903814558+907309777
943+912447187+918595806+923099402+924175321+923316794+923861927+927819976
933+934525537+942031884+949170163+955362769+959315031+959982558+958445226
923+957134379+957515730+959550726+962617420+965906819+968104593+967695906
913+964668947+961081623+959367224+960594823+963569174+965125931+962893440
903+958481242+955668369+955702850+957038849+958373963+959604100+960930003
893+962614999+964790160+967204677+970305792+975208156+981430991+986000773
883+986454509+983864284+981478638+983099692+990280363+998933420+1003059974
873+1001236407+996131648+990602259+985707275+982322996+981862351+983478268
863+984916705+986067844+987727393+989144634+989656054+990623987+993528020
853+997624816+1001034012+1002900089+1004000629+1005398622+1006193916+1004393848
843+1001055149+1000375577+1004011847+1008240898+1008727875+1006035212
834+1003896243+1004289462+1006471177+1009202808+1011412981+1013100515
825+1016616104+1022966529+1029619130+1033590640+1035088296+1037175780
817+1041462692+1045051846+1042491673+1032637114+1021934950+1017683227
808+1021752628+1031821628+1042974872+1052061651+1059435153+1063662550
800+1063074611+1057988509+1049828451+1039414766+1028340637+1019264014
791+1015338556+1018234914+1024332994+1028195040+1029864272+1033441854
783+1039724735+1043054460+1037324093+1024197788+1011189921+1003684401
774+1001247035+1000070212+997822961+995883790+997034162+1001504221+1006516521
764+1009481958+1010300396+1011394914+1015191306+1021957504+1029851164
756+1034862638+1032935275+1025203861+1016876006+1010993666+1007384555
747+1006373167+1010023372+1019158093+1031029286+1040532310+1043965594
738+1040708137+1032414998+1023038206+1017883025+1019118653+1021536417
730+1018257704+1010012154+1004145282+1007128077+1016575601+1024533972
721+1026981258+1023474997+1014955139+1005808609+1001563617+1004226641
713+1009257835+1011143160+1011194644+1013376123+1016805983+1017798949
704+1016409458+1016522818+1021161619+1029550996+1036522895+1034449463
696+1021110017+1006828853+1003183136+1010490983+1019055124+1020008768
687+1012997665+1004716217+999970550+997112097+992160846+983712369+974798406
677+967141148+960931243+958474511+959929657+962742647+967442439+979856581
667+999971140+1015146906+1019855377+1018880242+1013986380+1002864546+987447593
657+974846702+968673934+965095584+959043320+951858634+949403378+953990754
647+962511203+971515678+977121998+976008114+971975437+972518740+976559920
637+973049467+956460003+938078263+933801153+944788784+955338089+948961037
627+926834390+906936691+905558123+925394418+950785312+956707093+946237081
617+939086993+934668655+923775018+912879786+915303809+932375114+948675923
607+946157788+926212679+906779404+901022409+908536490+921898962
##END=
