##TITLE=<SNM>
##JCAMP-DX=4.24
##DATA TYPE=INFRARED SPECTRUM
##DATE=29/4/2025
##SAMPLING PROCEDURE=Instrument type and / or accessory
##ORIGIN=Admin
##XUNITS=1/CM
##YUNITS=ABSORBANCE
##RESOLUTION=4
##FIRSTX=4497.3318
##LASTX=599.83466
##DELTAX=-1.4281778
##MAXY=2.1088741
##MINY=0.38149112
##XFACTOR=1
##YFACTOR=1.964042e-09
##NPOINTS=2730
##FIRSTY=0.39656439
##XYDATA=(X++(Y..Y))
4497+201912375+204225648+205539426+204812334+202384741+199650862+198018263
4487+197959237+198837764+199689115+200021501+199808034+199220088+198654007
4477+198585679+199096207+199708932+199906437+199659086+199175658+198418158
4467+197399469+196782358+197358074+198928945+200423414+201111220+201134042
4457+200996201+201072572+201338784+201340089+200766907+199977755+199554962
4447+199642470+200032578+200356376+200092394+199102338+198193310+198477140
4437+200046432+201638834+201718118+200017753+198000039+197405371+198437217
4427+199822555+200535428+200706120+200771551+200682161+200215834+199424314
4417+198568183+197989023+197986960+198454136+198810527+198635783+198215783
4407+198102100+198308405+198371119+198061464+197628277+197409757+197506066
4397+197715209+197722325+197513865+197396616+197429270+197190645+196422189
4387+195637604+195655251+196512383+197240719+197128386+196758854+196977116
4377+197432852+197124137+195935590+194729077+194237759+194538325+195344215
4367+196419928+197689322+198950234+199669146+199315122+197864202+195958730
4357+194672524+194840393+196292330+197996929+199145265+199695943+199827669
4347+199556313+199019897+198558518+198416110+198687117+199429974+200454551
4337+201132570+200945687+200209931+199721861+199734273+199789051+199551138
4327+199262044+199138088+198894682+198282731+197687789+197726635+198471419
4317+199452280+200228064+200668079+200884415+201082010+201348511+201554042
4307+201565423+201456276+201328860+201082192+200635061+200240871+200235849
4297+200592756+201012422+201302215+201434168+201429433+201366917+201305887
4287+201140536+200756073+200316984+200128918+200215986+200295300+200230629
4277+200295149+200805874+201649866+202393178+202807807+203067646+203391671
4267+203768213+204060600+204165726+203988585+203430972+202574674+201706616
4257+201010632+200517629+200510558+201459463+203236669+204933969+205783499
4247+205758310+205106254+204010906+202880217+202319751+202581153+203389091
4237+204252551+204659062+204389041+203903337+203835388+204015018+203787302
4227+203251828+203122530+203460197+203739959+204020480+204839799+206052427
4217+206826801+206786392+206286289+205607724+204630459+203367393+202316458
4207+202186417+203354586+205363483+207060389+207631750+207335296+206884538
4197+206525370+206128646+205758401+205677721+205984918+206468756+206781218
4187+206815800+206898498+207411970+208262562+208917972+208982264+208693806
4177+208837914+209957313+211530308+212274895+211580139+210248911+209373115
4167+209021868+208693533+208483283+208837109+209447756+209464948+208740557
4157+208019945+207979203+208711924+209982320+211400843+212419154+212617978
4147+212069211+211245826+210630597+210460543+210647122+210764234+210412502
4137+209852400+209827970+210544713+211365367+211766961+212050107+212751024
4127+213832958+214802165+215252863+215022021+214160883+213055353+212340628
4117+212402189+213089540+214031252+215000535+215874859+216492880+216702190
4107+216440818+215782268+215092004+215013736+215877545+217156590+217970461
4097+218069183+217833258+217479826+217028248+216866311+217456124+218509941
4087+219204029+219188718+218858290+218702651+218769022+218772967+218534811
4077+218195688+218036786+218218009+218713014+219397816+220093846+220503483
4067+220317814+219591694+218792511+218205566+217635875+217010328+216762233
4057+217225282+218107846+218884450+219338698+219514185+219450287+219191419
4047+218977800+219206912+219960679+220701215+220830376+220457900+220209396
4037+220320742+220382060+220047747+219643725+219867572+220898294+222006040
4027+222316166+221856804+221427426+221501293+221831129+222057419+222119268
4017+222162195+222430592+223014715+223514530+223342442+222522243+221816972
4007+221885725+222563805+223183601+223497490+223906595+224632002+225132121
3997+224774941+223755462+222841944+222424235+222294148+222269339+222553153
3987+223270715+223983451+224143977+224005954+224519077+226044244+227621169
3977+228033021+227339464+226613086+226367996+226143360+225581893+225013946
3967+224857275+225131302+225590208+225875631+225715560+225291160+225110726
3957+225397817+225945780+226511997+227018185+227475893+227920566+228318337
3947+228566523+228708445+228959771+229357633+229598338+229421804+228881868
3937+228121849+227370085+227168984+227980671+229389407+230273534+230076985
3927+229324781+228745105+228467133+228275607+228345362+229248593+231077254
3917+232820212+233109565+231715532+229753765+228465282+228241284+228765271
3907+229897174+231917422+234610741+236846990+237910549+238256607+238119313
3897+236928611+234714835+232649141+231853752+232196274+232592147+232731885
3887+233321500+234393844+234933886+234931018+235781823+237563703+238299382
3878+237232349+236066396+236137122+237072658+238234908+239430951+240050975
3868+239773777+239550158+240162913+240791814+240114827+238168401+236004015
3858+234739674+235691280+240166510+246444498+248751064+245787708+241366847
3848+238208232+236929977+237111048+238183681+239989293+242776296+246310300
3838+249022162+249347310+247827970+246146648+245206682+244788487+244326970
3828+243650272+243030263+243041932+244361309+246859810+248739668+248736284
3818+248223131+248530616+248633420+247115203+244728019+243360919+244365436
3808+247407484+250141531+251075701+251616138+253028895+253963354+253117982
3798+251721931+250958953+250386424+249575557+249137818+249534451+250335561
3788+251098553+252025046+253283773+254580191+255842271+257321430+258688272
3778+259130866+258624511+258117275+258683871+260891138+264312202+267677910
3768+270284738+272446574+274177045+275289388+276807362+280221597+285070774
3758+288953855+290900554+292504443+295714376+301293482+308146140+313919655
3748+318031316+322162734+327143955+330781885+331460616+331414852+333265864
3738+337797268+344368812+351558818+357541551+361312041+363843697+366839556
3728+370811100+374932443+378309562+380971472+383657296+387059361+391264585
3718+395792013+400363537+405565509+412371340+420622492+428200647+433013012
3708+435188596+436430252+438630994+442648273+447483096+451398436+454138128
3698+456635612+459127057+460900834+461625088+462242335+464192706+467739835
3688+471412604+473717804+474563237+474719408+474638955+474221185+474064286
3678+475875391+480104954+483956625+485663758+487567848+490985968+493044591
3668+491246111+487937183+486584696+488187098+491437060+494647873+497167208
3658+499232082+501426117+504243681+507580195+511054277+514808439+518798952
3648+521439344+521817601+521259017+520911411+520806286+521139142+522731439
3638+525697890+528724915+530338637+530947963+533129738+539144155+547208151
3628+551262030+549594956+546713601+546272220+549476053+555683786+562277181
3618+566498520+568276303+568776255+567896954+565396222+562865385+562419088
3608+564001005+565661281+566448689+567242712+569012119+571678915+574169328
3598+575245223+575216211+576197724+579386626+583620286+587860865+592514420
3588+597171251+599834466+599508772+597276437+594988688+594324553+595561718
3578+596930471+597014231+597176228+599501124+603432943+606345557+606968358
3568+606936857+607783018+607919523+605639664+602294046+600522757+601256085
3558+603547294+606383067+609021882+610066276+608771633+607166044+608143795
3548+611901477+616148430+619463822+622349365+624869459+626144315+625732251
3538+624016742+621805045+619654650+618047726+617753715+618786456+619507523
3528+618308900+616153953+615584626+617424682+620159761+622064459+622525201
3518+621820218+620790391+620214084+620068656+619794493+619384674+619534836
3508+620573585+622132620+623807038+625790640+628473460+631402704+632953606
3498+632272901+630583613+629389057+629274099+630828096+634259721+637664457
3488+638187352+635592238+633217208+633523540+634703590+633806140+631228022
3478+630047244+632496809+638019164+643263168+644215790+640116693+634545598
3468+631426072+631285865+631839290+631056070+629228517+628094475+628346059
3458+628941789+628978450+628913201+629244176+629343839+628368517+626471102
3448+624613444+623600915+623712838+624876075+626950539+629655694+632354052
3438+634365392+635380653+635707257+636047579+636627225+636672686+635549023
3428+634079940+633341028+632882227+631525371+629049100+626393472+625106901
3418+626281063+629282597+632048569+633106256+632540206+630640667+627800706
3408+625610131+625675865+627696188+630421798+633536711+636938595+639295052
3398+638912365+635780214+631815436+629300502+629281079+631349171+634237870
3388+636048914+635234922+632257363+629729743+630103873+633063101+635848497
3378+636237193+634814238+633659014+633483360+633736401+634653637+636956136
3368+640010111+642245419+642899357+641912381+639162068+635752476+634829109
3358+638790427+646136876+652471463+655015775+655163812+655991400+658375414
3348+660197262+659160637+655897625+653250677+652597043+652414227+650788002
3338+648054805+646279936+646841980+649642853+653664320+656944265+657225348
3328+654339076+651112057+650160528+650730341+650396817+648874989+648179839
3318+649467927+651383004+651642236+649713927+647480743+647360019+650230692
3308+654692933+657848938+657707516+655157682+652691365+651977642+653024767
3298+654450210+654245362+651027629+645353352+640128892+639049052+643366715
3288+650015101+654204028+654799090+655071372+657637412+661445534+663815648
3278+663806786+662821509+661946153+660695211+659201546+659206341+661471087
3268+664088111+664647849+662547468+658591006+654159416+651006871+650327684
3258+651513439+652918246+653944978+654842549+655123631+654376283+653406059
3248+652634978+651541966+650841900+652326097+655532418+657333265+655628196
3238+651620082+648155135+647153532+648414428+649858748+649761938+648753658
3228+648666923+649878353+650798078+650073733+648285571+647242087+648107732
3218+650275911+652089868+652864894+653672999+655500492+657125928+655991158
3208+651592344+646610971+643979561+644301007+646487455+649179743+650687732
3198+649409355+645691611+641852777+639671003+639159458+639339846+639127714
3188+638330352+637929819+638323068+638228990+636624615+634256200+632309137
3178+631314877+631470623+632593194+633951264+634961305+635446083+635065702
3168+633625691+631533200+629027310+625997674+622977750+620854122+619421638
3158+617826975+616620523+617489324+620444850+622921181+622577885+619882199
3148+617026335+615542139+615607447+616634179+617695811+617630381+615829230
3138+613329348+612018317+612297882+612596203+611668223+610067976+608764531
3128+607829875+606870091+605962991+605791647+606869666+608670089+609593395
3118+608440901+605699935+602745623+600588612+599637568+599714774+600055035
3108+599725881+598250303+595884620+593673711+592873072+593727852+595176299
3098+596083702+596366667+596507724+596411946+595472920+593729005+592096953
3088+591192038+590723405+590417619+590557220+591002728+590770930+589379901
3078+587628703+586577754+586651621+587662632+588792669+588849662+587381003
3068+585231762+583690572+583333558+583605476+583473645+582737343+582241639
3058+582489400+582943891+583007621+582778737+582662201+582982736+583741556
3048+584216198+583495495+581660051+579689802+578240020+577107798+575974242
3038+575146714+575170689+575686361+575290685+573126815+569929780+567006181
3028+565102757+564485601+564999999+565881607+566467626+567005756+567894040
3018+568757014+568937342+568225258+566699059+564412888+561701906+559361351
3008+557999517+557396260+556908508+556279699+555655745+555166657+555032337
2998+555593653+556420513+556085411+553845004+550825687+548802025+548528408
2988+549513442+550682930+550999823+549963320+547836960+545450640+543904291
2978+544035455+545571547+547026913+547034682+545593397+543611919+541817020
2968+540473820+539579284+539020275+538807718+538923768+538928077+538405243
2958+537726845+537506822+537480238+536985445+536206838+535833740+535827306
2948+535397276+534111008+532593672+531911329+532315988+533089861+533830654
2938+534822971+535629680+534833897+532039336+528736508+526503749+525612309
2928+525583357+526009624+526683288+527385296+527678215+527179234+526153837
2918+525159699+523905419+521577367+518482908+515993102+514802795+514413370
2908+514222967+514241054+514765588+515877294+517114034+517681783+517315847
2898+516421008+515164299+513352527+511210204+509312062+507886467+507037787
2888+507323846+509148395+511638475+512855003+511498874+508300747+505335813
2878+503958441+503907183+504316608+504714317+504863508+504502519+503607831
2868+502560311+501846224+501558100+501209281+500284336+498964292+497896863
2858+497349538+497112915+497070853+497269329+497520306+497372117+496456975
2848+494866105+493239880+492201828+491678933+491162472+490484317+489843641
2838+489307848+488723650+487904923+486756041+485474538+484567134+484309450
2828+484365533+484295520+484155616+484220713+484379402+484190213+483413245
2818+482227247+480968748+479804722+478639209+477319407+476017025+475255018
2808+475296626+475726170+475993323+476043519+475934297+475303423+473886174
2798+472162563+470831532+469994718+469346182+468764412+468311196+468003376
2788+467855612+467848723+467777193+467386888+466575202+465319495+463775695
2778+462525845+462174203+462590699+462946346+462572915+461501116+460150086
2768+458883788+457973805+457676243+458014956+458489993+458349452+457333766
2758+455920038+454759259+454077128+453617387+453026846+452263808+451598277
2748+451243206+451132740+451017782+450611150+449766900+448640506+447485554
2738+446373848+445383200+444765862+444566355+444386148+443852055+443043919
2728+442212993+441320277+440160561+438883732+438045218+437971139+438344358
2718+438646016+438724921+438695332+438610327+438449179+438161451+437599225
2708+436606331+435257971+433899142+432857054+432142269+431543595+431008895
2698+430634704+430296416+429752277+429078097+428549042+428207020+427906211
2688+427558940+427071643+426333247+425447299+424750905+424510974+424635613
2678+424666052+424159606+423166287+422128751+421303196+420618911+420086486
2668+419873292+419893959+419716970+419004309+417859857+416733675+416097977
2658+416136397+416604970+417008962+416959434+416365494+415398730+414437034
2648+413921331+413941452+413989857+413465687+412444387+411585874+411249771
2638+411117363+410813307+410489008+410480359+410676498+410631158+410192904
2628+409666336+409366225+409250054+408992491+408335397+407401499+406640676
2618+406376740+406497313+406698337+406869773+407049433+407165908+407055927
2608+406656214+406027557+405294745+404681474+404422211+404490464+404619867
2598+404671003+404669820+404497292+403993668+403360215+403019407+403100801
2588+403336999+403320489+402759872+401748860+400789471+400335071+400424081
2578+400815509+401193220+401260896+400978235+400617307+400340503+399959606
2568+399364756+398883893+398881131+399229465+399500866+399546844+399600984
2558+399889654+400399408+400942667+401247421+401104391+400586928+400017297
2548+399657067+399526935+399473007+399297262+398927867+398534618+398341545
2538+398322668+398274051+398143828+398063406+398106318+398226495+398377598
2528+398532858+398661260+398786536+398984678+399269433+399564567+399795090
2518+399928894+399945373+399791114+399398412+398837976+398411375+398385853
2508+398632187+398742137+398513192+398117030+397811153+397730853+397937188
2498+398381179+398769481+398769420+398484665+398400753+398687329+398920917
2488+398724202+398312593+398150443+398402726+398933845+399526146+399920730
2478+399915146+399601743+399334529+399319355+399385241+399278932+399008623
2468+398728906+398493041+398331287+398373835+398710970+399273742+399892325
2458+400330003+400391821+400184848+400051621+400089252+400045400+399820066
2448+399714273+399983308+400418528+400600221+400418103+400121968+399933962
2438+399861188+399888653+400082485+400417192+400727288+400912471+401008826
2428+401040448+401001785+400978235+401058475+401137865+401021208+400712751
2418+400448117+400469300+400866039+401491965+401913316+401703642+401000814
2408+400508995+400747651+401534756+402357762+402996161+403583242+404240275
2398+404844685+405131412+404963649+404493498+404042619+403844265+403906812
2388+404033788+403885811+403078404+401328875+398553039+394832290+390289081
2378+385002741+379098397+372928143+367026742+361747504+356968946+352286622
2368+347600110+343432032+340446583+338715050+337770744+337443350+338293275
2358+341047442+345856014+352378091+360423908+369565469+377880473+382436914
2348+381490816+376014529+369357403+364671589+362473670+361751388+362013018
2338+363098109+364502521+365598658+366072936+366183736+366688332+368177961
2328+370358036+372287225+373452100+374355468+375838329+378061741+380528908
2318+382867156+385084651+387201541+389093493+390741387+392390767+394371214
2308+396753527+399175445+401128882+402496694+403632315+404843319+406051805
2298+407079356+407973315+408859020+409700447+410377176+410848753+411195751
2288+411613066+412285395+413128916+413751777+413789348+413250611+412525659
2278+412061245+411977848+412001975+411809873+411371193+410890208+410519144
2268+410263523+410131661+410195149+410424155+410650369+410813853+411051538
2258+411440720+411897275+412404419+413051286+413799545+414487351+415064538
2248+415632470+416254754+416808665+417015335+416663754+415845543+414875106
2238+413963181+413109797+412329642+411782135+411574585+411583932+411583052
2228+411459020+411231077+410949205+410707605+410685026+410998581+411513919
2218+411943070+412154474+412240904+412288187+412319081+412486905+413008192
2208+413825037+414611231+415178859+415662332+416296604+417175845+418180028
2198+419040241+419548812+419754571+419925217+420338708+421081838+421969789
2188+422700082+423163738+423529218+423972875+424485269+424957848+425291857
2178+425438772+425476373+425584320+425850897+426197470+426522375+426791349
2168+426995348+427168908+427454786+427997771+428699871+429206530+429328650
2158+429387768+429847843+430669787+431386909+431777153+432105851+432739881
2148+433803971+435190569+436738405+438348333+439915987+441279247+442411559
2138+443542991+444909226+446513873+448236787+450015844+451877509+453877773
2128+456034146+458390998+461104529+464212372+467411106+470380258+473085080
2118+475423146+477031253+477852985+478464284+479556354+481448124+484176738
2108+487724413+492088115+497309418+503482221+510611318+518349923+525943101
2098+532569090+537651218+540832290+541981324+541262806+538905256+534989642
2088+529569924+522735930+514627383+505760047+497077469+489271886+482377773
2078+476283298+471182961+467249200+464281534+461942406+460048512+458510296
2068+457273283+456375712+455823076+455456018+455136575+454915703+454850788
2058+454819135+454640568+454296483+454004414+454067629+454565518+455285007
2048+456084888+457123061+458605285+460606246+463241085+466735348+471288299
2038+477042664+484081749+492346224+501694150+511966779+522710013+532981579
2028+541863027+549108296+554947666+559420529+562318515+563639561+563655889
2018+562594196+560571080+557758433+554346292+550388130+545851051+540828527
2008+535632412+530576808+525671912+520674091+515537883+510697385+506753335
1998+503901690+501789868+499997791+498508921+497529228+497023419+496723126
1988+496476064+496386537+496737511+497807762+499566092+501561682+503287964
1978+504617963+505812549+507181363+508769774+510374968+511872943+513384878
1968+515021785+516677994+518217788+519640197+520970893+522282835+523870336
1958+526053628+528720788+531379208+533736272+535925087+538111536+540195529
1948+542054462+543920497+546282053+549316848+552523169+555194699+557235962
1938+559115229+561214760+563572250+566005305+568311810+570488850+572663099
1928+574766879+576670484+578600432+580885572+583375863+585623797+587371960
1918+588451558+588798374+588913514+589624688+591210914+593060622+594244799
1908+594491528+594508887+595169622+596506389+597768499+598383713+598550383
1898+598845123+599540091+600476507+601508398+602716246+603881790+604213068
1888+603328122+602066557+601435502+601405336+601325096+600937917+600508312
1878+600342248+600509161+600762992+600705573+600268381+599863782+599713499
1868+599159406+597397708+594864989+592830827+591857386+591355128+590555217
1858+589349432+587991726+586536117+584875113+583056967+581330351+579990125
1848+579375761+579737752+580568375+580404192+578548598+576211077+574645912
1838+573736202+572664434+571123851+569616590+568741173+568339062+567548134
1828+566090219+564652940+563502024+562047447+559974986+557703260+555818592
1818+554887577+555256123+556494380+557654521+558249220+558408850+558267732
1808+557870052+557519230+557698951+558661709+560142507+561422765+561912581
1798+561798533+561937709+563219849+565903336+568916584+570407032+570194415
1788+570031264+571177081+573280194+575349985+577147736+579102448+581411562
1778+583901611+586456484+589188345+592153400+594826144+596300629+596490850
1768+596176264+596125400+596939757+598961173+601684780+603821397+604823850
1758+605395181+606155336+607299029+609320506+612788244+617122113+620309376
1748+621058364+620331166+619888268+620832878+623444683+627116117+630281955
1738+631949756+633280210+636098624+640144066+643024694+644040925+644354298
1728+644513018+644525400+644724543+645708970+647909985+651532194+656657295
1718+662672198+667417949+669014069+668461190+667943697+668683033+670900194
1708+674322896+678171744+681386138+684096149+688091820+694633442+701805997
1698+706647587+709398083+710938848+710955843+710103248+709924195+711264360
1688+714339639+719608589+726973611+733374114+735473707+734931268+734766235
1678+736548570+741063131+747435350+752774343+755919847+758773101+762391122
1668+765241887+766729968+768710779+772100827+775153345+775930070+775306602
1658+775631021+778450164+784162254+791154846+794982633+794930252+795016987
1648+796722966+798634159+798775883+797152997+795158651+793984125+794621978
1638+797745996+802751950+806545808+805881370+801660759+796896132+794015201
1628+794142602+796077951+797015763+795166056+791211172+787310550+784882350
1618+783730039+782413241+779784623+776619150+774102456+772351258+770945662
1608+769815930+769240715+769146636+768918419+767790993+765481150+762701946
1598+760742379+760362180+761346000+763045181+764875466+766202824+766393531
1588+765455233+764274880+763707434+763584161+763134040+762369150+762266696
1578+763441283+765075884+765430409+764242833+762998627+762708683+763038323
1568+763029825+762485080+761757032+760987955+760644719+761972442+765839135
1558+770033889+771279733+770120562+768135625+766080947+764305531+762930769
1548+762247941+762924821+765437024+769582190+774864554+780475403+783904175
1538+783454479+781659034+781220263+782323715+783548801+784356785+785948717
1528+789358308+794291671+799855663+805908865+812496373+818289553+821934099
1518+824223973+826529688+829356478+832977231+837782586+843945101+851459010
1508+859592745+865028973+864860239+862670270+862786199+866055644+871567317
1498+877591931+881897455+883443865+883944121+886066535+890920810+896731835
1488+900089047+900312286+899874608+900769508+903311938+907203637+912165587
1478+917704331+923122835+928021237+932223153+934745796+934937109+934529233
1468+935299706+936870395+937511465+936667063+936268777+938182761+942224015
1458+946196744+947052981+945008318+943232538+943184831+944471281+945878879
1448+946295435+945838942+945683864+946729532+949101953+952602953+957148226
1438+962570068+967719448+970555585+971241145+972292580+975215573+979486439
1428+983651695+986670345+987673891+986641029+985050189+983459835+980969968
1418+978654602+979297554+982813242+986754348+989535252+990565929+989291254
1408+986116920+982889780+981209171+981466097+983504143+987024991+991484986
1398+996060667+999490653+1000131723+997265602+992522279+988853940+988626331
1388+992067667+996166157+997257348+995613703+994540053+996167614+999992244
1378+1004163569+1007310287+1009224636+1010125788+1010274796+1010466110
1370+1011981929+1015644198+1020732213+1025252601+1027901734+1029497186
1361+1030909458+1030859081+1028972167+1027828413+1029882605+1034324331
1352+1038318363+1040575037+1042268452+1045297420+1050132091+1054861030
1344+1057194908+1057672828+1058165071+1058774822+1058297510+1056196825
1335+1053245183+1050793191+1050315150+1052934785+1058391710+1065021401
1327+1070724509+1073741823+1072952169+1068909094+1064230048+1061327692
1318+1060392853+1059978179+1059178693+1058120763+1056769308+1054238290
1310+1050419425+1047818606+1048788405+1052653520+1057804659+1063528525
1301+1068058502+1068746065+1066167582+1063869393+1063014552+1061887429
1293+1059180878+1054407024+1047793842+1040292194+1032345766+1023963906
1284+1015776454+1008930200+1004045637+1000792337+998035469+994374293+989155963
1274+982852027+976690847+972206513+970100790+968950603+965929040+959254677
1264+949625091+939559769+931387795+925536407+920762675+915909492+910884297
1254+906132051+901883156+897881537+893279817+887214112+879642724+871216009
1244+862495709+853664759+845013106+837253985+830884740+825633938+821163200
1234+817783046+815660085+814035681+812208553+810582024+809811126+809486706
1224+808438306+806156686+803469133+801847035+802098013+803743721+805777823
1214+807907763+810630277+813985546+817017792+818906709+820195526+822338758
1204+826163085+831201573+836398113+840886210+844151346+846406502+848800044
1194+852257343+856279417+859657204+861890813+863367180+864923787+867389072
1184+870939236+875359718+880887779+887818340+895547658+903130093+910384831
1174+917196609+922957803+928100020+934285357+941710103+947834926+950275508
1164+949598324+948614747+949776648+953262292+956791637+957897881+957720224
1154+960065695+966205388+973102142+977095385+977426117+975491678+972770924
1144+969811332+966443923+963192505+961965902+964602956+971142817+979837262
1134+987693920+991830892+991844002+990387119+990508146+992093159+992005332
1124+989142853+986865786+988540689+992587891+994043561+991297557+988605269
1114+991141690+998126574+1002824861+1001227102+996999208+994801774+994523908
1104+994537443+995220879+996941061+999012309+1001244340+1003060543+1002513612
1094+999153730+995162550+992191122+990834205+992007942+995487395+998596906
1084+999394754+999077193+997682947+991810559+980489864+968151724+958425146
1074+951382723+947358827+947447686+950020585+950772911+947437975+942512624
1064+939815967+940171341+941523160+942037618+942243195+943618079+945914569
1054+947862846+949869028+952923245+954820235+952311006+947389964+946097931
1044+951565599+961063111+968758865+970710116+967600362+962060891+955552531
1034+949317666+945208068+943917249+944183582+944313350+943356055+941269208
1024+939254772+939022975+941088942+944629940+949186442+955031092+961169147
1014+964476587+962403458+955206078+945424692+936637990+931251169+928313245
1004+924489221+918197970+910876467+903716840+896385080+888816666+881519805
994+874639743+868224491+862339842+856777184+852215584+850492367+851688987
984+852359494+848956154+841987901+834787911+829911967+827871432+827521156
974+826966517+825090589+822199340+818892567+815361219+811930262+809240341
964+807408661+805648844+803548644+802182744+803015431+805950138+809526280
954+812955355+816508978+819941999+822311749+823409130+824068348+825367787
944+828374904+833843058+841443641+849917334+857963789+864668015+869846528
934+874561021+880242521+886823412+893237694+899785385+907605808+915484075
924+919669360+918166651+913190438+908219140+904840503+902633176+900370008
914+897106997+892629460+888139724+886020588+887578227+891272786+893744383
904+892994243+890602824+890363804+894822221+903091126+911490406+916147177
894+915865306+912920826+910934917+912169957+915991432+919325093+919680528
884+918206953+918157304+920732267+924038918+925948351+926385604+926243575
874+926297534+927596244+930986656+935707340+939400442+940223418+939045736
864+938637556+940471361+943232356+944407914+943213662+941821237+942566219
854+944687783+945445389+944435167+945112412+950128624+957685627+963897366
844+966815261+966939141+965716544+964600832+963934634+963256054+962818193
834+962436841+961251268+960827004+963741499+969289590+974107569+976389310
824+978525563+984313584+992713410+996924249+992504798+984794235+982640137
814+987700840+993382340+993256760+987424309+981032667+979265081+983505904
804+990520346+994627516+993065143+988558837+985317190+984637518+984878359
794+984962484+986170635+989119970+990637064+986178222+975924561+965193042
784+959113923+958090529+956796554+948928484+935404771+924459723+921948005
774+926094749+931135907+933547962+933609022+932600317+931282427+930200219
764+930352384+933569388+941113402+952031683+962470527+967223441+964311434
754+957105799+950800406+948168268+949257031+953912406+962157276+971857572
744+978496186+978917112+974254453+967939349+962531527+960060536+962207714
734+968017040+973396577+974171603+971307182+969556409+971269854+974119890
724+973692834+969937761+967157161+966405685+964915601+962405583+961417757
714+962000680+962335782+963911205+969936122+979095618+985702488+986003115
704+979164751+965506900+950325521+942279067+944330466+949810395+950347736
694+945663106+941173430+940729986+944026805+947545589+947024939+939924734
684+929343375+922510838+923280827+928429295+932092839+932719706+931849145
674+929681452+923691070+911903563+897500002+891352115+900601198+911806935
664+912331469+907023006+904550802+906783622+910916769+914910499+917880956
654+920020243+922638603+924896976+922984266+914940846+903202078+892991876
644+888659706+891387683+900886833+917023141+936873915+950380269+947639546
634+932927225+919329038+912935636+910945782+908937415+904713527+897653320
624+890824425+888121212+886839315+881827776+875308066+872931397+875852629
614+883198168+893955241+902586865+901911441+893903285+886414626+884712531
604+885597173+880982525+869877847+857934048
##END=
