##TITLE=<SNM>
##JCAMP-DX=4.24
##DATA TYPE=INFRARED SPECTRUM
##DATE=29/4/2025
##SAMPLING PROCEDURE=Instrument type and / or accessory
##ORIGIN=Admin
##XUNITS=1/CM
##YUNITS=ABSORBANCE
##RESOLUTION=4
##FIRSTX=4497.3318
##LASTX=599.83466
##DELTAX=-1.4281778
##MAXY=2.0468042
##MINY=0.45447296
##XFACTOR=1
##YFACTOR=1.9062349e-09
##NPOINTS=2730
##FIRSTY=0.46791551
##XYDATA=(X++(Y..Y))
4497+245465810+245306529+245588147+246232132+247186048+247988751+248090311
4487+247474389+246460906+245359967+244604103+244453328+244419699+243857824
4477+243125381+243158713+243945438+244478937+244225711+243660099+243473740
4467+244013368+245163070+246312163+246827198+246818912+247059834+248082150
4457+249703690+251192450+251579723+250292128+247971429+246250252+246136420
4447+246895582+247152544+246707191+246327266+246243842+246019758+245589945
4437+245367268+245430899+245359998+244916161+244455876+244458002+244825639
4427+244930763+244323314+243060733+241542628+240500285+240804901+242604123
4417+244803610+246036659+246095990+245811934+245627373+245054867+243716929
4407+242222510+241484376+241660619+242270162+242905080+243328499+243257223
4397+242626808+241868365+241455296+241415382+241701424+242560129+244024624
4387+245454584+246005719+245364063+243774619+241702456+239753709+238556416
4377+238413926+239108066+240113872+240991510+241534968+241670484+241470461
4367+241165142+240947546+240911854+241126776+241467100+241522398+241031361
4357+240258691+239708729+239761338+240557412+241815272+242907441+243433732
4347+243500052+243320213+242898217+242233282+241659165+241690027+242305011
4337+242731338+242424581+241771043+241260886+240707047+239892899+239230325
4327+239227886+239832755+240594231+241172725+241465755+241361366+240709798
4317+239696238+238950302+239032162+239945289+241180495+242036323+242034118
4307+241381675+240938494+241351392+242248572+242715063+242605452+242679636
4297+243353373+244198914+244726659+244877779+244811287+244682884+244500246
4287+243998422+242933096+241579572+240548173+240132946+240142576+240274779
4277+240439125+240697807+241055203+241434956+241731879+241810879+241764242
4267+242085789+243041378+243997624+244040634+243134057+242112336+241761506
4257+242195853+242976294+243631129+243968795+244002002+243955975+244182482
4247+244511268+244184171+243091689+242318472+242747801+243893595+244821465
4237+245487041+246254004+246716837+246189545+245045392+244292953+243952926
4227+243179568+241907513+241065725+241238122+242152156+243274952+244216674
4217+244749407+244851764+244665061+244318765+243897019+243506150+243265369
4207+243326279+243928990+245247510+246908496+247872434+247433115+246240387
4197+245563070+245650855+245693943+245278356+244856688+244687605+244323877
4187+243473897+242606687+242353320+242750146+243215074+243158884+242760793
4177+242952577+244185687+245641568+246386879+246736880+247524058+248613757
4167+249084985+248473269+247176684+246007720+245719458+246515469+247694595
4157+248108681+247255558+245737046+244527652+244121431+244435255+245105662
4147+245796815+246486765+247323441+248009060+247885816+246969234+246163530
4137+246117112+246514844+246695747+246411112+245835056+245302058+245172889
4127+245641365+246463142+247016356+246962215+246791928+247277821+248425444
4117+249469835+249876322+249886188+250132347+250920307+251753841+251668494
4107+250373691+248779760+247980356+248171702+248847737+249506216+249909670
4097+250013371+249829467+249350093+248690661+248185585+248131741+248527613
4087+249101573+249456718+249320639+248861105+248579190+248774867+249314948
4077+249975208+250734308+251583600+252270376+252429704+251902552+250875421
4067+249820368+249224739+249155339+249213435+249140236+249214670+249776608
4057+250638736+251245544+251225469+250668988+249983166+249477777+249129496
4047+248892732+249016727+249654490+250360074+250498529+250101845+249843178
4037+250157893+250832787+251501459+252107703+252723375+253226278+253387357
4027+253170980+252866193+252852466+253158270+253437464+253536241+253724022
4017+254136482+254466518+254498068+254411377+254326343+254046273+253488181
4007+253094764+253582221+255180857+257135874+258210126+257887516+256761593
3997+255624147+254701953+253947481+253508396+253586739+254107668+254742992
3987+255200494+255482174+255876935+256559537+257232618+257464190+257316026
3977+257178930+257108279+256952579+256942823+257352156+257669466+256998309
3967+255439321+254320120+254807545+256658704+258368656+258599463+257534012
3957+256455398+256112339+256163228+256193699+256444142+257179227+257991701
3947+258245944+257993531+257954414+258533127+259249921+259420692+259021006
3937+258492947+258300429+258909691+260388132+261814606+262097771+261506973
3927+261169448+261365171+261300774+260434644+259522283+259897001+261855332
3917+263993081+264474581+263032801+260977257+259573187+259106806+259333641
3907+260451403+263115381+267210897+271109486+273061563+272639192+270129570
3897+266232263+262635882+261233266+262527193+264945355+266179514+266081144
3887+266449390+267960741+269338452+269809258+270165841+270249671+268746043
3878+266304368+265447273+267291100+270594560+273733893+275752009+275795253
3868+274245129+273016506+273077854+273281160+272214506+270194264+268495491
3858+268339337+271249411+278493422+286781261+288120919+282091773+274461412
3848+269082396+267296979+268715275+271791759+275017643+278059294+281040003
3838+282893147+282296080+280017343+277819685+276274627+275035685+274211078
3828+274119806+274399032+275001727+277266862+281735190+285357805+285261093
3818+283337845+281943968+280401349+277515351+274237562+272493137+273548785
3808+276772605+279569050+280905862+282802376+286014032+287693200+286111777
3798+283242852+280654278+278280423+276299266+275395301+275654890+276519770
3788+277581046+278731155+279824606+280965928+282763134+285402738+287667029
3778+288005883+286674699+285513490+286287942+289562354+294109353+297852663
3768+300223360+302115184+303836595+305400477+307739624+311619452+316037156
3758+319396993+322160575+326526500+334312984+345149061+355011194+359723883
3748+361100218+363741073+368781953+372369017+372185597+371822447+375560693
3738+384813908+397001430+406588560+410313422+410139789+409717261+411021335
3728+414239777+418497513+422611353+426117775+429095482+431108189+431684869
3718+431453328+431948836+435009154+442205762+452857607+462576688+467885444
3708+470290505+472723081+476676202+481984895+486805085+489217431+489540119
3698+489308140+489394847+490534419+493941939+500088091+507117758+510967724
3688+508879192+502681699+496215267+492084605+491150059+492880163+496333867
3678+500886995+504931512+505789607+504331725+504431189+506943562+508143200
3668+505327931+500662770+497159349+496295532+498333410+502569633+507685683
3658+512276020+515420887+517646343+520665105+525398213+530685800+533695432
3648+532704479+529334511+526239391+524612692+524099267+524081225+525132370
3638+528600770+534775438+542025796+548026613+552053026+555282975+558359896
3628+559658842+558644250+557778244+559311264+563111045+566427482+566529792
3618+564901091+565222403+567489915+568961712+569563688+572185281+577578118
3608+582677720+584518295+583494697+582015584+581739047+582677220+584526487
3598+587697214+591783850+594353600+593651878+591634075+592317224+597545902
3588+604006549+605430881+600514072+593997767+590078479+589629217+591394810
3578+593502603+594620568+594502249+593792272+594350536+598528538+606004215
3568+612145926+612637526+609049368+605435258+603709188+604597644+608456835
3558+613891258+618019731+619179346+618044245+616276276+615448730+616550873
3548+619047206+621112787+622049271+622910337+623961138+624153062+623447713
3538+623342339+624795750+627010731+628024072+626231964+622271776+618854969
3528+617974767+619318302+621506955+623363289+624010729+623199631+621638344
3518+620644263+621162003+622963180+624909879+626073809+626538580+626968456
3508+627779180+629114709+630991180+632913240+634376719+635304386+635563725
3498+634923914+633668431+632894166+633364503+634511110+635235346+635017593
3488+633597577+631118004+628794460+627761357+628042083+629910111+634144896
3478+639250690+641438217+639063581+634225756+629607997+626549399+625527552
3468+626158858+627181831+627692754+627740782+627745347+628313804+629878280
3458+632044107+634124009+636125490+638118592+639086407+637800531+634753564
3448+632217896+632023032+633325043+633610272+632101828+630590133+630571998
3438+631687399+632785290+632936879+632075188+631339884+632107269+633985553
3428+634731489+632795483+629574228+627873172+628509794+629818370+629984780
3418+629051673+628347949+628560761+629195694+629352411+628740678+628049900
3408+627887055+627906942+627663925+627637534+628109372+627936709+626224522
3398+624115040+623481858+625107182+628631677+632765028+635487931+635823376
3388+635140603+635431398+637075357+639134435+640719298+641767034+642736851
3378+643012387+641269244+638220964+636745290+638393815+641576798+643719925
3368+644019912+643834429+644979285+648044074+651423735+652725370+652114451
3358+652191871+653599005+653625021+650762787+647961902+648959484+653445541
3348+657700275+658778967+656806441+653973974+652686473+653954838+656490882
3338+657772880+656709009+654687704+653797809+654918088+657178283+658261103
3328+656306524+652769834+651282028+652843127+654532988+653816257+651842667
3318+651107863+652388736+654611409+655787783+654419985+651342250+649420378
3308+650974098+655933681+662015107+666312116+667469167+666502977+664896852
3298+662876172+660165902+657143012+654754555+653967658+655092002+656883111
3288+657092108+655061109+653158748+654380024+659020796+664620253+668937211
3278+671536104+672277849+670707245+667521635+664410756+662020360+659333354
3268+655489047+651304916+648349190+647293574+647621640+648842040+650935575
3258+653176071+654311859+654776756+656872354+661646517+666959557+669445508
3248+667716186+663687646+660884009+660778197+661105388+658828496+654381650
3238+651399596+652272794+655645888+658634946+660307485+661682038+662801128
3228+662098718+659327475+656784490+656394825+657513291+658568532+659150559
3218+659528405+659712200+659361120+657972059+655655456+653561546+652673403
3208+652787282+653598880+655268668+657011248+656843963+653827889+649624435
3198+646992586+647048868+648235937+648299098+647312085+647241731+648547994
3188+649225264+647632897+644507134+641547781+639865299+640020890+641874660
3178+644040237+644621013+642823339+639192594+635012903+632330837+632898794
3168+635826378+637656822+636178897+632926122+630712892+630390579+630936898
3158+631320059+631221815+630843156+630358623+629174182+626415321+622639053
3148+619907708+619372208+620038660+620541203+620685538+620601801+619965054
3138+618732960+617346338+616030695+614970013+614684346+615338353+616243569
3128+616506910+615613639+613535175+611026898+609469301+609661976+611135274
3118+612810439+613589269+612692370+610424421+608097312+606664538+605940553
3108+605252464+604247690+603089951+602381975+602652196+603443470+603425772
3098+602214503+601280144+602082988+604005986+605014950+604195972+602748940
3088+602188050+602387791+602202496+601429232+600787357+600287002+599290545
3078+597989973+597067247+596247393+594841197+593109686+591676224+590457888
3068+589277011+588573975+588654898+588924805+588480108+587297480+586369376
3058+586373753+586684747+586304963+585369292+584880381+585308069+586224854
3048+587020256+587332313+586890430+585449839+583156875+580860034+579657207
3038+579944312+581005369+581540056+580683868+578732979+576694101+575051955
3028+573480975+571987541+571436281+572227431+573334014+573617367+573278795
3018+573006573+572678257+571950457+571153554+570702791+570412809+569873682
3008+568802994+566954852+564468838+562171622+560920579+560929709+561841929
2998+562958081+563527726+563353062+562992789+563004546+563195220+562889666
2988+561769575+560141124+558385974+556690484+555414489+555027013+555313492
2978+555290542+554507647+553808551+554062012+554759294+554649417+553400313
2968+551762919+550534014+550081375+550368230+550815116+550482297+548986236
2958+547041663+545683119+545190269+544953006+544078370+542247176+540325053
2948+539679051+540520292+541599735+541942623+541910604+542085394+542277693
2938+541995466+541013393+539402765+537366451+535081929+532835055+531228304
2928+530689302+530810060+530879476+530859777+531092788+531483829+531717465
2918+531829906+531964171+531870179+531134124+529777770+528130245+526209249
2908+523995331+522250938+522051071+523325190+524660032+524712938+523294453
2898+521180062+519372632+518388620+518001175+517680800+517157463+516428225
2888+515566066+514848021+514688459+515167145+515679319+515331272+513926671
2878+512224708+511027290+510477469+510385978+510665016+511113434+511236350
2868+510626212+509431046+508338502+508067875+508761718+509800480+510262750
2858+509511468+507553262+505267333+503968294+504143365+504812630+504624052
2848+503356718+501834204+500744787+500077553+499421014+498465174+497325009
2838+496359413+495554443+494459554+493018525+491910409+491657543+491886958
2828+491850718+491369781+490900976+490815395+490908793+490630756+489694491
2818+488413712+487390458+486905237+486747645+486650369+486634016+486738734
2808+486671632+486143104+485431877+485032894+484733094+483696801+481695664
2798+479573706+478158818+477363603+476687302+476057247+475814011+476151802
2788+476793145+477170178+476984100+476554131+476303922+475984267+474963452
2778+473309205+471857451+471091691+470665911+470099205+469262592+468175051
2768+466960154+465974109+465495486+465379168+465307345+465088623+464530423
2758+463530464+462461465+461885534+461824718+461857706+461744264+461383022
2748+460569235+459417719+458513159+458121399+457813125+457191356+456404365
2738+455739008+455212138+454678608+454076412+453509644+453088023+452686132
2728+452103510+451489089+451207456+451217556+451020503+450331538+449420881
2718+448664440+448121685+447736648+447603758+447702847+447635745+447011694
2708+445913459+444687305+443542856+442612156+442071059+441941921+441983945
2698+441927225+441695808+441354328+440951530+440501830+440062573+439708961
2688+439411819+439034536+438544750+438186697+438195421+438211180+437368969
2678+435396474+433225175+431992393+431859596+432207706+432546341+432826786
2668+433160074+433545987+433752483+433436329+432529550+431381692+430393709
2658+429678166+429142103+428706630+428362992+428128480+428016571+427909509
2648+427445519+426375676+425074572+424228953+423986562+423952917+423928465
2638+424006073+424092499+423945256+423535799+423007803+422559103+422508136
2628+422985759+423445652+423029784+421639629+420201227+419642901+419946640
2618+420393683+420487863+420320484+420100168+419758155+419219560+418710888
2608+418448985+418234172+417761490+417201506+416985286+417034565+416751713
2598+415907595+414985462+414442083+414161106+413871062+413638113+413651715
2588+413828474+413855803+413540025+413076660+412920976+413272275+413801896
2578+414049260+413907990+413558786+413154550+412723360+412222474+411662272
2568+411227925+411108511+411187776+411175926+411019115+410867965+410739640
2558+410526390+410215021+409895647+409693216+409714854+409869256+409826857
2548+409396668+408823802+408530850+408687910+409083485+409311868+409141238
2538+408724088+408329326+408008733+407774815+407856175+408382982+408996747
2528+409123915+408530819+407446154+406377499+405940056+406494442+407691172
2518+408655954+408887089+408696290+408573156+408526973+408291960+407805114
2508+407230247+406748622+406451198+406299203+406203741+406219313+406539031
2498+407193381+407874248+408220763+408208787+408027712+407678039+407088946
2488+406544972+406465113+406766038+406913562+406592531+405980736+405446143
2478+405239928+405364751+405557270+405501800+405169669+404872526+404890537
2468+405124705+405282453+405343989+405548515+405917074+406139047+406006251
2458+405682093+405447925+405390641+405438794+405533787+405620182+405610614
2448+405501863+405341394+405053163+404623662+404379488+404616095+405093061
2438+405372318+405423567+405453334+405444266+405275793+405080116+405166041
2428+405663738+406377530+406949051+407111552+406840988+406354610+405934959
2418+405714612+405697195+405929331+406423213+406971627+407352130+407635859
2408+408005418+408449146+408874707+409261996+409511422+409448761+409126010
2398+408841875+408801914+409013288+409492943+410277589+411266885+412355208
2388+413684046+415592598+418529657+423208014+430569249+441397447+456131112
2378+474983557+497920700+524555564+554291771+586222477+618320719+647251299
2368+670462227+688265685+702369482+713818605+722143340+725269603+721378206
2358+710074606+691213343+663841924+628283724+590764692+561495852+547384113
2348+550292498+568707751+596583089+622560320+637934046+644189449+647249798
2338+650002718+651555750+650289448+646235018+640593724+633987429+626113144
2328+616724662+606063062+594207515+580977665+566955728+553537393+541484543
2318+530433278+519870360+509676627+499864773+490520817+481939963+474375859
2308+467720066+461688670+456249869+451612880+447794338+444517268+441650938
2298+439357068+437611830+436040788+434446325+432997292+431709509+430324513
2288+428880044+427810295+427299684+427043472+426774190+426567631+426517321
2278+426522887+426501030+426458818+426348097+426176372+426158518+426392654
2268+426551653+426271552+425660102+425072977+424594948+424131803+423894758
2258+424320194+425363553+426265299+426351161+425807094+425330253+425319840
2248+425723732+426304572+426727162+426693048+426232436+425628677+424996308
2238+424228172+423359289+422661476+422313241+422199206+422098835+421907629
2228+421636971+421371097+421258688+421381760+421635877+421884897+422142673
2218+422461484+422806154+423194756+423784975+424631595+425464143+425879980
2208+425785331+425556729+425680395+426289219+427150222+427991119+428667889
2198+429162365+429643615+430413096+431597631+432955674+434097778+434871386
2188+435427367+435897391+436197629+436293029+436443773+436932277+437685717
2178+438375745+438801118+439057643+439379393+439855140+440321068+440565211
2168+440560864+440442827+440384511+440526657+440866355+441221094+441429716
2158+441516360+441581929+441672889+441810813+442001768+442188221+442299129
2148+442311168+442206356+441996953+441844739+441977629+442412477+442919648
2138+443317912+443666303+444122131+444734739+445435586+446167263+446931365
2128+447675894+448261892+448661657+449071928+449701108+450546945+451448096
2118+452229428+452788473+453198087+453689968+454376713+455084313+455630570
2108+456131988+456782617+457435936+457747743+457726762+457773790+458133938
2098+458676317+459219728+459704167+460073351+460318182+460552475+460799588
2088+460870129+460627644+460187324+459762389+459469655+459323820+459309093
2078+459384856+459453052+459430351+459398270+459550546+459916322+460265870
2068+460369587+460269278+460248641+460523489+460947612+461167459+461155421
2058+461296972+461790698+462338987+462652232+462880522+463286915+463809939
2048+464205608+464443966+464764153+465356780+466097900+466666107+466904965
2038+466977820+467164054+467610940+468290118+469089835+469919069+470785919
2028+471810017+473119844+474689229+476335753+477966612+479720948+481699572
2018+483631263+485075981+485989140+486785730+487796570+488965846+490106950
2008+491146557+492060310+492831510+493502777+494078707+494426160+494469873
1998+494439417+494789903+495877570+497627842+499449186+500681218+501240170
1988+501603913+502265487+503477101+505298445+507540035+509725874+511400477
1978+512617531+513977388+515917927+518091571+519911884+521582579+523824200
1968+526614485+529043904+530570108+531665497+533070067+535063356+537562315
1958+540462821+543584582+546433995+548459928+549694712+550817492+552467143
1948+554838152+557957912+561789211+565788171+568896298+570646070+571888983
1938+573686095+575979309+577926008+579215324+580464115+582398620+585121397
1928+588200570+591276866+594337028+597274806+599656759+601312226+602448764
1918+602903843+602474342+602086490+603070940+605436509+607983559+609828511
1908+610980433+611726306+612311586+612925632+613582890+614279172+615167566
1898+616263893+617220202+617722995+618026485+618797560+620277049+621730710
1888+622109431+621210407+619653185+618243424+617788534+618636904+620032594
1878+620621563+619835354+618394763+617563965+618159187+619920153+621493197
1868+621396203+619375648+616294911+613130001+610632480+608986144+607460878
1858+605266472+602763948+600945074+599964314+599138081+598162011+597525952
1848+597869903+599316686+600943761+600856335+598125803+594113773+590671137
1838+588554402+587462827+586794186+586545353+587195733+588417321+588703801
1828+587287224+585069804+582647703+579544766+575866431+572828407+571220656
1818+570615990+570326884+570444702+571420960+573038780+574333723+574491503
1808+573597793+572544741+572477077+574067818+576785342+579004138+579544641
1798+579086874+579413814+581648682+585289558+588161485+588320202+586677055
1788+585664464+586479252+588772091+591665280+594482238+596742495+598287647
1778+599658635+601811142+605406554+610224179+614617682+616508599+615823824
1768+614096065+612682114+612656725+614585413+617493236+619291411+619507037
1758+619717785+620862453+622561570+624856535+628654566+633945780+638645087
1748+640783335+640976886+641078570+642141941+644267619+647035048+649594042
1738+651706838+654783822+660036139+665153189+666044085+663675952+661695671
1728+661577039+663046334+665144122+666660507+667551902+669926601+676136290
1718+685355485+692207298+692955173+690566340+689159144+690308315+693939560
1708+699358161+705215081+709828025+713324691+718238498+726217157+734408877
1698+738668927+739433999+738413278+736413235+735157189+736280095+739716726
1688+744715770+751905093+761827512+770382382+772577163+771270650+771175595
1678+773701257+778495306+784366735+789660826+794065898+798298056+801277609
1668+800857238+798214070+796689742+797586078+799455357+800564880+801491108
1658+803996196+809245011+817886807+828755340+835797640+836266101+835924339
1648+837967219+839816361+837159247+831060123+825810996+823483012+824277100
1638+827903530+832625225+833726055+828896047+822956642+820452805+821279538
1628+822509693+822253982+821486408+820925581+819091760+815637994+812971499
1618+812564511+812120315+808395577+802783363+798610989+796713319+796017787
1608+795512367+795036527+794744419+794562500+794110987+793063563+791758238
1598+791092662+791519411+792486538+793020913+792667957+791813082+791216672
1588+791231430+791562749+791873368+792280543+793140295+794762492+797318860
1578+800431865+802409895+801462654+799177570+798671337+800177529+800613596
1568+797413728+792301430+788193219+786429877+788062705+794322423+803108052
1558+805668360+799399825+791632915+785950097+782369443+780419367+779292522
1548+778296002+778131031+780865002+788453683+800931969+813634199+816739574
1538+809057089+801126583+798846689+801115139+803458757+803044891+801629752
1528+802171443+805864037+812053963+819821686+828564979+836561335+841714344
1518+843942083+844222871+843685996+844014813+846345361+850297981+855186586
1508+861252377+867898133+871949686+872545284+872499820+874265225+878788492
1498+884976730+890031244+892965269+896055886+900888771+906021955+908640547
1488+908015369+906022080+904611382+905222238+908566254+913621393+918617185
1478+923401353+929176850+936067811+942215589+945318088+945255614+944802974
1468+946599398+950508806+953486670+953001824+951021230+950855758+953148285
1458+956113266+956918173+954707382+951155809+947451458+944564898+943861112
1448+945174191+946056394+944664456+941751818+939169435+938362776+940294967
1438+944898718+950093563+953095254+953615870+953307503+953526068+954616517
1428+955436120+954548164+952056647+949419983+948480121+950711987+955861181
1418+960205780+959935060+956718807+954670611+955182410+956478604+956763333
1408+956500805+957027174+958431494+959615561+960083834+960387074+961084106
1398+962330959+964130697+966348680+968013777+968144541+967884139+969291460
1388+971809931+971968336+968528765+965333587+966288207+971301697+977615258
1378+982970135+986699812+988483229+988106009+986868098+986742275+987677196
1368+988000009+987891508+989844524+994598862+998930892+999622233+997856077
1358+996899268+998577810+1002178038+1005014068+1005275784+1004787686+1007183710
1348+1013334990+1019889754+1022972117+1022653430+1022323988+1024267873
1340+1027458048+1029934995+1032239653+1036326852+1041936252+1046068790
1331+1046544255+1044205014+1041460537+1040399355+1042160758+1046873885
1322+1053174064+1058687408+1061985459+1063476204+1064158853+1064681032
1314+1065382442+1065957153+1065945271+1065955026+1066853051+1067922175
1305+1067594484+1065784052+1064518563+1066316988+1070963076+1073741823
1297+1070191250+1062296390+1055487289+1051840035+1049157281+1044736262
1288+1038553464+1032305379+1027053437+1023034903+1020561084+1019448997
1280+1018058310+1014594600+1009172997+1003714997+1000106140+998395329+996361641
1270+991645513+984457003+976965441+970929980+967097179+965399563+964535246
1260+962273363+957016731+948870724+939721070+932222629+927532203+924203384
1250+919981294+914121872+907392443+900507923+893342990+885578831+877468909
1240+869576800+862025204+854464914+846906814+840208027+835394592+832641734
1230+831162746+830053973+828916872+827680588+826528728+826128994+827091494
1220+828877912+830043405+829948099+829545426+830187239+832181903+834686866
1210+836871767+839044973+842374605+847369897+852827396+856778640+858662365
1200+860016281+862784710+867352439+872375372+876111241+877898847+878857094
1190+881194396+886128777+892078439+895780726+896200971+896159197+898983158
1180+905196036+913371247+922556610+932322062+941673522+949884254+957419841
1170+964462328+969856540+972741100+974285814+976482659+979550013+981666373
1160+981538674+980403574+980779293+983805685+988328201+992467993+995521901
1150+997841631+1000006082+1001797440+1001961161+999666071+995400705+990840105
1140+987981248+987956671+990221681+993053898+995445231+998259249+1002868816
1130+1009289065+1015651592+1019388962+1020023332+1018862842+1016388147
1121+1013098164+1011733429+1014743624+1019981370+1022345876+1019965423
1113+1015652030+1013388333+1015710502+1021155243+1023992650+1020822674
1104+1015270307+1012317520+1012808307+1014279416+1014801658+1015481868
1095+1018616949+1023709672+1027378252+1028409229+1029052417+1030347861
1087+1029768898+1024067319+1013890501+1004310783+999306986+998063635+997192189
1077+995089961+992873542+991309567+988360595+981784005+973722298+968958954
1067+969564307+973656947+978097415+980915685+981177088+978442866+973395169
1057+967997517+964733799+964634116+966000164+966240179+964769257+963023300
1047+963012607+965849138+970317497+974314393+977084073+978743167+979592913
1037+980268995+981154762+981285339+979219382+975324420+971717314+970123946
1027+970689339+972132682+972644231+971602247+970195238+969952346+971883724
1017+976558704+982506677+985315379+981829781+974464293+967720293+962301191
1007+955920090+947759513+938986203+930102516+920684204+911265955+903260656
997+897124635+891931853+886800420+881668986+876534488+871246338+866488122
987+863698180+863430587+864308662+864086720+862004629+859514988+858324543
977+858322104+857799736+855215415+850389034+844640428+839582787+835467447
967+831346353+826905385+823069458+820783310+820235678+820950220+822111961
957+823430356+825537336+828718756+831890108+834039488+836101755+839979832
947+845972143+852210098+857101766+861476696+867105420+874117389+881312090
937+888044521+894425247+900920852+908035569+915138591+920811028+924828374
927+927968457+930263547+931539542+932587967+933373989+932082422+927837256
917+922443356+918263165+915712926+913612638+910986667+908118367+906464776
907+907485748+911236750+916542348+922260249+927225586+929378406+927436584
897+923806902+922842026+925605890+928889120+930604309+932812786+937273891
887+941811415+943105296+941575090+940759551+942711878+946603088+950476099
877+952572386+952465261+952043139+953316007+955104864+954360555+950787719
867+947928925+949006866+953659958+958757622+961499161+961980191+962344967
857+963950717+966791313+970409176+974638082+979635250+984536549+987294222
847+987514538+988223077+991699857+994697545+992539597+986422963+981548242
837+980381311+981320484+982401928+982787028+982038341+981904575+986159309
827+994560465+1000852451+1000341027+995856034+992988797+993671633+996306734
817+999671699+1003861395+1008558138+1012973528+1016695014+1019757927+1022957295
807+1027811380+1033742093+1036779804+1034430870+1029468160+1025405225
798+1021419585+1014805098+1005751937+996973436+990482459+986123038+982893152
788+980929506+979925545+977644400+972898629+967286415+962263419+957380193
778+952118934+947234957+944056538+943713025+946441744+951222723+956053981
768+958532866+957093901+951993735+945205897+939966588+939652529+945385877
758+954881672+964173410+970181042+972215918+972213604+972974173+975299031
748+977860339+979414121+979791091+980114780+982673399+987667440+991227769
738+990424237+987600839+987264767+990525984+993278341+991326514+986922255
728+986310773+992496009+1001597073+1007182710+1008413553+1009893855+1014332322
718+1018745899+1018623452+1013293215+1004457431+994518878+986693559+984145133
708+988637006+998181954+1006679291+1008198115+1000631697+987049767+973708352
698+965784163+965644769+971845889+979849125+986084078+989240233+987783133
688+980995732+972210102+967281787+969663803+976235577+979552452+976877265
678+972169954+967974692+962431517+954127231+944646946+936596870+933085945
668+939407011+956456091+970516676+969627031+959001077+949923402+946967613
658+946509721+942425023+933543150+926507292+929393352+942270621+954660730
648+955561318+944826738+932665387+928270884+932920474+941727929+949254824
638+953863202+953302312+947223763+942797929+946339121+952199293+946733789
628+929173036+910511639+898450409+896038126+903890148+917279091+925352805
618+922525529+915640196+913322281+918768023+928677559+936437965+936481741
608+927292875+914719096+907422023+907118908+906821297+898205829+882047519
##END=
