##TITLE=<SNM>
##JCAMP-DX=4.24
##DATA TYPE=INFRARED SPECTRUM
##DATE=29/4/2025
##SAMPLING PROCEDURE=Instrument type and / or accessory
##ORIGIN=Admin
##XUNITS=1/CM
##YUNITS=ABSORBANCE
##RESOLUTION=4
##FIRSTX=4497.3318
##LASTX=599.83466
##DELTAX=-1.4281778
##MAXY=2.1281848
##MINY=0.47575289
##XFACTOR=1
##YFACTOR=1.9820265e-09
##NPOINTS=2730
##FIRSTY=0.49082908
##XYDATA=(X++(Y..Y))
4497+247640014+247412966+248189334+249140590+249462878+249000046+247553810
4487+245270776+243541843+243865244+245836501+247522445+247758770+246984928
4477+246078089+245638834+246223400+247945611+249733516+250158847+249206945
4467+248101823+247430498+246617546+245312321+244222852+244131205+244816755
4457+245516649+246064992+246907220+248087584+248981416+249269797+249339445
4447+249324845+248792816+247776393+246984356+246712545+246592165+246477333
4437+246570813+246681961+246360275+245755170+245551909+245987390+246528020
4427+246681856+246673466+246910859+247055718+246317076+244680511+243154208
4417+242764587+243736924+245468683+246978672+247635367+247657546+247584033
4407+247325800+246442914+245268219+244869232+245580689+246337375+246102673
4397+245266370+244790186+244767646+244714027+244585948+244662077+244902176
4387+245085318+245219863+245482832+245987856+246567310+246737069+246079623
4377+244718252+243333109+242639410+242883359+243908112+245429604+246874230
4367+247323815+246392814+244831866+243674583+243156162+242794224+242184202
4357+241393939+240818095+240860783+241532409+242325964+242756122+242798945
4347+242502174+241768087+240975104+240977254+241963559+243176025+244047604
4337+244623388+244826498+244404866+243646766+243185062+243074124+242957127
4327+243043435+243965957+245607919+246891432+246918918+245739712+244070293
4317+242782796+242400258+242695300+243035015+243124225+243033181+242811290
4307+242621111+242903688+243943598+245400268+246488850+246746106+246553762
4297+246563325+246676142+246213265+245126217+244180945+243733285+243277821
4287+242501542+241891896+241915022+242378681+242957909+243602575+244138438
4277+244212852+243854508+243466752+243212954+242898365+242439713+242154129
4267+242551598+243854057+245609754+246759473+246317001+244332466+242034290
4257+240597437+240084985+240033561+240443962+241456866+242670490+243574487
4247+244165278+244650709+245084566+245552511+246225715+246992731+247354384
4237+247000580+246355794+246126461+246331586+246222317+245243410+243728143
4227+242514308+242117531+242431744+243097431+243882535+244614141+245068883
4217+245261453+245657990+246675556+247957264+248487925+247619008+245794760
4207+244203229+243932140+245216104+247079882+248079599+247752966+246847135
4197+246030815+245268941+244545711+244165202+244146437+244111147+243864507
4187+243575148+243455700+243594590+243885152+244042702+243977956+244024282
4177+244530464+245413124+246316474+247014970+247498988+247824930+248046114
4167+248201965+248250757+248067495+247603656+247061327+246776149+246845225
4157+247039404+247191406+247433610+247901795+248393151+248414803+247576756
4147+246117108+244935572+244761993+245403366+246078495+246377883+246699674
4137+247665605+249190901+250427170+250699507+250233653+249707518+249407875
4127+249209110+248945780+248513201+247958632+247610512+247821667+248525516
4117+249189789+249233650+248581345+247793970+247396396+247212697+246724649
4107+245887128+245191986+245084942+245612024+246449139+247150462+247569869
4097+247889285+248103597+247963594+247600228+247571959+247957430+248079780
4087+247513844+246671421+246081773+245850861+246028860+246694321+247513092
4077+247922305+247917974+248119882+248906340+249894314+250356199+249941182
4067+249000647+248258336+248077735+248055887+247528174+246529869+245924132
4057+246377101+247522069+248408518+248530899+248094530+247559630+247344430
4047+247711616+248553318+249331220+249529609+249193322+248715845+248189966
4037+247391900+246405850+245834110+246245939+247595837+249189217+250192679
4027+250315285+249960474+249662500+249594205+249637870+249598325+249337896
4017+248984348+248841233+248856991+248548160+247738546+246963350+246849045
4007+247456811+248458078+249586251+250652534+251363510+251399687+250701161
3997+249658470+248926969+248885680+249341114+249824861+249872632+249112562
3987+247762529+246893266+247361090+248655143+249591348+249888841+250255410
3977+251168564+252211376+252583389+252042127+251179721+250675945+250582014
3967+250585487+250572135+250628777+250848712+251298478+251899749+252385030
3957+252580321+252554970+252383286+252117865+252103130+252739195+253700134
3947+254082627+253669670+253172691+252967656+252539784+251504776+250332441
3937+249766085+250185432+251519241+253315806+254878889+255627215+255490956
3927+254986639+254794024+255053219+255296116+255328835+255600089+256334943
3917+256892819+256504552+255367538+254439017+254319599+254729608+255132190
3907+255676022+257115897+259716333+262596805+264533088+264914829+263624024
3897+261102138+258628969+257549634+258173460+259395940+259738677+259294776
3887+259455454+260811486+262402055+263370512+263894406+263510259+261476541
3878+259178876+258932071+260984975+263633918+265799685+267436174+267841342
3868+266680420+265349588+265057133+265143501+264271637+262411077+260580559
3858+259967139+261946546+267435663+273662611+274674824+270578818+265709768
3848+262373155+261036128+261515215+263192964+265309983+267689475+270403074
3838+272453693+272491705+270976528+269390531+268271951+267246807+266246082
3828+265569028+265123773+264961893+266163743+269356940+272443559+273024411
3818+272013220+270869861+269187691+266736536+264740559+264402663+266070669
3808+269055582+271676678+273096705+274377376+276105647+276788264+275671910
3798+274404561+273926047+273449968+272476729+271698932+271821297+272911819
3788+274813729+277249517+279613523+281606132+283979790+287575448+291761881
3778+295155602+297778381+300791714+304952916+310480045+317158322+323948259
3768+329811359+334677162+338538721+341273431+343752494+347206720+351350421
3758+354743931+357393415+361290821+368596021+379783290+391861339+400083392
3748+404170556+407659576+412434500+417042521+420026592+423031384+428202093
3738+435763211+444146543+451215824+455346923+456094047+454774612+453626471
3728+453733650+454268942+453984967+452936065+451660507+449684378+446390829
3718+442556756+440047470+440539307+444472259+449955963+453253571+452847531
3708+450730392+449105841+449021999+450657767+453105193+455029748+456370895
3698+457947119+460109187+462884675+466358539+470302798+473917311+475892869
3688+474984617+471645237+468209897+466782231+467731652+470171651+473551388
3678+477816311+481238299+480644696+477024710+474765688+475199184+475295056
3668+472470609+468290341+465083702+463349837+462656003+462907891+464230723
3658+466130077+467406628+467626759+468524125+472328486+478813698+483864447
3648+483172958+477847766+472031189+468542199+467944085+469244634+471291644
3638+473491303+475271900+476132577+476629797+478297592+482105472+486686999
3628+489103150+489436895+490035851+491719464+494031113+496551435+498744418
3618+499437621+498197668+496370068+495805605+497330826+500459637+503909503
3608+506094697+506254924+505520371+505760530+507458308+509478644+511024374
3598+512634761+514698461+516436115+517207296+517991649+520487011+524833040
3588+528581586+529272714+527492839+524934805+522373103+520495191+520155792
3578+521174169+522141905+521843946+520544750+519940352+521734662+525878122
3568+529838500+530564091+528103913+525441468+524794487+525784416+526624643
3558+526587835+526536771+526872141+526633425+525335612+524379064+525541549
3548+528562039+530951305+530603305+528169592+525846786+524826183+525179416
3538+526886997+529436429+531201509+530783079+528835038+527381931+527396667
3528+527889135+527560863+526565882+525566450+524021742+521275033+518535782
3518+517776870+518966121+520004767+519502375+518121141+517045926+516724330
3508+517248736+518821171+521369160+524037259+525723068+526336668+526807304
3498+527846793+529120427+529868211+529825027+529006452+527455489+525488201
3488+523720475+522806810+523107595+524277719+525158665+524567078+522540607
3478+520407078+519460634+519757691+520136485+519433508+517669812+515872494
3468+515096141+515866600+517728754+519030897+518217674+515733499+513583430
3458+512967063+513436796+514035842+514064411+513085007+511457058+510596501
3448+511627389+513923731+515586865+515224671+512944929+510028370+507756507
3438+506284455+505043179+504076286+503852696+504108975+504182953+504234016
3428+505016775+506660723+508452447+509387223+508656339+506251255+503189776
3418+500941340+500473110+501544957+502987358+503787469+503717791+503098025
3408+502454772+502143551+502057033+502081782+502368524+502510557+501621281
3398+500048094+499497044+500718713+502288351+502341158+500936438+499891927
3388+500271594+501012822+500792962+500063822+499877523+500277999+501147036
3378+502830529+505024655+506637266+507342168+507894541+508640641+509130524
3368+509357511+510040580+511515098+513331061+515076413+516776416+518274391
3358+519056579+518827245+517725807+516341025+515577903+515726101+516010708
3348+515944909+516183385+517040273+517508382+516830667+515876103+516060628
3338+517674924+519561016+520147371+518938394+517079307+516125946+516283827
3328+516378496+515549395+514354130+513887524+514315036+514705919+514078244
3318+512356589+510404217+509100932+508653151+508928135+509893826+511436910
3308+513210410+515013862+517009960+519141444+520580056+520341941+518572170
3298+516638804+515826062+516536316+518471848+520583183+521169598+519385332
3288+516522363+514696957+514825187+516507086+518974902+521516095+523496674
3278+524589993+524964637+525006137+525036992+525439724+526358381+527013362
3268+526295289+524550478+523711152+524900943+526693269+526544410+523657924
3258+519654121+516625211+515407512+515583978+516371098+517385265+518770468
3248+520632622+522415505+523161125+522349105+520229169+517502308+514887016
3238+513055295+512698334+514145787+516690769+518840417+519536357+518858340
3228+517680758+516903803+516752057+516560014+515563769+513913146+512421005
3218+511490740+510853021+510260410+509969548+510175305+510183725+509020338
3208+506802726+504670039+503703807+504295244+505847741+506951044+506616456
3198+505374759+504396589+503981527+503665675+503162711+502571665+501923721
3188+500979201+499677119+498626503+498564674+499242600+499571925+499011944
3178+498196375+498008392+498395095+498350076+497110274+495027478+492899392
3168+490991527+489357654+488472588+488676390+489388238+489638472+489195984
3158+488614380+488278951+487892578+486977049+485528603+483968648+482581822
3148+481254298+479838150+478524881+477691810+477574557+478112856+478810329
3138+478875046+477998490+476733788+475682721+474884836+474326869+474291865
3128+474850282+475604894+476215517+476651720+476727413+475894763+473905703
3118+471471538+469732982+469087234+469007301+468888635+468513539+467889473
3108+467178979+466568565+466010809+465447490+465114286+465216472+465652525
3098+466199334+466469807+465963866+464837588+463987887+463739157+463398826
3088+462619375+462064836+462231468+462645237+462537577+461600516+460116705
3078+458835463+458425513+458753605+459075712+459015838+458849928+458789091
3068+458564659+457859006+456764274+455662716+454840622+454333417+454028181
3058+453825221+453833040+454395968+455620915+456862190+457106470+455982808
3048+454064178+452242140+451074753+450502472+450090959+449768039+449967270
3038+450654008+450917624+450143045+448786831+447474464+446311407+445481705
3028+445464293+446235113+447006836+446991860+446065805+444748115+443749344
3018+443348447+443223044+443122301+443236426+443489728+443182145+441928600
3008+440341069+439312105+439171125+439687562+440312710+440373036+439581044
2998+438397207+437506728+437035401+436656396+436328274+436385472+436805406
2988+436899533+436064267+434594229+433435774+433212846+433677948+434072320
2978+433848069+432943034+431622337+430370837+429698474+429675288+429784091
2968+429456510+428687434+428021898+427903141+428012605+427551653+426426518
2958+425616182+425962468+427170273+428279109+428583774+427966173+426798726
2948+425595372+424596631+423784822+423218916+423007416+422934550+422495912
2938+421444304+420180263+419540830+420113773+421545889+422552087+422064400
2928+420509588+419365296+419313932+419590901+419372664+418896675+418634773
2918+418194781+416876189+414923396+413518105+413552207+414722842+415917265
2908+416351964+416099023+415568182+414939455+414244538+413588144+413062595
2898+412690658+412533739+412594817+412632528+412364130+411811847+411212651
2888+410730648+410474068+410547085+410814279+410863177+410430854+409649027
2878+408795327+408161247+408138752+408841458+409627766+409637239+408812859
2868+407787535+406918618+406096674+405313735+404824754+404801538+405109000
2858+405376376+405276114+404818620+404319144+404073572+404132544+404272201
2848+404103193+403391556+402312401+401258989+400525579+400255106+400433557
2838+400788353+400895772+400551231+399939073+399390459+399112589+399142842
2828+399367484+399533815+399409104+398981352+398419777+397896424+397464431
2818+396990217+396293525+395482318+394873769+394482765+394027015+393483243
2808+393104810+392884408+392509493+391897817+391367938+391199953+391307552
2798+391421648+391436534+391479357+391648696+391739545+391381200+390552159
2788+389736140+389326130+389119863+388691960+387980052+387210555+386556356
2778+386122168+385976587+386002690+385931478+385641729+385312434+385190008
2768+385211661+384980312+384264615+383421921+383044150+383186874+383232073
2758+382596008+381392323+380274556+379768254+379883251+380237356+380391177
2748+380130658+379575519+379036528+378731893+378640743+378618970+378565832
2738+378412221+378077152+377597495+377190853+377002990+376911269+376724969
2728+376421056+376055433+375607863+375030139+374387849+373887170+373698645
2718+373703637+373532915+372983369+372287129+371832311+371702789+371646072
2708+371452916+371155979+370870801+370735444+370958101+371520699+371905718
2698+371576995+370648865+369691264+369072040+368787222+368670902+368546040
2688+368357756+368220174+368188898+368077720+367682867+367086708+366527509
2678+366033236+365459421+364890268+364607826+364595526+364530299+364342706
2668+364277749+364371636+364379605+364205365+363961085+363675486+363264364
2658+362713374+362133274+361685132+361454536+361351567+361207008+360984531
2648+360786985+360654094+360490619+360239724+360020164+359966815+360007834
2638+359977491+359845623+359638964+359328375+359017394+358955204+359119009
2628+359135098+358826523+358426889+358092061+357657151+357066195+356632729
2618+356627587+356861341+356895293+356599469+356322831+356459090+356955408
2608+357352666+357259772+356683912+355949209+355450726+355430698+355810394
2598+356247620+356428446+356256671+355846812+355487565+355478874+355817161
2588+356152771+356142215+355725890+355105223+354597958+354430695+354572908
2578+354818811+354982466+354962318+354749825+354456617+354238110+354146809
2568+354098754+353986583+353819981+353725493+353788314+353955999+354098784
2558+354082574+353868217+353639545+353642733+353803531+353776195+353443231
2548+353066302+352888272+352837871+352694515+352426418+352256147+352362724
2538+352623934+352760825+352661856+352471045+352423982+352632655+352979783
2528+353250767+353374004+353421790+353402634+353243730+353020020+353005375
2518+353340263+353772827+353946045+353871074+353861180+354056712+354293925
2508+354395720+354340898+354177273+353990733+353935068+354095385+354328388
2498+354399449+354242531+353940451+353572453+353259548+353183254+353386334
2488+353723989+354080710+354413072+354586170+354449340+354074906+353713704
2478+353524337+353471289+353494626+353678158+354111835+354621866+354870987
2468+354750727+354457760+354222532+354147110+354181664+354139291+353908695
2458+353656085+353589354+353612510+353485363+353235189+353152039+353395416
2448+353786540+354018640+353965111+353735687+353512880+353393040+353331843
2438+353242377+353195824+353408618+353893448+354280783+354229539+353927791
2428+353921656+354446513+355143445+355516736+355501278+355399934+355375725
2418+355285117+355037740+354869032+355099840+355738190+356467240+356972880
2408+357147992+357049866+356853883+356809315+357048903+357462491+357878094
2398+358279894+358734712+359251599+359873530+360825147+362475530+365221848
2388+369473208+375711223+384519871+396505266+412137653+431658935+455051521
2378+481903053+511290156+542043214+573122139+603404562+631415664+656167800
2368+677939924+697294634+714121143+727441851+734043623+729167355+712901880
2358+691133786+667677417+641076539+609048102+574934072+547136185+532325261
2348+532848644+547877234+572743225+598264197+616144208+624755731+627276895
2338+628036348+629629292+631773046+633355826+634144870+633737988+630789853
2328+624640072+616514341+608017455+599353125+589793293+579106762+567661140
2318+555647747+543144352+530683539+519003832+508291198+498021654+487627128
2308+477140941+467048043+457708403+449121690+441117482+433588813+426583767
2298+420285667+414893233+410446793+406729672+403359498+400007910+396611783
2288+393449231+390909512+389083475+387706391+386564626+385711798+385169709
2278+384713599+384147873+383554120+383070764+382638230+382164858+381780019
2268+381666916+381703995+381536341+381032114+380416859+379930676+379633619
2258+379542770+379636867+379700109+379475046+379003929+378533173+378154048
2248+377903483+378056703+378834380+379909655+380633231+380682731+380241596
2238+379710484+379393399+379271395+379049519+378534346+377827400+377092697
2228+376384487+375746828+375254480+374941665+374783423+374683101+374477345
2218+374050976+373453945+372904128+372680719+372900158+373352209+373703307
2208+373860316+373973268+374178123+374524980+375035011+375670504+376333695
2198+376943116+377458048+377897619+378386329+379054872+379853900+380570951
2188+381042489+381305083+381565060+381998827+382550719+383016934+383334831
2178+383618115+383927291+384219386+384488716+384765594+385038924+385293939
2168+385506222+385585343+385539722+385651322+386166856+386825415+387057275
2158+386714808+386248202+386077781+386178494+386391919+386730867+387179730
2148+387560329+387817389+388159164+388778990+389673920+390798694+392199535
2138+393947173+396054298+398476644+401144954+404018749+407128915+410562001
2128+414427139+418820501+423744645+429061356+434589388+440236897+445961844
2118+451606286+456865318+461511381+465643533+469584424+473470944+477091471
2108+480245423+483160809+486443591+490656338+495927429+501854584+507780084
2098+513261112+518361782+523516282+529066537+534827961+540060650+543922991
2088+545991683+546294213+544854940+541400142+535622058+527510702+517321331
2078+505617445+493445119+481897430+471383245+461780590+453214748+446149497
2068+440788909+436860048+433925235+431559846+429328130+427001325+424868277
2058+423511643+423121993+423225382+423203489+422865143+422398717+422081121
2048+422179909+422810741+423781063+424866954+426235647+428296972+431269465
2038+435250714+440535007+447424484+455808808+465257431+475421421+486073578
2028+496911976+507641690+518155364+528372702+538008918+546722567+554421508
2018+561222240+567061733+571494672+574071470+574800791+574007957+571917312
2008+568608546+564154377+558606588+552047097+544763459+537270636+530097605
1998+523491382+517343525+511537533+506269238+501764246+497841699+494186197
1988+490927473+488494331+486982312+485990037+485067350+484146588+483511786
1978+483442829+483949733+484834558+485920539+487169694+488624966+490280491
1968+492035016+493796818+495564694+497336239+499047519+500684941+502354270
1958+504188847+506252638+508483241+510683110+512729008+514819894+517284282
1948+520138951+523081853+525878362+528461717+530748676+532762396+534807512
1938+537109146+539462686+541549122+543422403+545442318+547823163+550385708
1928+552846847+555324166+558164701+561210873+563909406+566254525+568645836
1918+570835240+572206429+572970453+573883096+575214108+576791475+578433197
1908+579928526+581125956+582142108+583132518+584065009+584967366+586073496
1898+587484381+588885101+589850732+590471610+591350271+592718934+593928814
1888+594303458+594112377+594000807+594090303+594227374+594497306+595010043
1878+595571739+595903259+596024632+596354408+597487061+599608501+601761818
1868+602105126+599904896+596556134+593819891+592188995+591117329+590118739
1858+589225042+588518035+587781558+586800771+585715392+584853993+584366576
1848+584266134+584584603+584924904+584109636+581508419+578208074+575581054
1838+573915394+572739857+571791308+571370833+571792150+572612529+572641700
1828+571315680+569426641+567683574+565806444+563607898+561706048+560525519
1818+559634589+558563043+557679330+557800883+559142962+560752146+561200167
1808+560154844+558673650+557866141+558048260+558963188+560102819+560962955
1798+561529642+562358382+563945673+566076736+567599732+567456286+566307453
1788+565700829+566189087+567321019+568859412+571126222+573960864+576368835
1778+577827355+579277635+582212899+586872945+591137658+592434327+591290426
1768+590065450+589880624+590740459+592555880+594851079+596625963+597617997
1758+598437475+599232413+599881680+601087591+603837006+607869077+611303365
1748+612658435+612673351+613099660+614793528+617319384+619733249+621516493
1738+623282355+626381755+631011428+634566969+634537257+632802551+631798969
1728+631675551+632087485+633140987+634636858+636267633+638699602+643115399
1718+649161190+653674182+654097002+652079734+650426764+650290836+651594904
1708+653983689+656856221+659432719+662000436+666067752+672080162+677396092
1698+679269433+678452541+676441167+674286828+673390725+674643489+677746618
1688+682036591+687787430+695008457+700357767+700293893+697195635+695005269
1678+695421895+698195849+701557723+704008818+706295898+709339062+711708601
1668+711834545+711478425+713278750+717414331+721687223+724034147+724927302
1658+726239369+729433678+735095141+741285822+742792277+740216260+739575955
1648+742091887+743826473+740829801+735297349+731389899+730429200+732082230
1638+735834866+740510130+742922251+740647802+735949623+732192536+730710259
1628+731204532+732814437+734953439+737078969+738462608+739189222+740456420
1618+743138713+746254774+747580914+746745618+745137457+743890708+743758208
1608+744881840+746321053+747197489+748020816+749617790+751453480+752399323
1598+752635031+753458719+755524164+758091520+759983326+760894525+761592148
1588+763009950+765480172+768696734+771893991+774124353+775103637+775821229
1578+777587992+780099233+780980901+779436072+777650303+777039168+776580080
1568+774792927+772458754+771459983+772724655+776548684+783128023+790305565
1558+791933814+787505507+782757649+779647062+777518645+776222457+776301367
1548+778136276+781695786+786485325+791636457+796612325+800567651+800649809
1538+796425214+792559083+792345809+795236024+798136945+799400534+800907230
1528+804631238+810143481+815663423+820440873+824444074+826952608+828121168
1518+829590334+831889743+834258199+836781829+840313132+844952909+850637889
1508+858114293+866526194+871418761+871667522+871068897+872247381+875539847
1498+880130967+884701638+888023755+890219956+892822136+897130273+902413904
1488+906317144+908230542+909795880+912073396+914703002+917025628+919048309
1478+921232541+923934502+927513379+932152615+936978722+940297592+941568218
1468+941555407+941115566+941342734+943288731+946460726+949555856+952063728
1458+953360999+951635855+946867608+941952606+938770506+937537350+938142411
1448+940339092+943072268+944964735+945474345+944785984+943488112+942643734
1438+942742793+942733892+941982318+942224402+944735041+947975060+949450060
1428+948797906+947410658+945953582+944300312+942708390+941988753+942876195
1418+945076305+947053456+947835403+947888091+948004892+948487257+948964328
1408+948651754+946792727+943019942+938386119+935438104+935934843+938989555
1398+941954952+943614056+945014475+946704855+948090840+949431295+951152950
1388+951874692+950194477+948230617+949514596+954213797+959225692+961928796
1378+962711706+963838645+966490325+969080295+969139238+967300540+966905086
1368+969229936+972021093+973505896+975143408+978704001+983178860+986233031
1358+987150245+986915138+986640394+986783961+987250627+988130731+990052249
1348+993562199+998599296+1004453103+1009852394+1013677625+1015999950+1017627719
1338+1018770597+1019282793+1019673496+1020842236+1022995313+1025275054
1330+1026612923+1026965133+1028130626+1031566839+1035416850+1036776371
1321+1035892358+1035411437+1036975332+1040156529+1043395466+1045502110
1312+1047123744+1050050647+1054096251+1056437581+1056132525+1056816977
1304+1061759104+1068989754+1073616240+1073741823+1071562283+1069643171
1295+1069004911+1068942721+1066733710+1059551055+1048825370+1040167716
1287+1036986278+1036705400+1034000552+1026835581+1018383382+1012896941
1278+1010907701+1009252626+1005696003+1001615335+999236353+998620707+998221404
1268+996934177+994414095+990450891+985500343+980980916+978022737+976385044
1258+975019569+973210884+970788658+967889602+964942790+962049447+958254829
1248+952716543+945852478+938074687+929053215+919420427+911011473+904266014
1238+897507142+889708842+882276044+876896902+873037568+868872456+864085203
1228+860258227+858198255+856140329+851710277+845108625+838971955+835326738
1218+834010581+833997289+835161459+837972523+842084226+845994082+848053933
1208+847771732+846659949+847349814+851020232+856372549+861645715+866377876
1198+870141399+871702767+871015428+870101342+870915346+873853918+878425311
1188+883801506+888491925+890883958+891012248+890927744+892703710+896861725
1178+902862828+909944739+917008246+923068532+928548537+934690560+941776020
1168+949457157+957755805+966420917+973962999+978340784+978940371+977093133
1158+974509117+972002688+970085261+969789286+971884683+976103565+981149683
1148+985723121+989827787+993857512+996746284+996860800+994351665+991729637
1138+991773422+994995458+999796004+1003808828+1005291467+1004588791+1004255767
1128+1006483724+1010265591+1012768471+1013418280+1013322168+1011639908
1120+1007711707+1004954413+1007552263+1014468534+1020166325+1021166298
1111+1019657858+1020803623+1026949135+1034790018+1039420473+1038780649
1103+1034609221+1031111781+1030784711+1031388448+1029342551+1025705453
1094+1024597098+1026742596+1028958945+1028587609+1025127458+1019491497
1085+1013930716+1010749399+1010222046+1011023300+1012420231+1013619766
1077+1012782064+1009584868+1006820116+1008075886+1013145581+1016772454
1068+1013999402+1006034800+998905735+996209248+996163056+995031967+992072284
1058+990348042+992351538+995945511+996279738+991578251+985068922+981065240
1048+981122317+983821632+986975403+989268557+990282484+990223121+989565013
1038+989066530+988868412+988401204+987667433+986561785+983850983+979574301
1028+976354551+976163951+977794005+978702016+978610596+979210724+980660282
1018+981297159+981023379+981478076+982871098+983590133+982394026+979108778
1008+974099950+968487805+963379257+958206894+951670138+943641602+934767666
998+925738796+917873735+912736857+910585946+909932289+908565731+905316028
988+900668913+895485423+890208167+885599725+882553674+880410161+877328985
978+873253429+870316421+869755628+870219587+869307306+866034026+861150961
968+855779458+851057402+848129897+847240650+847072424+846028124+843808287
958+841276236+839629462+839866554+842201449+845699130+849258580+852618830
948+855767669+858452128+860909057+863855448+867590041+872148923+877770390
938+884446201+891648223+898518603+904046725+907691461+910145203+913093458
928+918038352+925085138+932599012+938164123+940650042+941091628+940864941
918+939704982+937080007+934939862+935818041+938407711+938258070+933788323
908+928271208+924619254+922164851+919595269+917807695+918212412+920555787
898+923964394+928493564+934159659+939944841+944833679+948729521+951135147
888+950725077+948054031+946385123+948280838+952790763+956547549+956744164
878+953411521+948882831+946665400+949564998+956249650+961869373+964010660
868+964995597+966427533+966877118+965995811+965453543+966208725+967706520
858+968958622+968988514+967346792+965290970+965331869+968439569+973120666
848+977367215+980007527+981052669+980519843+977518119+972780305+969674048
838+970659587+974412885+977157368+978684694+983083350+991317282+1000172392
828+1007344882+1012764622+1016734443+1019286402+1021215377+1024127726
820+1027052223+1025618724+1018329733+1010328984+1007918066+1010987453
811+1014018769+1014366769+1014562120+1017217047+1022539412+1029533091
803+1036546136+1040143658+1037110297+1030359245+1025637970+1023147720
794+1018886677+1012363454+1007872896+1007909344+1009064793+1005729684+997708306
784+990297942+987029293+985259161+979774043+970015011+959441012+950398188
774+944397687+943675825+948637559+955774082+960662801+962335618+962725840
764+963474707+965245260+967894053+969924553+970191537+970175178+972349786
754+977706133+985911616+995477702+1003170207+1007394261+1009866588+1010579910
744+1007285098+1000818111+995452562+994243764+996229757+998971294+1001008530
734+1001038843+998635082+995562988+994810512+997661212+1001761848+1005169913
724+1010841421+1020276030+1026584174+1023545160+1017029154+1016177980
716+1020944122+1023701778+1018542286+1006817289+995960367+993699330+1000526226
706+1009087227+1011986103+1008261194+1001660143+995873878+993492070+997165195
696+1006688759+1015471755+1016854853+1012299219+1006838460+1002552216+999440666
686+998945431+1000952475+999894522+991784489+980281548+969958836+961751608
676+956714873+956076011+957727537+957383206+951342708+940151199+932877063
666+937259239+952051639+970927834+984467290+989840417+992675299+993956932
656+991020766+984155377+976404531+971569523+971091549+971391974+965879611
646+951320695+932672750+917671346+910678450+912205415+919269162+927709332
636+935717959+941311218+938916178+926556289+912100101+905709137+909578034
626+918114496+924872104+929524753+929905291+923140225+915806425+916747757
616+926168353+937149113+943398496+947842801+954864507+957599067+946772338
606+925796235+907020963+898921877+902885502+912273259
##END=
