##TITLE=<SNM>
##JCAMP-DX=4.24
##DATA TYPE=INFRARED SPECTRUM
##DATE=29/4/2025
##SAMPLING PROCEDURE=Instrument type and / or accessory
##ORIGIN=Admin
##XUNITS=1/CM
##YUNITS=ABSORBANCE
##RESOLUTION=4
##FIRSTX=4497.3318
##LASTX=599.83466
##DELTAX=-1.4281778
##MAXY=2.2175519
##MINY=0.66306305
##XFACTOR=1
##YFACTOR=2.0652562e-09
##NPOINTS=2730
##FIRSTY=0.66517234
##XYDATA=(X++(Y..Y))
4497+322077397+321056076+322709503+325806252+328595143+330133243+330326811
4487+329394814+328130111+327983672+329520041+331104894+330570568+328011061
4477+325457759+324381026+324802593+325920482+326648550+326408545+325775573
4467+325609768+325965505+326509182+327158922+327818618+328295281+328472110
4457+328111439+327114072+326166808+326303232+327798907+330056820+332250056
4447+333475509+332887992+330547624+327855618+326510019+326834153+327501757
4437+327426662+327258289+328068696+329485292+330147154+329522696+328337129
4427+327413732+327018082+327224493+328032216+328886809+329010448+328569977
4417+328450782+328625764+327942690+326113762+324753271+325457586+327656450
4407+329130104+328519759+326808669+325992201+326839145+328274155+328683803
4397+327852789+327092484+327423776+328463971+329232069+329352678+329163409
4387+329046149+328849636+328024655+326583902+325447369+325356776+325908822
4377+326212263+326107672+326221325+326944169+327655325+327488626+326744800
4367+326605576+327411048+328267575+328473813+328180387+327490617+326321501
4357+325390774+325827060+327499333+328967907+329389446+329224479+328801122
4347+327770912+326242365+325071430+324815234+325140061+325321450+324959595
4337+324228959+323749353+324178655+325660303+327564039+328907762+329155126
4327+328441172+326971674+324929869+323234652+323340340+325453084+327613188
4317+327788113+326371892+325182746+324923808+325087390+325400413+325936384
4307+326381906+326381358+326236997+326366148+326489585+326204615+325952460
4297+326443899+327510300+328443884+328982713+329152962+328734194+327649033
4287+326389814+325515048+325128950+325030506+324916160+324505011+324046098
4277+324380247+325750493+327048414+327108531+326294776+325902906+326561073
4267+327943383+329406474+330381444+330539832+329830148+328488243+327240135
4257+327001111+327737520+328264169+327908779+327588945+328464953+330300202
4247+331772701+331956342+331168042+330507133+330505632+330391950+329186094
4237+327206311+325769310+325552566+325806684+325352937+324156317+323324408
4227+323545654+324354503+325105659+325874016+326874760+327711459+327952763
4217+327940814+328194038+328424779+328116836+327777059+328361603+329501829
4207+329731301+328814715+328306277+328977287+329253570+327595439+325219312
4197+324522703+325753119+326960851+326807485+326003947+325713897+325844983
4187+325534500+324594191+323777088+323747881+324417015+325225748+325606132
4177+325490170+325547862+326259508+327034850+327266283+327460371+328224717
4167+329160610+329723883+330019272+329949083+328942279+327187984+325983254
4157+326271860+327393876+327815617+327020160+326015722+325884320+326571550
4147+327249255+327224089+326316104+324916680+323865805+323933195+325314812
4137+327569407+329802846+330795451+329598599+326803560+324625649+324771164
4127+326615302+328142262+328277878+327479650+326517494+325701083+325066149
4117+324732982+325016451+326158438+327847970+329115587+329048717+327724388
4107+326122305+325071546+324750615+325130162+326074425+326917560+326848929
4097+325926918+325027851+324840574+325356689+325967900+325778401+324513150
4087+323340772+323865661+326075348+328229681+328936709+328327057+327151071
4077+325912661+324968109+324540625+324554190+324881787+325510343+326216015
4067+326523756+326320231+326123776+326363839+326670455+326370853+325652569
4057+325442117+325952027+326239248+325514817+324240648+323575814+324094324
4047+325310339+326395211+327094303+327619942+328021105+328218916+328280591
4037+328176577+327702570+326931326+326262567+325962012+326038349+326377606
4027+326628174+326278008+325272849+324245843+323864016+324273606+325187941
4017+326219709+327151043+328013457+328848395+329410543+329387368+328921788
4007+328448098+328102088+327815588+327706495+327794664+327614487+326761251
3997+325620158+325003377+325227769+325940915+326641363+327030261+327140739
3987+327316905+327810682+328291847+328103617+327179874+326241268+325937048
3977+326243606+326790313+327376213+327983846+328516815+328901210+329305029
3967+329752946+329779354+329186036+328782189+329421828+330664221+331300945
3957+330855712+329762585+328641984+328113776+328596788+329662526+330137052
3947+329353197+327860582+326654841+326292005+326683413+327348161+327932387
3937+328404028+328755349+328968744+329334091+330136966+330921860+330954098
3927+330334113+329789022+329601860+329414757+329049872+328881268+329393429
3917+330567538+331579941+331490155+330409064+329447860+329350253+329826829
3907+330409208+331172342+332191671+332914890+332855668+332342872+331895850
3897+331553302+331300108+331423430+332054295+332619935+332319899+331471078
3887+331166223+331672208+332333781+332909378+333734129+334438415+334202913
3878+333424829+333165574+333473806+333670462+333794563+334406755+335208851
3868+335572495+335900034+336750183+337495884+337060897+335521960+333864666
3858+333024850+333864781+336936190+340578202+341346386+339165271+336414476
3848+334396856+333221362+332724814+333045427+334597669+337410717+340374763
3838+341554645+340231615+337787723+335756337+334557466+333864637+333420212
3828+333371466+333809975+334518100+335448452+336764267+338179593+339298925
3818+340244429+340723342+340040875+338610714+337501022+337160091+337662122
3808+338900359+340033659+340375283+340693905+341984495+343665888+344465963
3798+344221138+343229746+341758257+340430234+339927741+340483164+342122449
3788+344889869+348336062+351123395+352205323+352352397+353240959+355240540
3778+357336718+359159846+361411265+364618781+368758178+373405984+377692426
3768+380961097+383412493+385571587+387750162+390057629+392094153+392918673
3758+392479904+392422356+394468028+398854732+404197820+408585938+411598298
3748+414613486+418811470+423632065+426970781+428545274+430665234+434896234
3738+441162056+448476731+455281467+459860902+461617621+461593609+461537389
3728+462962153+466097545+469101218+469841378+468494654+466704081+465268379
3718+464021108+463190036+463808693+466572823+470277578+472347262+472150837
3708+471436160+471444241+472204518+473351584+474267188+474226495+473298221
3698+472401896+472505592+474278300+477780309+482333539+486836638+489953127
3688+490815253+490118037+488884359+487087553+484686173+483133066+484329571
3678+487881856+490725034+490918054+490685899+492078541+493724233+493245782
3668+490806248+487963993+485292247+483091074+481842446+481656151+482439804
3658+484231329+486369442+487323691+486653719+485606655+485237354+484931835
3648+483420230+481223587+479717234+478962240+478237808+477523334+477481948
3638+478151688+478605724+478466645+478962990+481652543+486522461+491281237
3628+493225637+492998561+492777719+493092127+493374615+493229793+492751225
3618+492216611+492128874+492963755+494514900+496367754+498848847+502189814
3608+505290718+507221207+508852758+511077510+513054580+513394328+511933921
3598+509428297+506668756+504517079+503647912+504074068+505608300+508278661
3588+511738130+514794243+516184345+515676282+514238560+513514965+514868934
3578+518128110+521098218+521327314+518817072+516029421+515064552+515794784
3568+516591049+516149770+514638453+513110166+512364637+512500340+513301916
3558+514552737+516099379+517960834+519793312+520509229+519675099+518748268
3548+519553826+522025280+524268156+524618640+523022762+520849497+519884800
3538+520695265+521888134+521912492+520935848+520148298+520054270+520209540
3528+520178198+520200190+520496127+520363772+518840449+515952998+512804070
3518+510690489+510290364+511173962+512248675+513011924+513585385+513687206
3508+512989355+512227722+512511884+513586193+513953763+513051867+512132136
3498+512520369+513787756+514236193+513312133+512368505+512624787+513890962
3488+515490939+516977609+517689370+516808255+514360178+511463954+509133976
3478+507347328+505701694+504294217+503341123+502764198+502836754+504227607
3468+506902932+509885449+511799950+510993121+506968907+502263697+500316295
3458+501603654+503668691+504538956+504273957+503479192+502516343+501908307
3448+501794654+501286822+499876805+498620617+498314290+497816212+495783095
3438+493175535+492097532+492699969+493030366+491885463+490329182+489910298
3428+490647110+491318178+491037537+490099278+489322753+488995011+488678121
3418+488084400+487855362+488761933+490461652+491818968+492159697+491669874
3408+491112691+491531805+493346736+495493796+496331736+495360171+493270890
3398+491152518+490133333+490669333+491931410+492667818+492503428+491861971
3388+491229692+491006426+491426868+492246048+492940724+493417560+494087647
3378+495100079+495960357+495996317+495145678+494222080+494165917+495030755
3368+496002032+496614974+497386593+498733173+500051124+500662912+500944881
3358+501710611+503010264+504022061+503927514+502836581+501755057+501482497
3348+501785591+501980632+501912405+501743051+501332017+500693158+500498983
3338+501365842+503056384+504764011+505921150+506276944+505569396+503782056
3328+501558112+499912419+499359969+499537116+499746471+499674088+499478182
3318+499255089+498794820+498071745+497638142+497939390+498583617+498983915
3308+499045503+498683648+497651360+496402906+496015192+496757604+497781811
3298+498507541+499271828+500315487+501156718+501390835+501406593+501949809
3288+503426089+505729573+508167432+509506394+508885255+506932427+505315249
3278+505021621+505581229+506109783+506517122+507051391+507281641+506465346
3268+504758816+503309434+503108217+504054154+505290660+506165196+506380323
3258+505669081+504114358+502492735+501479899+500667703+499339997+498149495
3248+498580154+500642536+502484077+502742380+502201185+502235125+502685467
3238+502592189+502157894+502121703+501831826+500069191+497306591+495215463
3228+494423527+494271547+494223927+494404710+495170268+496562448+497723050
3218+497273748+494903768+491987111+490285371+490551928+492243336+493982132
3208+494547166+493777106+492246453+490323756+488164690+486300407+485463679
3198+485907787+487196127+488483485+488954664+488390150+487446753+486922181
3188+486778571+486400842+485599844+484770100+484210319+483780815+483235377
3178+482541134+481794163+481133917+480738122+480616157+480355055+479211221
3168+476754053+473567000+470993871+469847208+469639094+469506335+469445497
3158+469926431+470776204+471172345+470604483+469425237+468451593+468133982
3148+468053951+467406838+465995812+464474451+463683698+463955912+464854113
3138+465337817+464572548+462784198+460956655+459833138+459560665+459888666
3128+460318488+460308069+459678849+458786968+458123202+457771651+457382234
3118+456763231+456246827+456138975+456100994+455596625+454730488+454029780
3108+453544229+452791831+451668604+450822669+450785496+451241899+451556134
3098+451569005+451456911+451259475+451012283+450917447+450978921+450822380
3088+450198413+449335047+448561927+447991352+447735502+447980443+448593299
3078+449017868+448847850+448364780+448233031+448617484+448815410+448015970
3068+446404507+445079630+444752581+445014347+445079197+444739507+444279266
3058+443946099+443843874+443897122+443618501+442491810+440957289+440166998
3048+440474970+441099428+441364859+441374528+441230686+440627960+439711519
3038+439281236+439630247+439937094+439290009+437848968+436520166+435909214
3028+435985840+436324894+436342124+435642686+434390711+433217468+432707211
3018+432924272+433422811+433783887+433950269+433885015+433368755+432440539
3008+431556884+431048012+430824718+430697038+430642261+430696634+430703387
2998+430297953+429322492+428134847+427299620+427132228+427565368+428212222
2988+428598522+428531912+428128902+427499739+426706244+425880714+425107624
2978+424402731+423884163+423680089+423703265+423728316+423599539+423223774
2968+422526096+421606538+420893940+420890130+421522005+422000977+421719758
2958+420993595+420504985+420416700+420393929+420133519+419614431+419065155
2948+418792365+418898081+419208304+419504674+419628689+419375840+418639432
2938+417710725+417055415+416776390+416618869+416421491+416250347+416155078
2928+416001164+415544098+414712709+413844638+413467458+413747638+414271660
2918+414469818+414235527+413967671+413924640+413853989+413461022+412880433
2908+412442732+412289828+412329367+412291704+411870743+411025645+410082075
2898+409468064+409406245+409786282+410218730+410293883+409877280+409171579
2888+408559848+408330522+408410437+408427811+408129796+407611718+407149168
2878+406984836+407236559+407823325+408449226+408741007+408490554+407819746
2868+407053755+406375443+405685558+404888946+404148093+403703235+403588399
2858+403656914+403758417+403762053+403540807+403061143+402420437+401808100
2848+401523938+401865042+402746851+403566291+403729902+403270383+402747544
2838+402550656+402474175+402123403+401577071+401234149+401058762+400605679
2828+399921653+399700147+400201918+400713214+400513065+399833426+399390588
2818+399350529+399162704+398291516+396873679+395584589+394945008+394923564
2808+395191969+395480921+395601299+395430790+395067204+394802465+394823880
2798+395060191+395321351+395444557+395331683+395021142+394692189+394423150
2788+394028740+393377817+392781065+392734744+393258651+393751302+393634042
2778+393019367+392521175+392452256+392519530+392364259+391992592+391494890
2768+390784831+389862041+389027246+388642216+388771223+389053336+388930505
2758+388176117+387182704+386537582+386415877+386539487+386548087+386273478
2748+385796613+385312822+384916854+384552402+384175222+383866384+383752846
2738+383858505+383977555+383763929+383108763+382286610+381620823+381277006
2728+381379144+381888679+382427478+382683646+382783821+382847920+382621191
2718+381976617+381292591+380999540+381134608+381449131+381653032+381595888
2708+381377326+381137984+380767558+380116548+379408394+379039295+379016293
2698+378975282+378733748+378446382+378216103+377944120+377641978+377534299
2688+377688040+377811130+377609914+377177408+376828800+376688508+376640888
2678+376536557+376301631+375969474+375659972+375467905+375430444+375579567
2668+375837841+375925577+375593968+374889566+374101872+373567286+373465726
2658+373689886+374028278+374376251+374540612+374220316+373570807+373239199
2648+373432219+373571818+373189789+372528245+372032131+371831578+371844883
2638+371918968+371829558+371497660+371154132+371038718+371095169+371177422
2628+371297338+371456447+371541846+371545194+371554544+371486289+371207928
2618+370894472+370883678+371207004+371530157+371541009+371263975+371000651
2608+370981689+371080306+370969510+370559285+370080631+369703047+369348667
2598+368994691+368860489+369074433+369380875+369420703+369168143+368909321
2588+368895583+369152963+369533693+369822876+369854767+369665903+369520330
2578+369665730+370078033+370515503+370746129+370649041+370232351+369674186
2568+369252821+369127710+369209645+369294813+369308089+369317064+369307425
2558+369143237+368837429+368670817+368902510+369443099+369864407+369713148
2548+368922626+367932099+367295433+367234624+367620318+368196809+368721525
2538+369024821+369056020+368917691+368862971+369061821+369241450+368894256
2528+368057528+367453734+367604242+368220879+368653327+368575807+368133143
2518+367740349+367767680+368189479+368621465+368807039+368859969+368948110
2508+369010218+368954834+368922712+369107248+369404541+369503851+369327714
2498+369136657+369212733+369639092+370248860+370588607+370204068+369245605
2488+368506715+368573874+369163843+369518512+369288781+368792464+368498519
2478+368553412+368848714+369283961+369770436+370116187+370131079+369827003
2468+369368206+368878238+368459441+368322382+368640022+369238044+369638514
2458+369506419+368944127+368335629+368006820+368019605+368220677+368478720
2448+368819767+369271493+369673551+369778777+369548123+369261652+369239025
2438+369473114+369693581+369759498+369754996+369730897+369636725+369504486
2428+369473980+369635686+369965361+370330622+370514608+370405053+370179854
2418+370118987+370272843+370495070+370715103+370982844+371289228+371529464
2408+371660463+371757291+371867625+371929127+371923153+372007022+372363104
2398+372997491+373773900+374556572+375322967+376312916+378084094+381286963
2388+386386496+393621660+403130380+415045530+429468729+446309324+465153744
2378+485332941+506048425+526498219+546261937+565434647+583627192+599280518
2368+611311428+620524037+627926333+633007598+634301363+630658341+622517096
2358+611298498+597199261+579079676+557227197+535370619+518475246+509587434
2348+509480015+517330344+530046002+542038700+549045952+551941195+554583619
2338+559317228+565193834+569854945+572179786+572518783+571649039+570445319
2328+569519180+568740751+567493335+565100152+561018044+555217860+548316932
2318+541122432+534253712+528055078+522484222+517046066+511043108+504093058
2308+496466457+488794603+481423621+474255846+467204958+460448765+454097430
2298+448009592+442181731+436947679+432532691+428640486+424751455+420739968
2288+416955615+413777018+411305882+409401425+407805460+406327794+405051374
2278+404194126+403684822+403121549+402246869+401213311+400285181+399528744
2268+398905613+398455705+398239683+398210908+398232669+398121469+397657794
2258+396748655+395663407+394927316+394842206+395190583+395507127+395568427
2248+395485135+395380082+395203080+394898456+394565144+394366525+394369815
2238+394497206+394602172+394617757+394623356+394709361+394836550+394906335
2228+394863563+394667830+394312527+393929950+393710926+393641892+393467487
2218+393000435+392346135+391743784+391312491+391048618+390932309+390906046
2208+390853577+390702117+390475878+390262165+390236132+390607338+391334280
2198+391993660+392180157+391957036+391714289+391715991+391948089+392266739
2188+392570007+392896277+393364714+393974944+394558246+394980709+395302043
2178+395712182+396330983+396998299+397320413+397102226+396649605+396426483
2168+396551334+396864213+397296574+397857798+398361330+398496600+398228889
2158+397907179+397868650+398084297+398311488+398461852+398654785+398976899
2148+399337744+399583290+399687160+399760754+399870656+399962837+400022953
2138+400164400+400469053+400858412+401178303+401340991+401418741+401649194
2128+402215786+402965470+403531716+403789759+403974092+404329915+404889177
2118+405585527+406341330+407021489+407500085+407808952+408105178+408489140
2108+408929438+409375162+409866486+410437436+410946538+411175028+411115835
2098+411008300+411075054+411362305+411842142+412507034+413260210+413827726
2088+413996330+413933673+414023170+414371259+414747284+415004635+415245073
2078+415548456+415842402+416070747+416270434+416499963+416842164+417381742
2068+418027961+418499285+418686446+418867691+419341525+420039635+420696042
2058+421122487+421178535+420872727+420620918+420963754+421938753+423085762
2048+424039607+424763259+425305175+425705299+426091253+426591697+427169458
2038+427716223+428272137+428986409+429879473+430811355+431727912+432783115
2028+434101037+435539105+436838123+437919474+438892483+439900787+441092703
2018+442525837+443977932+445173571+446273797+447684217+449348698+450765525
2008+451773368+452799104+454202280+455841681+457445814+459034391+460720719
1998+462384016+463906271+465524373+467486233+469509336+471019384+471826587
1988+472266914+472898414+474164473+476003417+477830094+479231683+480470728
1978+481991800+483787914+485583913+487317399+489118766+491024204+492943957
1968+494823478+496708887+498684860+500792958+502977248+505123615+507210413
1958+509358627+511613741+513789257+515723498+517584202+519647508+521866835
1948+524003735+526137288+528635639+531527650+534259657+536344205+538002769
1938+539888293+542446674+545591274+548716652+551169115+552957032+554720303
1928+556840868+559075202+561168465+563213358+565349393+567674407+570319198
1918+573117238+575536107+577351789+578822874+580124778+581333289+582767029
1908+584680201+586803364+588673304+590202457+591609529+593036342+594458537
1898+595768869+596779627+597358975+597777859+598605467+599994415+601417245
1888+602368204+602901722+603221151+603380001+603529614+603882003+604318145
1878+604491078+604458754+604838560+606081762+607810111+609195422+609866548
1868+610076307+610061127+609847154+609574940+609359235+608970771+608112744
1858+606966629+606094287+605753039+605644350+605498892+605483711+605693182
1848+605779014+605485558+604933627+604049221+602510544+600545423+598824635
1838+597619645+596604327+595516627+594674069+594462924+594574788+594174433
1828+592922573+591294659+589841237+588764099+587960272+587108248+585876706
1818+584222818+582491409+581168956+580533560+580484497+580596823+580381638
1808+579652502+578708643+578192904+578681630+580137708+581647235+582135327
1798+581650006+581339350+582141618+583937444+585496785+585446509+584050924
1788+583016789+583532875+585229824+586803826+587603035+588103306+588983844
1778+590483502+592511771+594897508+597320014+599148798+600012020+600396790
1768+600750333+600949125+601202233+602269327+604270929+606175674+607310822
1758+608224204+609391733+610748991+612511685+615050960+617899853+619941225
1748+620991984+621900056+623034106+624017562+624681472+625336147+626071344
1738+626825126+628340195+631702519+636153120+638871217+639149434+638596752
1728+638126843+637834658+637864153+638440962+639746618+642091200+645712808
1718+649922885+652832847+653459643+652989041+652766756+653188583+654244479
1708+655955685+658014604+659572964+660340311+661309510+663639488+667058552
1698+670028487+671602027+671481043+670305202+669730067+670529103+671967230
1688+673422673+675805293+680011906+684049627+685061540+684177365+683729909
1678+684453965+686029064+687608608+688595700+689742334+692263485+695679259
1668+697734253+697661755+697132508+697726807+699565692+701695897+703479370
1658+705144918+707229177+710074607+713025840+714153368+713868917+714654446
1648+717003069+719155958+719018697+717260679+716273529+717631596+721587410
1638+727231746+732748229+735815424+735885613+735316770+736337398+739353510
1628+743325024+747184733+751011482+755179596+759425229+763665552+768478066
1618+773965111+778937282+782305321+784701909+786835058+788709211+790651014
1608+793285414+796514864+799472388+801082120+800484243+798129098+796065503
1598+795918660+797311302+798873703+799840419+800098433+799930176+800184727
1588+801644729+804050727+806409104+808201986+809664124+811063404+812341354
1578+813332833+813838529+813904793+814353230+816108535+819366556+823122424
1568+825746262+827112179+828474863+830632082+833870305+838941815+846032704
1558+851341795+851212961+848409610+846382380+846425151+848299997+850458890
1548+851086897+850273951+850300906+853301202+859076335+864421443+864836171
1538+860593597+856159157+853345763+851280264+849126393+847710316+848315467
1528+850878004+853962631+856413362+858851164+862393809+866550378+869868545
1518+872182362+874112216+875755946+876807282+877357654+878643916+882509801
1508+889024170+893972791+893068125+889763233+888932104+891730202+896970143
1498+901864967+903721746+903537846+905259846+910902104+918492283+923223699
1488+922823170+920727137+920437491+921755499+923083782+924022966+925182587
1478+926817081+928584969+930157702+931623419+933672756+937008932+941182876
1468+945000736+947913815+949924421+950767961+950558663+950561376+951559204
1458+952030441+949200192+943588469+938574623+935906975+935440818+935728154
1448+935166930+933929847+932984256+931900712+929782398+927439778+926820082
1438+928707858+931784808+933653593+933453184+932211599+931223295+931639004
1428+933693132+935661544+935647171+934241946+933841706+935557011+937907018
1418+938702937+937793884+936280663+934446395+932248252+930503164+930676039
1408+933318694+936743183+937886008+935874536+933588194+933896715+936175264
1398+937254363+935775370+934360159+936143055+940449988+943381192+942308210
1388+938548417+935920539+937009452+941453704+947618109+953949559+958509773
1378+959612828+958184341+957985549+961885835+968484016+973828778+975164333
1368+972352729+968169665+966737715+970047339+976065940+980978370+983057376
1358+982683227+980395038+977423892+976507508+979577589+985707015+992581854
1348+998502097+1001874869+1001424643+998724094+997564588+999814911+1004212351
1338+1009319532+1014874747+1019789254+1022126505+1022028495+1022254070
1330+1024733431+1028761224+1032494176+1034553095+1034863058+1035165518
1321+1037542597+1041650161+1044332124+1043424976+1041549379+1043275247
1312+1049198376+1055640074+1060038553+1063460734+1066605622+1068308170
1304+1068981085+1070447322+1072740127+1073741823+1072015840+1068213045
1295+1064347449+1062655522+1063391238+1063959331+1061953977+1058440712
1287+1056444248+1056547107+1056424969+1054470179+1051421339+1048707514
1278+1046653906+1044499054+1041329230+1036936870+1032501333+1029179010
1270+1026168382+1021774752+1016475243+1013873397+1016907691+1023626336
1261+1027285751+1022469832+1012194284+1004425804+1002662996+1003347340
1253+1001392434+996214256+990603629+985744188+980263434+973454744+966771655
1243+961642771+957216816+951002425+942030051+932656399+925893598+922166475
1233+919468177+916015866+911575365+905947538+898801871+891253309+885022525
1223+880584218+876963937+872834555+867981578+863699119+861312689+860769358
1213+861509461+863845615+867822787+871277580+871563936+869209541+867199858
1203+867297523+869339587+872794150+876968670+880968815+884962668+889968606
1193+895673434+900408717+903616636+905914694+906825364+905570791+903881404
1183+904727713+908453624+912391718+914446308+915967784+920037309+927123293
1173+934130255+938959509+943707894+950676299+958181397+963374179+966559703
1163+969646754+973123654+976996292+981981451+987480329+990716878+990177530
1153+987970614+986876449+988136967+992273853+998919192+1006049620+1010448215
1143+1009667592+1003854248+996256392+992086951+994712232+1001851203+1007409419
1133+1008596400+1008482458+1010583398+1014634972+1017658761+1018246941
1124+1019189761+1023716728+1029419246+1030704469+1027754218+1025460950
1115+1024944344+1023490806+1021503231+1022880577+1028780849+1035640565
1107+1039023033+1038466023+1037170872+1037492726+1038789377+1039160641
1098+1036875916+1030743720+1023621834+1020699173+1022389946+1024749708
1090+1026935960+1031769427+1038877460+1041969591+1036855829+1028361099
1081+1023130048+1022429658+1024191197+1026673213+1028576746+1029142069
1073+1028920188+1027482927+1023834594+1020316827+1019804377+1019922360
1064+1015881868+1008942381+1004318905+1002528159+1000925469+1000328284
1055+1003266068+1007614560+1008434318+1005079671+1000938283+998444376+998186016
1045+999766540+1001564328+1002176521+1002293579+1003669540+1005526434
1037+1004736230+1000431259+995156801+991745472+991324337+994015651+999372997
1027+1005436158+1008785957+1007390140+1002628247+997711777+995711503+997976487
1017+1002244747+1004572186+1003435422+1000511376+998968139+1001050609
1008+1005630448+1008757442+1007159832+999987844+988615361+976422196+967310888
998+962725680+960484073+956789852+950185726+943521628+940107816+939046610
988+936803675+932236419+926838669+921292055+915200956+909208792+905015570
978+903433602+903130796+901369949+896764135+891227392+887979587+888119908
968+889656276+889472087+886206504+881053492+876257775+873454424+872762980
958+872905379+872658447+872021550+871443125+870630986+869192687+867570372
948+866670554+867823422+872490998+880208221+887915574+893395116+897989732
938+903925964+910729517+915931881+918376956+919678860+922381314+927242198
928+932785695+938062577+943491382+947931478+948747657+947043551+948485718
918+955376776+962975209+965346978+962092881+957433502+954785248+954125147
908+952995772+949276038+943703219+939078357+936901571+936290187+935697620
898+934502154+933378551+933833856+937493156+944607250+952445631+957322677
888+959299343+961261521+963600216+964329294+964030066+965811692+970126533
878+973582077+973622828+971457817+969905576+970786634+974123157+978299640
868+980649012+978994142+973500113+967470603+964667309+966144917+969814607
858+972985123+975195618+976701914+976298095+973539594+971070623+972515964
848+978234299+983931508+985756424+985957987+988977158+994249076+996949163
838+994567351+989356618+984924545+983537733+985292691+988030182+989539941
828+990768366+994493006+1000011279+1003144161+1002543859+1001459160+1002406136
818+1004576803+1006639532+1009456563+1013971754+1018215887+1019761433
810+1020450394+1023916097+1028818368+1030055566+1027297065+1025881969
801+1027476809+1027922302+1024386526+1019275765+1015040407+1010740054
793+1006171528+1003850092+1006266537+1011535107+1014479009+1014014699
784+1013717203+1014657714+1013059296+1006049274+996243809+989145012+988178988
774+991796382+994281169+991690060+987041185+984380348+983523764+983448611
764+985137652+988650340+992060515+994074527+994290635+992737932+990125581
754+988101179+988127500+990536557+994938846+997989994+995328695+988774325
744+984993002+987720219+994968745+1001655990+1003757853+1000858628+996685723
734+996359829+1000989078+1005818042+1006206045+1001743957+996314691+997456418
724+1007397182+1017483403+1016000197+1003645297+993167379+992447363+996939351
714+998119059+995177004+993697722+996200633+1001877640+1010393380+1019569567
704+1024336654+1021956458+1015120062+1007322260+998779852+989953110+985789441
694+989222358+996127443+1002228931+1007073365+1012595217+1018889379+1022418460
684+1021852445+1014446339+1000693891+986880027+975659351+966199695+959811447
674+959808214+966586023+973387672+967287280+945960872+928597552+927027648
664+933993918+940678045+945375982+952060803+962852378+972744425+974564725
654+967749974+959652482+959719958+970279379+981506520+979237034+966823374
644+955772514+948168366+942470811+940229377+943898490+950776099+952971876
634+944749591+930410059+919903049+916317344+912453941+905436358+903573114
624+910642474+918708680+918786662+911713262+903019163+898711652+902917746
614+908197399+903607920+895633837+899139252+921883756+955786713+976421850
604+971860250+956513309+940812074+923537818
##END=
