##TITLE=<SNM>
##JCAMP-DX=4.24
##DATA TYPE=INFRARED SPECTRUM
##DATE=29/4/2025
##SAMPLING PROCEDURE=Instrument type and / or accessory
##ORIGIN=Admin
##XUNITS=1/CM
##YUNITS=ABSORBANCE
##RESOLUTION=4
##FIRSTX=4497.3318
##LASTX=599.83466
##DELTAX=-1.4281778
##MAXY=2.1386397
##MINY=0.54998863
##XFACTOR=1
##YFACTOR=1.9917634e-09
##NPOINTS=2730
##FIRSTY=0.56162196
##XYDATA=(X++(Y..Y))
4497+281972225+280825807+280958137+281502813+281869999+282303172+282772165
4487+282652074+281937033+281686615+282567624+283648655+283443605+281783724
4477+279940010+279264590+280223614+282239819+284086466+284827094+284525265
4467+283832398+283157337+282491074+281784741+281294830+281493266+282527344
4457+283849276+284636079+284415707+283024677+280706882+278660991+278452979
4447+280353551+282978771+284814346+285341784+284682972+283283833+282072416
4437+281993382+283165058+284810575+286039079+286574418+286679816+286542846
4427+286143759+285701818+285537377+285361894+284462720+282725900+280849657
4417+279782811+280279186+282291381+284677436+286174672+286535754+286327233
4407+286270853+286859100+287636536+287111522+284595231+281567212+279968768
4397+280103852+280960920+281687184+282157584+282547574+282994722+283683279
4387+284803303+286097285+286555954+285128774+282015408+278811367+277246111
4377+278016574+280430819+282730659+283306875+282113264+280425911+279213357
4367+278640432+278922361+280202068+281496109+281328406+279701324+278199689
4357+278171858+279602689+281511072+283000378+283932739+284644698+285135267
4347+284857438+283482359+281576310+280154427+279707548+279980709+280534631
4337+281089780+281417255+281452717+281463431+281776302+282593899+283934923
4327+285304287+285761131+284842476+283074084+281293184+280019253+279559446
4317+280001866+280938566+281663842+281821939+281642266+281458074+281306561
4307+281117910+280887663+280497852+279829674+279213088+279214614+279851849
4297+280503598+280640867+280374559+280306059+280916571+282065024+283102244
4287+283355504+282479433+280798485+279204260+278183948+277340226+276412863
4277+276131503+277262300+279328242+281065810+281921621+282269446+282330763
4267+281967138+281391759+281065241+280958167+280726992+280448086+280446979
4257+280745037+281205472+281773998+282371671+282957883+283580784+284071623
4247+284177290+284080690+284116182+284007672+283164100+281771933+280766045
4237+280779931+281698047+282931309+283739060+283697075+283106164+282568911
4227+282312987+282401118+283003759+283755459+283707549+282636094+281525945
4217+281270261+281768911+282559335+283432862+284160083+284328744+283721913
4207+282489578+280940302+279537361+278907907+279279942+280079224+280596906
4197+280859383+281269573+281673747+281575651+281112912+280939584+281168873
4187+281298511+281161182+281056533+280936741+280417562+279672954+279397190
4177+279920049+281030617+282370804+283553911+284311985+284703352+284858007
4167+284749676+284486541+284403019+284631022+284882247+284784330+284378330
4157+284124591+284238608+284319167+283988729+283552085+283578240+284122497
4147+284644757+284570602+283908918+283230924+282925025+282776834+282470845
4137+282067508+281888074+282247959+283074054+283656466+283276321+282121973
4127+281105192+280979325+281857071+283122833+283798253+283355205+282104137
4117+280808569+280240642+280908790+282678827+284596069+285418483+284651970
4107+283073785+281983238+281983327+282670897+283241548+283165447+282639356
4097+282408480+282787577+283237089+283244720+282897134+282396210+281929671
4087+282040874+283171253+284785049+285689698+285331130+284326020+283687588
4077+283909726+284801208+285801650+286271900+285763076+284383238+282806999
4067+281757389+281557606+282001223+282483982+282429188+281698855+280614323
4057+279740047+279639946+280453233+281724292+282921494+283824169+284219066
4047+283776467+282565021+281205652+280267874+279943362+280307615+281301892
4037+282466386+283283473+283717903+283962036+283926215+283484932+282860565
4027+282304548+281882628+281844952+282537130+283649942+284242678+283865705
4017+283167123+283070104+283732806+284584128+285003176+284659391+283528265
4007+281979916+280748479+280500905+281369165+282831927+284002944+284328295
3997+284081648+283835091+283568694+282908656+282086690+281786716+282112007
3987+282555953+282866251+283198515+283610979+283984210+284282538+284563929
3977+284900382+285359320+285876284+286185894+286045394+285574515+285265683
3967+285562215+286432720+287383964+287874384+287670232+286867509+285772921
3957+284767512+284128332+283969517+284352205+285291628+286597969+287807201
3947+288352415+287988670+287184420+286826511+287232631+287806274+288007643
3937+287973887+288002615+288135066+288322310+288469753+288352026+287984151
3927+287832788+288275686+289068444+289531123+289291180+288570722+287746812
3917+286995620+286434635+286305836+286678319+287156889+287330667+287514410
3907+288590892+290928109+293690029+295652457+296575212+296725558+295717156
3897+293307041+290523724+288949071+289372338+290997895+292111485+292553156
3887+293939398+296548758+298180958+297820774+297332628+297440809+296474872
3878+294180090+292694764+293381586+295601045+298225188+300294601+300625607
3868+299342220+298222375+297954332+297236238+295202586+292810636+291224132
3858+291061786+293304946+298915062+305298125+306362548+302050872+296770447
3848+293031217+291614152+292489595+294831779+297324429+299188372+300568031
3838+301628503+301938801+301112826+299412245+297647685+296693927+296892543
3828+297694907+298051560+297788215+298106025+299742175+301283072+301474207
3818+301390026+301612792+300698835+297853124+294665243+293281455+294860208
3808+298661593+302065895+303553225+304449496+305943889+306975274+306665664
3798+305918003+305251471+304235528+303048411+302620027+303161739+303996004
3788+304916006+306430538+308541069+310758942+313251562+316337307+319191248
3778+320881354+322237431+324871898+329619649+336568904+344886265+352318908
3768+356810556+358658369+359809127+362008955+365689979+369668733+372075317
3758+372532819+372938849+375616349+381930942+391530914+401150037+407208677
3748+410859836+415424592+421457166+425935437+427359655+428689098+432976504
3738+440865990+450589314+458780989+462829828+462976553+461549732+460828197
3728+462026955+465042674+468237198+469436255+467806838+464249587+460206942
3718+456503564+453492334+451994828+453284949+457371166+461503467+462591950
3708+460656244+458019204+456985545+458318070+460743148+462513365+463533438
3698+464523136+465697266+467593858+471142192+476128001+480314946+480784987
3688+477720190+474773181+474144145+475010730+475773473+476356841+478272227
3678+482366972+486775846+488239894+487043680+485982369+485117371+482002928
3668+476360792+471103498+468480942+468545820+470167187+472174445+473987694
3658+475393178+475922502+475541250+475490736+477194667+480731360+483926004
3648+483786282+480254766+476079132+473476775+472666241+472627398+472531726
3638+472324432+472365250+473091873+475007588+478744483+484579010+490722549
3628+493215737+491252680+488194587+486753372+487681453+490481199+493764123
3618+495873576+496326320+496185910+496645746+497719744+499002953+501134461
3608+504697877+508392368+510623857+511811782+513106961+514659858+516443362
3598+519082498+522413811+524694259+524685461+523404407+522734733+523239518
3588+523795175+523382562+522350848+521373240+520734568+520419632+520246183
3578+520094281+520186272+520595414+520813692+521056986+522926736+527245533
3568+531801102+532797504+529734323+526018046+524561210+525513801+527184066
3558+528107808+528125405+527598176+526560477+525311205+525002971+526568976
3548+529466908+531875138+532150094+530315417+527901083+526480815+526499728
3538+527311010+528088117+528235172+527277973+525332332+523349644+522220193
3528+522157828+523001789+524386325+525512424+525356272+523506514+520836196
3518+519072981+519441724+521559197+523898299+525486329+526558562+527464768
3508+527800772+526691372+523542245+519314840+516718258+517579277+520526705
3498+522741736+523444328+523971497+525229747+526622244+527031326+526228244
3488+525191323+524958203+525636615+526614463+527037371+526147504+523735265
3478+520199380+516348977+513532862+512980376+514139273+514737306+513511375
3468+511764919+511265461+512024852+512914180+513384730+513706968+513923270
3458+513593251+512433037+510457471+507897698+505500062+504250909+504439261
3448+505447991+506325050+506230904+505036515+503757975+503459677+503795921
3438+503587100+502672515+502156239+502863380+504348407+505459243+505540581
3428+504854388+503869777+502590459+500784062+498578039+496670943+495953448
3418+496711612+498042252+498381219+497113183+495470030+495207733+496592628
3408+498266634+498902463+498334984+497235070+496480108+496847235+498401987
3398+499888151+499860889+498654320+497862729+498103061+498703068+499157578
3388+499648716+500389494+501266373+501944097+502006133+501210681+499724308
3378+498348181+498229018+499504685+500893650+501432968+501690298+502531386
3368+503913169+505568891+507683730+510076758+511911375+512743605+513011199
3358+513347503+513981925+515056312+516762488+518594292+519341773+518384035
3348+516243519+513769633+511684838+510552395+510119312+509286843+507608857
3338+506273339+506902733+509571734+512645569+514646990+515447619+515421284
3328+514595339+513113604+511610503+510874813+511511390+513410526+515266868
3318+515433015+513479654+510451486+507900571+506859880+507247715+508282182
3308+509455743+510488175+510822443+510274027+509694848+509971659+510962136
3298+512046159+512995997+513656574+513305966+511311906+508384827+506321459
3288+506424104+508708681+512282811+515734665+517689044+518110695+518487577
3278+519705727+520660652+520042210+518521094+517648285+517663487+517834063
3268+517754880+517236928+516100176+514685714+513604803+513094272+513241027
3258+514204032+515676549+516769192+516789421+515783563+514172191+512330871
3248+510825017+510466509+511544667+513274724+514554460+515103056+515251427
3238+514987543+514103901+512880843+511780899+510642650+508888354+506648605
3228+504976843+504558424+504962479+505617849+506596176+507853468+508780622
3218+509133085+509174442+508711554+507522970+506535187+506960070+508390632
3208+508988485+507642373+505026580+502465490+500564379+499177688+498256699
3198+498117515+498849584+499914336+500481246+500175646+499549214+499591678
3188+500500757+501287081+500997462+499712278+497977763+496136712+494490806
3178+493270980+492291277+491253428+490184068+489215078+488342629+487491665
3168+486536022+485507062+484756439+484377581+483881445+483009504+482218063
3158+481877330+481673866+481141849+480291963+479463923+478742358+477794106
3148+476450149+475092307+474034528+473016520+471907090+471321297+471850351
3138+473048780+473705796+473038126+471357028+469635889+468710920+468809345
3128+469459717+469840909+469532227+468779509+467786250+466343658+464667048
3118+463818599+464465739+465721326+466023783+464988598+463542715+462436456
3108+461656357+461188949+461315834+461936400+462390072+462232574+461713006
3098+461354947+461372662+461518998+461396932+460927041+460373029+459895118
3088+459425047+458996513+458782844+458726614+458420176+457533841+456203680
3078+454955783+454384564+454700279+455437435+455884793+455930579+456070421
3068+456441707+456465409+455758537+454754414+453997657+453418627+452681710
3058+451746536+450799422+450114067+450014175+450438729+450756030+450515009
3048+449988020+449580883+449250086+448731655+447834636+446596257+445536323
3038+445316939+445884836+446484993+446597364+446333690+445935560+445435983
3028+444774987+443925849+442982984+442140400+441420271+440651902+439876770
3018+439368604+439128063+438846403+438459256+438240889+438321479+438540025
3008+438744866+438906224+438897127+438405211+437266304+435858066+434948928
2998+435024998+435830774+436613687+436688920+435837717+434456293+433303800
2988+432890887+433106141+433463423+433570496+433319421+432760920+431930396
2978+430898084+429987868+429679634+430059390+430599696+430649881+429968117
2968+428859404+428004401+427847711+427942425+427390628+426136358+425151567
2958+425110599+425613917+425996396+426155390+426160238+425786438+425010588
2948+424410939+424540577+425275070+426090721+426605082+426644494+426166014
2938+425289105+424222947+423179622+422359692+421790148+421238051+420558322
2928+419977706+419755120+419807999+419856897+419674830+419175402+418547444
2918+418207759+418288289+418367142+418018629+417397195+416991943+416994576
2908+417132833+417054817+416716179+416310897+415940329+415513022+414911219
2898+414145094+413367628+412765256+412387596+412084599+411696405+411260629
2888+410955598+410893801+410980675+410985403+410786548+410470355+410157812
2878+409882078+409684928+409654434+409808222+410046459+410177293+409981221
2868+409448516+408942475+408851112+409045479+408932959+408162704+407048007
2858+406088115+405352365+404651957+404084299+403978033+404394777+405035244
2848+405508846+405489843+404869725+403885713+402883566+401980861+401152821
2838+400516154+400295304+400568075+401140401+401615111+401656468+401284852
2828+400805594+400441430+400203671+400074602+400097735+400257448+400382776
2818+400201726+399526606+398436956+397264382+396385888+395991678+395968486
2808+396014661+395951159+395853063+395850699+395973124+396162733+396159920
2798+395525139+394203596+392844796+392140108+392123470+392423474+392801254
2788+393084439+392946483+392190533+391103906+390207485+389693933+389350477
2778+389010912+388808406+388931160+389346078+389790802+389915861+389501901
2768+388649531+387734227+387149871+387078349+387385116+387638286+387355789
2758+386431657+385261209+384312329+383707892+383376706+383358631+383642325
2748+383893102+383720162+383162798+382635929+382401671+382293401+382040081
2738+381715927+381618310+381773803+381885515+381711049+381212280+380488410
2728+379777828+379294021+379005090+378827990+378868599+379170728+379486083
2718+379516997+379169621+378527358+377748665+376952256+376208995+375688978
2708+375546892+375601625+375542074+375429853+375536687+375811194+375930777
2698+375697627+375117968+374361420+373775867+373631835+373790111+373836376
2688+373541669+373050292+372674576+372609847+372749689+372751634+372393336
2678+371847374+371480516+371426171+371490990+371435149+371195415+370842742
2668+370444194+370017006+369595654+369302115+369252438+369364629+369367861
2658+369065673+368535661+368016722+367659800+367469623+367421951+367500266
2648+367626672+367673446+367559339+367272533+366875391+366550399+366495336
2638+366684256+366874613+366881256+366678032+366277209+365726069+365192317
2628+364889440+364931725+365258483+365603853+365649460+365370284+365057802
2618+364872024+364675892+364428228+364328246+364403778+364364037+364029350
2608+363566820+363193050+362961247+362899510+363061946+363369521+363630292
2598+363771451+363868231+363919284+363772738+363327535+362718700+362273796
2588+362258714+362600614+362904957+362848517+362493749+362096428+361747705
2578+361395601+361099218+361049841+361320907+361729630+362035499+362178095
2568+362202544+362085625+361826918+361623843+361707844+362024995+362283163
2558+362252639+361894699+361349785+360886717+360700789+360724221+360740171
2548+360625885+360429424+360303497+360357932+360520039+360608738+360540508
2538+360367718+360208813+360227995+360490323+360786556+360849609+360716261
2528+360610025+360567860+360469255+360342580+360355089+360548827+360835903
2518+361195698+361594845+361759466+361411162+360762915+360374122+360448397
2508+360647881+360677986+360692709+360951057+361370404+361649639+361637399
2498+361388209+361051277+360847544+360915744+361080604+361000464+360588748
2488+360131156+359999902+360306610+360780361+361058549+361122380+361211918
2478+361351730+361340418+361180376+361141114+361378902+361728882+361896345
2468+361740104+361349934+360948453+360784790+360973531+361291909+361323301
2458+360959615+360558254+360503340+360813010+361204167+361394553+361316777
2448+361078629+360812142+360677597+360849220+361274941+361642487+361744383
2438+361608013+361269046+360803763+360482422+360497984+360699981+360872592
2428+361031915+361271739+361561149+361779935+361813990+361676153+361621569
2418+361954072+362622968+363227764+363505742+363573943+363604227+363570172
2408+363468664+363491557+363756369+364083635+364254210+364336685+364572259
2398+365057203+365713531+366464902+367307366+368365355+370042862+372975687
2388+377724934+384681401+394281851+407032416+423211104+442709075+465200711
2378+490355033+517875959+547244249+577259291+606224544+632974528+656866620
2368+676411185+689796830+697199577+700191715+699656227+696171933+690059697
2358+679592153+661778721+635709126+603643943+571178177+545684828+532270036
2348+532406616+544819860+565051875+585748216+601533293+612133168+619088826
2338+623158464+624676588+624287735+622790499+620657584+618223319+615796895
2328+613180921+609744868+604994664+598585266+590310788+580479102+569754199
2318+558709092+547993705+538222649+529241868+520137074+510315265+500139825
2308+490273396+480882215+471743097+462743972+454016031+445868796+438739180
2298+432848153+427839242+423136529+418610647+414485976+410798967+407382216
2288+404166265+401204263+398593257+396481081+394929919+393785506+392891659
2278+392325437+392188887+392277167+392192478+391779894+391251798+390814615
2268+390369263+389725624+388938103+388221356+387650585+387127127+386573774
2258+386064381+385755818+385688725+385717843+385720057+385739449+385794572
2248+385742322+385514229+385275633+385184928+385194624+385190165+385137137
2238+385032128+384882022+384793562+384918501+385214136+385385160+385179093
2228+384636423+383955317+383282919+382731301+382379766+382160890+381921037
2218+381626390+381342127+381046223+380648213+380166860+379749817+379532139
2208+379552339+379776002+380126520+380513338+380900006+381313338+381728256
2198+382049238+382290677+382604477+383034028+383453854+383814697+384200497
2188+384627475+385044847+385509681+386116451+386779961+387291598+387611413
2178+387944933+388439094+388921524+389104848+388957854+388694449+388515763
2168+388535125+388802869+389240980+389654491+389886115+389908918+389826174
2158+389842005+390118547+390590563+391001171+391143348+391013261+390771852
2148+390633685+390747462+391099776+391556021+392038870+392598059+393271953
2138+394019464+394857350+395917672+397290926+398900024+400529770+401929389
2128+403004465+404046234+405649855+408211334+411517809+414960775+418121753
2118+420990328+423698352+426331921+428935625+431401192+433483862+435170227
2108+436745000+438291224+439500307+440102439+440109352+439658344+439000430
2098+438527277+438496454+438843411+439371776+439947544+440487671+440942899
2088+441280249+441365298+440917731+439684139+437635585+434961377+431935453
2078+428841778+425927058+423311624+420999874+419020986+417449954+416279296
2068+415426716+414852175+414513268+414285595+414093892+414025003+414193454
2058+414601070+415182434+415870602+416582861+417206300+417620111+417788771
2048+417891775+418248877+419028408+420126616+421335310+422457847+423325808
2038+423978994+424792700+426159670+428073350+430229367+432469176+434899760
2028+437601530+440454394+443342659+446366817+449681133+453208460+456689222
2018+459931806+462849459+465346867+467347511+468860757+469902496+470457316
2008+470612061+470576060+470462074+470215008+469854555+469550810+469311526
1998+468921356+468422497+468290376+468835500+469721805+470362601+470619512
1988+470847036+471411403+472368512+473517235+474664850+475786221+476924978
1978+478086120+479298614+480672497+482365326+484540107+487241727+490208218
1968+492906038+494890611+496206289+497427102+499193189+501632392+504324765
1958+506865446+509223042+511514562+513780944+516040863+518320473+520623485
1948+522982637+525496145+528260010+531178351+533809347+535728772+537180462
1938+538915187+541314559+544033835+546557936+548848738+551266963+554009282
1928+556943185+560010316+563301649+566557550+569265215+571470251+573558935
1918+575214118+575837827+575977639+576917182+579071464+581724185+584030429
1908+585725593+586927942+587791235+588504540+589313668+590367945+591645647
1898+593045206+594414001+595587562+596665361+598024760+599669768+600919999
1888+601298138+601221768+601243195+601425262+601748398+602300704+602928603
1878+603295849+603293994+603093253+603045133+603649869+605118436+606736571
1868+607170312+605961499+604042911+602392277+601135942+600010920+598997640
1858+598233042+597718382+597367774+597060678+596629750+596045783+595537826
1848+595450264+595950500+596485808+595677638+592973624+589738431+587456128
1838+586315785+585655926+584984276+584453337+584397197+584502595+583864821
1828+582315096+580660571+579130118+577082790+574439286+572043565+570525321
1818+569769701+569362952+569158022+569376179+570074941+570607736+570131022
1808+568729009+567388523+566976209+567699689+569177533+570649273+571411058
1798+571404295+571326129+572114907+574133805+576358651+576989782+575887503
1788+574780377+574977228+576286950+577784305+579113778+580524470+581982563
1778+583252424+584788324+587646574+592149534+596689063+598966338+598938208
1768+598163076+597563547+597573183+598612079+600394326+601903113+602957930
1758+604361020+606219696+608026542+610157422+613482751+617570164+620560985
1748+621490892+621276744+621112393+621561396+622779786+624487278+625868283
1738+626691236+628296204+632149480+637004663+639158406+637974611+635895143
1728+634665621+634821174+636208583+638293976+640816163+644448288+650193458
1718+657313528+661968450+661362876+657702141+654257350+652542914+653155371
1708+656190003+660357018+663399610+665121946+667920106+673111114+678262800
1698+680516434+680527566+679426365+677609345+676215831+676366955+678140524
1688+681227406+686087317+692946855+698634807+698981106+695672715+692683989
1678+691867560+693271548+695948988+698925504+702241436+706023369+708822128
1668+709002100+707872231+708265692+711521533+716482953+720379261+721941854
1658+722639838+724882819+730414859+738313712+742672310+741105946+739121762
1648+739730268+741192611+740413589+737737226+735455820+734525734+735321155
1638+738441913+743183080+745775891+743566726+739739725+738200174+739739426
1628+742723842+745297979+747248169+749051603+750554884+751954921+754517447
1618+759147591+764554003+767871072+768653267+768761418+769230231+769997702
1608+770999730+772457943+774331702+776139565+777345147+777644283+777124236
1598+776328096+775937448+776379209+777674448+779311436+780455610+780835964
1588+781220866+782428064+784168894+785533918+786340951+787291686+789057115
1578+791789738+794869198+796690827+796417786+795312336+794857886+795188145
1568+795485246+795318201+794726693+794128301+795032053+799445834+806522512
1558+809270218+804664434+798821587+795927426+796689451+800063678+804005054
1548+806894008+808741792+810593885+813530122+818350053+823845643+825266090
1538+821217640+817138726+816704386+819200717+821677536+822727924+823855639
1528+826328508+829540778+832925958+837760014+844734106+850889077+853082621
1518+852937661+853065803+853721891+855094097+858599698+864735576+871923756
1508+877882654+880742341+880192010+878451420+877602611+878390252+880951282
1498+884984709+889202957+891838681+893015234+894836983+899009444+905110549
1488+910892647+914783269+917253924+919684478+922775490+925824725+927950877
1478+929861145+933195751+938512147+944662808+949285710+950416118+948466946
1468+945664357+943928854+943995947+945599478+948333358+952252769+956939232
1458+960119482+958904684+954258081+949172411+944588832+941382488+941015421
1448+942845070+943719614+942249312+940479454+940150811+940892067+942365722
1438+945316502+949424205+952463625+953485164+953391976+952502708+950834657
1428+949385781+949165349+949942157+951061133+952170833+952500074+951090700
1418+948751478+947277884+946444517+945200092+943847636+943064484+942153071
1408+939956355+936892516+934680538+934569693+936499054+939507831+942302818
1398+943873492+944451833+944929026+945389401+945834035+947154830+949614591
1388+951537489+951002120+948711438+947199120+948066781+951563823+956398059
1378+960052509+961356006+961993541+964380284+969010307+974343701+978121505
1368+979032379+977713619+975901806+975219802+977203987+982428931+989080725
1358+994508265+997514587+997988668+996065651+993080516+991675331+993290354
1348+996983768+1000981883+1004576063+1008008046+1011548360+1015799586
1340+1020933735+1025202079+1027173934+1028602939+1031708375+1035884428
1331+1039596275+1042919449+1045564510+1045750168+1043321170+1041083217
1322+1041655274+1044695472+1047526071+1048216394+1048063295+1049630437
1314+1052786028+1054994295+1055468076+1056032353+1058218116+1061838152
1305+1066437591+1071221133+1073741823+1072100825+1067786875+1064605668
1297+1065176887+1068262213+1069515256+1066483437+1061599226+1057867508
1288+1055209879+1052720311+1049913772+1045892973+1039987223+1032738054
1280+1025466860+1019716723+1017419157+1019709181+1024727339+1027924826
1271+1026112773+1020237667+1012990054+1005676964+998807910+994089427+993604154
1261+997308460+1001774431+1001976549+995784052+986330326+978549380+974581729
1251+973069830+971392442+967604404+961515988+954680451+948321328+941702811
1241+933783010+925227531+917150621+909200296+900731661+892587119+885963514
1231+880851570+876412830+872238094+868444131+864835108+860873323+856479651
1221+852531751+850392013+850624236+852157143+853225904+853164677+852571851
1211+852001949+851679950+852129791+853656354+855596907+857467494+860147508
1201+864491144+869740926+874440616+877845786+880024188+881822654+884705144
1191+889302369+894156236+897111146+897961810+898587314+900686114+904372944
1181+908661875+912455659+915107184+916782237+918591776+921636702+925867459
1171+930687809+936349965+943419581+951318972+959272648+967712795+976316155
1161+981934081+982218255+980342580+981634826+986388143+989675825+988486882
1151+985771496+985895328+989431393+993819079+997193067+1000185923+1003943257
1141+1007626555+1009365470+1009200999+1008926402+1009106314+1008910482
1133+1008529828+1009715838+1013965388+1020070562+1023849084+1022264944
1124+1017310827+1013577792+1013340662+1015798389+1018801120+1020470607
1115+1021569354+1024389659+1028385440+1030866629+1031227531+1031408641
1107+1033419279+1036809966+1037746396+1033607332+1027999401+1025400186
1098+1024011879+1020109705+1015970640+1017044609+1024594829+1035342416
1090+1045166261+1051582541+1053773691+1049632831+1037027225+1019626946
1081+1006272004+1003211158+1009139233+1016686460+1018807704+1015302343
1073+1011042977+1009089676+1008582976+1007565028+1005732865+1004059727
1064+1002388085+999115306+994038493+989374235+986899750+985927768+985362175
1054+986009046+988806846+991879065+991865239+988073730+983608297+982572633
1044+985409337+988487241+988963776+988488139+990958016+997691148+1005429420
1034+1008715247+1005296192+998272841+992458723+990561203+991712679+992557777
1024+990815271+987893279+986754611+987631909+988416617+988223896+988500229
1014+990794981+993515454+993698180+991896721+990560604+989541280+986533102
1004+979694153+969882757+960283594+953030535+947735326+942983625+937663638
994+931246041+924050738+917599145+913501857+911006304+907592755+902417128
984+897241801+893763194+891876028+890706417+889510891+887342125+883539065
974+878917839+874747951+870795383+866334977+862031801+859011653+857235331
964+856075776+855426271+855323866+855324285+854896649+853707586+851583470
954+849154412+848324037+850960120+856830618+863520777+868716514+872052077
944+874738734+877973628+882241792+887954402+895097395+902172577+907047810
934+909532231+911954525+916889610+925156069+934977340+942895165+947473896
924+950968723+955019148+956984719+953533703+946305542+940530507+939073192
914+940266324+941188390+941391226+941911811+942088432+940203361+936357267
904+932352568+929871260+929551356+930681285+932434265+935569566+940793074
894+946125570+949070006+950472498+952902394+957256982+962877841+968854994
884+974156726+976941240+974876915+967799938+959322744+953526521+951472490
874+952196390+955059608+959757383+965190489+969194350+970243600+969715473
864+969984385+971114494+971575347+970963010+970182133+969552319+968702852
854+967651447+967456393+969859356+974557490+978813743+980585336+981124894
844+983402469+987744848+991397383+991758584+989073244+985999350+985244447
834+987683560+991618114+994144370+994688357+996163448+1000828065+1007251289
824+1012902672+1017084949+1019708224+1020561222+1021061817+1022968674
815+1025987086+1028347136+1029117539+1028615867+1027448172+1026267309
807+1025296643+1023472740+1020142863+1017003671+1015927308+1017147194
798+1021195644+1027814820+1032136430+1029015433+1021670862+1016954952
790+1014944194+1010460267+1001236609+990635598+983010863+980177870+981071028
780+981677260+977981992+970710558+965221970+966035527+971727429+975806044
770+974546537+970774838+968024500+966726867+966484470+967538269+969663343
760+972286498+975375894+979656686+985602417+992034977+996542725+997593351
750+995483000+991380565+986877485+984363499+985075428+986785913+987421173
740+989279610+995132153+1001951351+1003235218+999007753+995992633+997786551
730+1001194534+1001194773+998520505+998443776+1002327635+1006235256+1007197542
720+1006032839+1004512980+1003991257+1005080368+1006163075+1005028059
711+1002537114+999794736+995977431+993003069+993991630+997979032+1000512470
701+997693063+989502257+979410159+971986644+970798719+976161739+984024143
691+987268373+982544443+975086813+972778175+979134724+991862306+1004193494
681+1007846568+1001805793+994303933+990713464+988471381+983837287+975813645
671+966144516+958274152+953784898+954524479+959185086+959958183+953062615
661+943104943+935961591+932180736+929262574+927478592+930399446+940682948
651+954306740+961647721+963282495+967679039+972759203+970705172+961003483
641+949194018+938509095+931281472+933704366+948142493+965683602+972971495
631+966978062+955170452+942846446+929186743+915718683+909400738+915460605
621+930667101+945200092+953033408+956816717+957172891+951728474+941335804
611+930406389+925606628+930050814+935751095+930690443+916988664+906719108
601+904927823+907184750
##END=
