##TITLE=<SNM>
##JCAMP-DX=4.24
##DATA TYPE=INFRARED SPECTRUM
##DATE=29/4/2025
##SAMPLING PROCEDURE=Instrument type and / or accessory
##ORIGIN=Admin
##XUNITS=1/CM
##YUNITS=ABSORBANCE
##RESOLUTION=4
##FIRSTX=4497.3318
##LASTX=599.83466
##DELTAX=-1.4281778
##MAXY=2.1700366
##MINY=0.38824949
##XFACTOR=1
##YFACTOR=2.021004e-09
##NPOINTS=2730
##FIRSTY=0.39748281
##XYDATA=(X++(Y..Y))
4497+196675913+198358258+199026310+197964739+196223614+195599109+196477944
4487+197441643+197196516+196153849+195631580+196245218+197489584+198290175
4477+197820800+196290946+194832169+194262106+194360685+194589754+194932458
4467+195635119+196591578+197513650+198462647+199630333+200667926+200862342
4457+200039734+198804245+197851133+197380933+197120661+196698607+196055580
4447+195578670+195712920+196392150+197001938+197025813+196636894+196395910
4437+196527919+196854298+197151672+197211645+196916189+196579531+196717276
4427+197233824+197376022+196614922+195203362+193882197+193184727+192966511
4417+192750980+192625341+193302668+194998286+196762606+197358297+196575594
4407+195307796+194494228+194359196+194523588+194489140+194050231+193471823
4397+193214647+193441593+193933706+194377186+194475397+193974185+193024568
4387+192369832+192682616+193739276+194623921+194735683+194200688+193377034
4377+192630783+192535168+193420373+194617536+194988936+194371332+193735398
4367+193828462+194350717+194622860+194481870+194156582+193667757+192903161
4357+192164107+192107230+193014245+194356674+195223152+195209718+194778831
4347+194581850+194689631+194765574+194648341+194423976+194171328+193902311
4337+193580488+193136109+192665348+192527721+192948491+193623193+194078692
4327+194319794+194649344+194969176+194828585+194140921+193362140+192913646
4317+192756421+192615181+192440201+192482405+192915062+193666857+194651600
4307+195659716+196052837+195357564+194214431+193877729+194767771+196179243
4297+197194849+197370596+196839139+196211670+196122248+196571863+196959499
4287+196881004+196555996+196296844+195985963+195406773+194764114+194556840
4277+195006809+195648907+195667192+194921634+194360036+194911902+196282865
4267+197426366+197837360+197638153+196883260+195710546+194811214+194928993
4257+196016945+197431631+198733360+199712293+200025017+199625024+199218189
4247+199545689+200472789+201221635+201149290+200143165+198736235+197812528
4237+197721263+197916209+197894001+197898734+198168179+198299716+197975710
4227+197581158+197603558+198032837+198579187+198955837+198953994+198695860
4217+198673549+199210742+200031609+200511778+200263052+199454616+198573363
4207+197932680+197642399+197914410+198877667+200138284+201039681+201325523
4197+201178517+200816392+200486164+200574243+201209086+201909299+202028169
4187+201489914+200827909+200550900+200635868+200632329+200216705+199601061
4177+199291301+199507069+200071734+200808355+201701155+202584532+203015301
4167+202723781+202012110+201418999+201116774+200942783+200901655+201196979
4157+201735219+202035940+201812932+201403545+201487629+202442053+203958503
4147+205223868+205515683+204773089+203673752+203032097+202986575+202940876
4137+202514561+202207130+202649165+203564925+204176675+204356034+204571035
4127+204934339+205095649+204879188+204438923+203988777+203728505+203796987
4117+204170172+204756116+205389513+205669531+205324954+204815189+204928264
4107+205744088+206540226+206742294+206519124+206299714+206077915+205539793
4097+204719678+204071784+203835209+203825654+203966393+204474801+205362572
4087+206223755+206679799+206727415+206556859+206274158+205918006+205625808
4077+205616724+205926028+206246288+206205013+205743351+205073530+204385128
4067+203819637+203594727+203847419+204387237+204854311+205156522+205529382
4057+206045325+206313428+205953942+205167051+204507758+204231619+204155897
4047+204093417+204124974+204334725+204490181+204273469+203738916+203225244
4037+202885872+202655211+202602419+202925363+203595597+204309922+204885647
4027+205501393+206319916+206973870+206939629+206515629+206632744+207548046
4017+208553036+209049131+209078697+208728458+207907915+206850842+206141678
4007+206085627+206378341+206525111+206483010+206672308+207251572+207713515
3997+207539862+206918984+206408910+206277491+206549649+207185347+207837634
3987+207979302+207590737+207255642+207390158+207752017+207919978+208038656
3977+208658442+209789262+210645580+210643368+210083008+209448239+208771163
3967+208107211+207877951+208361762+209350899+210407161+211129671+211291172
3957+210953290+210378406+209887443+209907277+210838933+212505250+213896607
3947+214074462+213397253+213133162+213735179+214122697+213152450+211309590
3937+210163169+210628282+212263971+213955223+214857888+214776164+214097555
3927+213567204+213778636+214472730+214736792+214348787+214184322+214853656
3917+215647361+215455541+214267491+212910552+211948990+211591643+212141547
3907+213912297+216770291+219975325+222634672+224327664+224882390+223903811
3897+221396189+218492408+216819323+217313309+219304191+220766994+220862624
3887+220937948+221967903+223000498+223173486+223295483+223589096+222859715
3878+221383330+221237932+223152001+225721720+227796774+229126330+228798387
3868+226625137+224683124+224660060+225454591+224895308+223046978+221627396
3858+221859356+224669970+231058493+238588969+240079878+234477937+227301948
3848+222359447+220641194+221658585+224298658+227421584+230457390+233206895
3838+234951544+234850060+233253789+231147206+229056550+227209430+226053394
3828+225819326+226023016+226530186+228559763+232712467+236348594+236859184
3818+235805797+234948890+233281113+230047044+226834077+225630853+227301019
3808+230826534+233559671+234624398+236141747+238927883+240363494+239215893
3798+237895465+237720014+237404369+236135598+235053323+235265375+236567694
3788+238419549+240811575+243631110+246411362+249249405+252603302+255988698
3778+258398685+260029625+262078357+265548161+270829281+277071152+282196079
3768+285294099+287707360+290702155+294454793+299358437+306079740+313919991
3758+320765664+325924419+331469439+340259116+353027373+365742159+372790269
3748+375194535+378238229+384312582+390454974+393464487+395115924+398405056
3738+404416030+411950620+418062399+420255910+418829471+416182069+414378922
3728+414360312+416137801+418552831+419804556+418903203+416281489+413248294
3718+411024405+410405060+412353193+417889159+425762177+431025366+430207359
3708+425733363+421910680+421210290+423843802+427764311+430142682+430740113
3698+431601149+433596087+435857284+438006645+441226145+446299932+451012199
3688+452074110+450067611+448078512+447712598+448694465+450299039+452676879
3678+456800032+462016268+464471232+462583647+459772384+458451646+457185470
3668+454229487+450995595+449495130+449634247+449862136+449533116+449813060
3658+451738690+454418918+456414298+458442651+462616148+469478572+475528653
3648+475361902+469582445+463310993+459359546+457351868+456021044+455219494
3638+455687630+457471047+459527094+461097545+462880844+465996765+469481020
3628+470647275+469928423+470475451+473918800+479608363+485586983+489670144
3618+491134628+491340102+491619751+492147521+493140389+495092474+497363286
3608+498481173+498001800+496734858+495664041+495923104+498434575+502306008
3598+505081320+505504008+504721392+504445047+505276856+506942420+508838971
3588+509866611+509086473+507502603+507176532+508618956+510469321+511373328
3578+511371028+511271579+511412730+511543087+511872992+513337476+516540607
3568+520560388+523108017+522759651+520177220+516956924+514335328+512695835
3558+511968725+512364869+514282831+517370057+520299438+522090877+523127718
3548+524180840+525083667+525042495+523804868+521923064+520360782+519848437
3538+520199694+520222816+518673511+515880504+513983658+514795059+517598742
3528+519626417+519036034+516705058+514748047+514406641+515519691+517053129
3518+517878450+517386101+515730622+513796616+512636968+512610306+513414451
3508+514842188+516748176+518422824+518799975+517654129+516211411+515998769
3498+517173813+518382950+518458392+517739953+517338028+517703264+518093982
3488+517054958+514044059+510803118+509902474+511865147+514605657+516013633
3478+516237069+516594519+517472868+518127839+517827723+516700339+515725609
3468+515977357+517404799+518306623+517095893+514425693+512142495+510872780
3458+510118123+509728054+509802081+509917338+509619345+509152713+508898310
3448+508411269+506613814+503348394+500391054+499850927+501607506+503233609
3438+502733828+500527900+498390985+497383754+497252040+497449522+498170616
3428+499973970+502571500+504536592+504423458+502112006+499059523+497171053
3418+497314623+498937954+500964154+502468571+502597159+501087846+499129833
3408+498203117+498433867+498914891+499065067+499196663+499954328+501466118
3398+502810626+502662456+500959140+499130128+498312475+498520575+499598057
3388+501482398+503315893+503752620+502522956+500784485+499858418+500066931
3378+500760301+501303614+501797851+502787032+504522258+506594349+508158990
3368+508493259+507570259+506300131+506053396+507577573+510188906+512268015
3358+512752225+511881898+510519931+509411009+509117027+509933559+511597000
3348+513357472+514568437+515126496+515332355+515421599+515048341+513579020
3338+511499497+510603218+511733610+513369151+513717635+513005507+512248668
3328+511589096+511145350+511559662+512664455+513243394+512795284+512180599
3318+512164496+512489033+512522065+512047116+511347788+510816272+510483832
3308+509851216+508602499+507587187+508209540+510644094+513563861+515457285
3298+515459586+513770663+511896291+511263616+511395153+510779878+509310439
3288+508265871+508361958+509349193+511046432+513552182+516538955+519126104
3278+520634356+521077039+520712216+519703156+518495258+517569132+516725290
3268+515429208+513834957+512591372+511797550+511187525+510908230+511319652
3258+512249199+513042668+513328510+513382068+513672629+514139969+514422449
3248+514585484+514774886+514473825+513087673+511087840+509705345+509601354
3238+510387922+511402349+512359030+513023910+513004150+512244657+511256655
3228+510521405+509923059+509054267+508022557+507554627+508137578+509342468
3218+509971545+509259948+507976195+507506378+508009167+508277668+507460841
3208+506196199+505645277+505987037+506356992+505844116+504232995+502161376
3198+500649468+500131814+500153698+500221590+500337555+500429454+499975386
3188+498622678+496710792+494917052+493759085+493285463+492904360+491909074
3178+490457153+489416212+489024315+488598589+487650638+486328515+484902784
3168+483715413+483268482+483614312+484127601+484376518+484468624+484206022
3158+482957984+480784232+478739393+477648285+477285497+477036904+476634654
3148+475899198+474705809+473559079+473280108+473884529+474400915+473844655
3138+472024166+469566814+467424207+466259161+466103706+466514478+466884728
3128+466807222+466529962+466571900+466865824+466892455+466424526+465651407
3118+464810043+463944936+462895560+461572464+460220877+459152715+458397586
3108+457906682+457743411+457843834+457925115+457712739+457146806+456514337
3098+456266688+456453258+456647614+456662980+456716243+456750956+456478740
3088+456124062+456226460+456700671+456879249+456500033+455967014+455553557
3078+454933564+453729735+452246051+451327475+451388643+451819117+451692859
3068+450918826+450217728+450039121+450021720+449577827+448642529+447716992
3058+447172382+446705278+445907032+445186439+445342986+446298458+446988909
3048+446569760+445253358+443927725+443246505+443119717+443017938+442669984
3038+442251278+441899697+441410444+440563800+439495284+438468175+437531579
3028+436779753+436594746+437056453+437396886+436735898+435230567+433883198
3018+433341655+433350974+433263175+432776370+432220051+432161066+432689750
3008+433232031+433211622+432628317+431717291+430510042+429138135+428122351
2998+427923069+428433999+429094869+429284447+428668052+427537454+426664650
2988+426440890+426369783+425763710+424693277+423729842+423047915+422486199
2978+422216194+422538224+423133030+423250794+422658613+421845885+421255326
2968+420733041+419849650+418540061+417267868+416673770+417123532+418341870
2958+419406170+419478308+418594504+417375634+416270252+415504919+415205687
2948+415116472+414758285+414133366+413680567+413524551+413420383+413298519
2938+413184088+412763376+411703118+410304638+409316194+409130509+409518366
2928+410053568+410432606+410406093+409764924+408577287+407370391+406915497
2918+407589934+408854841+409593365+409155784+407928450+406762313+406026384
2908+405389668+404489614+403520369+402927509+402753680+402637213+402359246
2898+402090539+402089654+402337215+402491343+402126844+401111208+399876943
2888+399165523+399297915+399834149+400135180+400043370+399818695+399654274
2878+399417242+398815593+397863926+397051523+396759311+396776298+396781076
2868+396877900+397140679+397051523+395992975+394133467+392436051+391796504
2858+392307817+393322568+394079260+394189385+393730480+393122963+392861570
2848+393161391+393755018+394077077+393735406+392820487+391750348+390891376
2838+390422621+390337240+390309841+389837223+388813004+387723931+387103584
2828+387010122+387133430+387217838+387217661+387106563+386785300+386287022
2818+385821747+385458812+385039840+384544866+384215787+384153971+384102211
2808+383809084+383383772+383054133+382715470+382050884+381086771+380326806
2798+380236883+380705137+381133782+381081787+380628751+380054088+379469751
2788+378925642+378548285+378335437+378057793+377527605+376753425+375808659
2778+374824963+374101480+373911695+374168635+374478661+374459815+373945111
2768+373113036+372459067+372360828+372644163+372784636+372452166+371680905
2758+370718208+369896663+369434632+369248858+369134928+369011030+368775000
2748+368199688+367274064+366393297+365920265+365797222+365758498+365644067
2738+365369845+364892714+364385795+364188726+364385766+364630761+364563901
2728+364244378+363994163+363913914+363745747+363241807+362507530+361848459
2718+361385956+360965185+360360558+359486781+358494237+357708673+357389179
2708+357497742+357719732+357709203+357375406+356970178+356791925+356814398
2698+356752611+356417457+355822120+355045728+354198523+353434931+352844047
2688+352405167+352112896+352056300+352319197+352791402+353088599+352791225
2678+351897305+350938265+350476617+350535131+350635583+350354902+349728656
2668+349132286+348889031+349005203+349202685+349167382+348799698+348251225
2658+347723130+347271422+346868140+346574777+346481345+346501665+346435130
2648+346215233+345924436+345635409+345375726+345138930+344859016+344485286
2638+344066698+343677956+343376188+343243972+343296558+343397806+343406536
2628+343284790+343023663+342673674+342424609+342431717+342608053+342724431
2618+342643916+342412635+342173509+341987116+341765184+341432243+341045005
2608+340713449+340543955+340624500+340914058+341221282+341369512+341298405
2598+341040434+340703127+340421119+340284214+340337389+340566429+340807295
2588+340772434+340295126+339565126+339032961+338959466+339109406+339082627
2578+338882431+338865974+339194345+339656730+339990084+340053287+339716010
2568+338970231+338212654+337994173+338343926+338723820+338757678+338578923
2558+338405389+338254681+338130400+338093121+338109784+338061623+337907141
2548+337773746+337861044+338164198+338364954+338203895+337885493+337884372
2538+338374982+338990610+339198179+338900363+338522445+338418454+338457443
2528+338394122+338321187+338458062+338770005+339073042+339293292+339427749
2518+339446389+339362807+339240206+339085901+338898623+338794956+338899979
2508+339128399+339240796+339103891+338785754+338451544+338262939+338290131
2498+338423703+338462486+338368228+338323842+338455084+338638056+338703411
2488+338707629+338824095+339026738+339090148+338900451+338601485+338408072
2478+338383594+338438951+338480477+338498703+338528992+338581548+338642804
2468+338716653+338816810+338931920+339015354+338985655+338797846+338577183
2458+338541733+338665572+338621363+338257365+337892601+337874699+338083978
2448+338179298+338136416+338201536+338430988+338609300+338583435+338431460
2438+338327882+338406686+338711492+339141258+339474347+339568104+339503398
2428+339453496+339498649+339646024+339905470+340231570+340493287+340610874
2418+340663666+340808917+341132362+341557557+341873865+341926627+341803525
2408+341758254+341962048+342382936+342855555+343205514+343362739+343415649
2398+343541081+343850635+344295000+344720784+345041428+345341279+345741258
2388+346148521+346234079+345719315+344601546+343013989+340978263+338448949
2378+335509305+332338261+329050899+325740267+322583027+319748199+317333286
2368+315487021+314366066+313823373+313385408+312825875+312638184+313649160
2358+316200771+319963554+324576047+330021795+335929368+340962780+343603546
2348+343226395+340445185+336985881+334689234+334015534+334167569+334457304
2338+334796882+335259119+335744213+336100189+336369662+336827034+337760238
2328+339102122+340342904+341076798+341527445+342262577+343565058+345288546
2318+347031470+348321948+348989395+349394593+350003910+350857662+351736187
2308+352626008+353691280+354894018+355922542+356537168+356854921+357211575
2298+357798301+358518156+359176165+359715702+360245655+360905168+361706688
2288+362438930+362774408+362600107+362155094+361727038+361401705+361195876
2278+361118340+361025439+360766523+360472571+360363271+360385597+360305584
2268+359979573+359430863+358855286+358507538+358433306+358469404+358544021
2258+358736283+359092023+359601920+360239137+360878507+361334521+361538846
2248+361574827+361590989+361743849+362088824+362475206+362660184+362508562
2238+362009931+361239997+360402850+359726880+359235298+358816503+358525234
2228+358553075+358897401+359309501+359581069+359731510+359943120+360379433
2218+361036823+361784165+362559407+363480166+364747227+366415505+368240447
2208+369898757+371417242+373121913+375095705+377005173+378541413+379781045
2198+381075859+382747440+384866040+387236300+389596593+391790782+393736173
2188+395364989+396684930+397800281+398793326+399662355+400437302+401225993
2178+402032025+402646681+402871149+402808300+402819389+403126053+403517007
2168+403611501+403318433+402746218+401850469+400601930+399289332+398239013
2158+397383580+396349157+394919563+393337167+392018613+391009229+390059213
2148+389158067+388566947+388614312+389846336+392776248+397176218+402295866
2138+407808798+413777863+419942286+425858116+431435077+436826499+442153156
2128+447516679+452954581+458335888+463412271+467982030+472061002+475759668
2118+478902487+481084880+482236064+482860599+483767113+485764676+489437241
2108+494932683+501985542+510229429+519403512+529102740+538391785+546036560
2098+551249021+553983574+554622030+553534992+550804922+546530502+541246491
2088+535346027+528459979+520155455+510618790+500246540+489433937+478771746
2078+468716720+459356803+450768620+443152748+436667534+431425492+427380317
2068+424177805+421425527+418954137+416706477+414720003+413149464+412014176
2058+411167060+410563288+410217429+410086865+410257244+410906700+412012790
2048+413437931+415256798+417848253+421753485+427342508+434596741+443488522
2038+454346986+467324050+481728821+496321490+510055245+522361206+532971460
2028+541574272+547812840+551828492+554364560+556000396+556716889+556363214
2018+555113907+553256582+550751953+547390801+543383760+539242293+534986571
2008+530096581+524347119+518145535+512037678+506276949+500817930+495479063
1998+490146626+484967520+480319341+476452980+473202513+470261188+467673773
1988+465731833+464510722+463834310+463534311+463516586+463726514+464175214
1978+464904891+465917017+467154910+468519857+469957974+471538954+473326500
1968+475158462+476704935+477831788+478804100+480025329+481669659+483703321
1958+486080895+488640616+491059333+493212263+495270079+497334088+499421279
1948+501753612+504605250+507950123+511409545+514377620+516417741+517769209
1938+519117198+520896368+523114034+525624620+528314226+531097442+533830933
1928+536337096+538679043+541172111+543855170+546374309+548621232+550813416
1918+552751020+553832867+554102017+554511433+555952441+558307247+560439797
1908+561356014+561347461+561487315+562222919+563079797+563631368+564184413
1898+565293570+566912182+568357555+569194909+569766888+570517829+571258859
1888+571546943+571379779+571054004+570820423+570898519+571309941+571663852
1878+571556440+571057543+570586605+570659216+571765011+573885470+575861827
1868+575876396+573396836+569855956+566907346+565075030+564000556+563249557
1858+562579426+561724554+560413077+558628539+556728214+555285967+554740708
1848+555173129+556340091+557495847+557301078+555105708+551930123+549071288
1838+546915203+545254711+544015138+543543610+544172510+545368848+545719809
1828+544594077+542841215+540997161+538591096+535681534+533331683+532114641
1818+531381692+530321905+529147156+528755553+529529616+530804934+531519186
1808+531336214+530918658+531209337+532674057+534964982+537034772+537830305
1798+537289647+536611554+537346332+539926167+542553839+542637303+540425300
1788+538557239+538726939+540778975+543704640+546605826+548839831+550177438
1778+551258754+553315508+557249466+562719103+567466053+569003089+567802682
1768+566008647+564749668+564513137+565772825+568058972+569807352+570468517
1758+571043210+572012867+573129279+575017159+578899505+584456794+589118923
1748+590900099+590550789+589785043+589786223+591176798+593602210+595641151
1738+596904967+599315161+604401512+609801959+611166346+608925440+606183101
1728+604334269+603646443+604039284+605127679+606986361+610704433+617197462
1718+624963687+629570666+628673501+625002913+621800902+620448726+621265316
1708+624082508+628018766+631577873+634369405+637911996+643228449+648337037
1698+650780793+650766106+648535817+644708328+641946583+642186947+644879916
1688+648817118+654533903+662614165+669238554+669638946+666037134+662755670
1678+661995292+664458100+668914490+672788165+675508443+678333480+680715478
1668+680727216+679316763+679353687+681581852+683828421+683835263+682567377
1658+682930195+687117199+695944390+706921591+711899823+709149226+706316639
1648+706177847+705710803+701959640+697235163+694884721+695339674+697765794
1638+701702465+705918489+706935689+703442763+699382695+698203287+700338196
1628+704387765+708680648+712605934+716079690+718677692+720868697+724687574
1618+731512750+739177697+742903555+741806666+738751942+735462751+732321200
1608+729764429+728414376+728467227+729359201+730247281+731005536+732425663
1598+735244801+739239277+743238532+746089050+747826163+749410977+751103675
1588+752123883+752337291+752899774+754575248+756758997+758666460+760544902
1578+763149393+766109033+767445873+766696526+766087386+767170530+769076342
1568+770181665+771007281+773032124+776559084+781963955+791079761+804022466
1558+813214186+813002370+808981704+805599907+803666668+803139517+803643015
1548+805117880+808238373+813070970+818466463+823705939+827963136+827300024
1538+820762933+814503661+812562223+813924604+815169781+814976250+815331872
1528+817958305+822592889+827945499+833052377+837319424+840140862+841978251
1518+844081780+846026404+846356072+845699272+846741481+851283576+858886825
1508+867385410+873142246+873820870+872074319+871150788+872203497+875322869
1498+879581068+882736716+882903526+881202925+880636667+883331287+888515730
1488+892540997+893290227+892197527+891194366+891147000+892641449+896217013
1478+901704581+908297414+915217732+921453705+924848656+923858589+920370560
1468+917448906+916180134+915627030+914417952+912590237+911670422+913561723
1458+918790406+922945735+920333458+913340706+906629077+901885961+899182375
1448+898087610+898056053+898971326+900918604+903148715+904571910+905121475
1438+905252481+905059717+905224699+906901706+909612429+911213169+910259497
1428+908141693+907741832+910239560+914109047+917200991+919530316+922585866
1418+926260112+928803966+929558622+928799424+926404685+922178043+916734595
1408+911711889+908975448+909358026+912096944+915768595+919709041+923594808
1398+926350300+926804073+924947456+921623582+918127176+915860671+915250646
1388+915448600+915421880+915335113+915881257+917068687+918893099+921682508
1378+925034341+928069836+930870748+933929129+936808432+939161528+941832259
1368+945439144+949216083+952557476+956164537+960393598+964184399+966751257
1358+968962847+971493665+973084850+972395077+970558396+969907377+971013939
1348+972554691+973651579+974820489+976842265+980247420+985606814+992866415
1338+1000532011+1006202846+1008578416+1008695914+1009015260+1011232277
1330+1014662855+1017076883+1017111566+1015649677+1015010750+1017455803
1321+1023745039+1031832970+1037680996+1038867660+1036942030+1035360165
1312+1036543644+1040616099+1045426459+1049331631+1053843172+1060623873
1304+1067674253+1070989692+1070116594+1069001774+1070716709+1073741823
1295+1073691922+1067740199+1056464120+1043179477+1031195222+1022891878
1287+1018839950+1016832684+1014559513+1012331053+1011536758+1011654257
1278+1010419697+1006399621+1000415928+994350482+989637566+986649495+984357272
1268+981217667+977082629+973183355+969852049+965791155+960466504+954897359
1258+949339126+942985596+936045164+929785126+924320502+918355685+911213287
1248+903436799+895352290+886430899+876388967+865910603+855958801+847004201
1238+839042145+832000612+826038803+821459253+818293105+816168577+814492041
1228+812607877+809985927+806547858+802908649+800024569+798483522+797996658
1218+797677548+797090410+796838779+797847485+800353293+803813482+807521821
1208+811094849+814305412+816755715+818481150+820786468+825197734+831319216
1198+836981675+840888087+843725156+846492092+849362252+852158798+854810300
1188+857154902+859014587+860690946+862925540+866303150+870638207+875422200
1178+880839517+887147628+893231714+897546067+900946563+906811813+917058955
1168+929170146+938596214+943685514+946535973+948944810+950306247+950462499
1158+951110687+952946601+954600014+955488626+956342732+956552188+954950386
1148+952926487+952930498+954610101+955843127+956760583+959104359+962787865
1138+965988637+966980473+966447601+967359394+970595498+973071814+972109884
1128+968856910+965691293+964097218+965289958+970311720+978535434+986470357
1118+989849087+988498621+987179005+989047065+991623243+991647427+990394110
1108+990365089+990640078+989189161+986893457+986555001+989289730+993137275
1098+996881654+1001829095+1007136582+1007954352+1001300234+990161826+979123045
1088+970358142+965017682+964393619+967563129+970672651+971289223+972135188
1078+976497437+981753312+982169393+977517173+973690627+973871830+974155195
1068+969689486+960991944+951868706+946051115+944726485+945802316+945497362
1058+941332419+934554903+929202293+928827206+933818355+941403378+947230878
1048+947908794+944174561+940624360+940333740+942187114+944039190+945573394
1038+947020183+947590687+946319675+942890394+937789887+932846692+930770768
1028+932942425+938224666+944231186+948809498+950853984+950406522+947866089
1018+943744795+939781167+938232275+939726311+942151133+942242147+938880228
1008+933503197+927819208+922330637+916732708+911186213+906204207+901066597
998+893852238+883996404+873749380+865898335+861121066+858547306+857478908
988+857273462+856597669+854050040+849554956+844542927+840623007+838309019
978+836708279+834445194+831180777+827753443+824726029+821762437+818592750
968+815390503+812040735+808485285+805222461+802259399+798805817+795172094
958+793467422+795196396+799620343+804978852+810278022+815138283+818909854
948+821138963+822421419+824236806+828074382+834428914+842095100+848926410
938+854116221+858978252+864847455+871340543+877120678+881369440+884264786
928+886809230+890269655+894878639+899033024+900574484+899183908+897013136
918+896390370+897236100+897278569+894498715+889257469+884111248+881550996
908+881982119+883795736+885155404+885323275+884559594+883854485+884750883
898+888220215+893207412+897323457+899290141+900124427+901444515+903859192
888+907704200+912940137+917456220+917747784+913159503+907916193+906858706
878+910192490+913911800+915118814+915183993+916166214+917448611+917625389
868+917134456+917902915+920994446+925587976+930042419+933099031+934044446
858+933249089+932420053+933214996+935630852+938227144+940143218+941876616
848+944617716+948763431+952185397+951911942+948263295+944206000+941782888
838+940794474+940074383+940096148+942504926+947431132+953085511+957002658
828+958167969+958619147+961754386+968318552+975005761+978364790+979427998
818+980923213+981708483+978699177+973217094+970440190+973651638+981978399
808+991520491+996980395+994840767+986169178+974847858+965092652+960669236
798+962535704+966848405+968552192+967049073+965834332+967379272+970009952
788+969384945+964017530+957381579+952325487+947027910+938997549+930290629
778+924528956+921792457+919775340+917586105+915992974+915732555+917788012
768+922294008+926478416+927828115+927455565+927575482+928167221+928297460
758+930188702+936228726+943436184+946713224+946171563+945908902+947673090
748+950108470+951615482+951283809+949066202+946371464+946045158+949899662
738+955457836+957902182+956788070+957205449+962473592+969820728+974589680
728+974678747+969379400+959198676+947164696+936855266+929808543+925787759
718+926044875+932426954+942938231+952480028+957926189+960297098+962496361
708+965107163+965246840+961116225+955786678+954194845+957129417+960092597
698+957987533+950490930+941581867+934753683+931550611+932400646+936252497
688+941190441+946299738+949876481+948576920+941661202+932788120+926829378
678+926762548+931747091+937274415+938693009+933638274+921771045+907492915
668+901819720+910982419+922472497+923629550+916334971+908547393+908450421
658+920305971+939271299+952140568+949725125+935619409+920238964+910658060
648+908515718+913973971+925161277+935041944+935594222+927268641+918409067
638+914888182+917933941+926297863+933228091+930093913+916523487+898279901
628+882582942+875127038+875664688+877869967+875404327+869104061+865969471
618+872460377+889243962+907366628+910348977+891998687+867043414+853346347
608+856995465+874614280+900445188+926491924+939526882+938044054+929722247
##END=
