##TITLE=<SNM>
##JCAMP-DX=4.24
##DATA TYPE=INFRARED SPECTRUM
##DATE=29/4/2025
##SAMPLING PROCEDURE=Instrument type and / or accessory
##ORIGIN=Admin
##XUNITS=1/CM
##YUNITS=ABSORBANCE
##RESOLUTION=4
##FIRSTX=4497.3318
##LASTX=599.83466
##DELTAX=-1.4281778
##MAXY=2.1147592
##MINY=0.37972042
##XFACTOR=1
##YFACTOR=1.969523e-09
##NPOINTS=2730
##FIRSTY=0.38927519
##XYDATA=(X++(Y..Y))
4497+197649479+198201773+198837200+199126822+198878616+198105943+197369527
4487+197364367+197939509+198387727+198655362+199266458+200162469+200527265
4477+199801970+198440567+197564454+197923258+199194869+200424974+201098458
4467+201451300+201804369+202066103+202039607+201884250+201980321+202423802
4457+202841181+202668210+201541697+199612399+197722384+197048991+198088103
4447+199891096+200711448+199643631+197407084+195477756+194724982+194931772
4437+195355128+195596888+195878172+196404681+196785820+196497287+195714749
4427+195139864+195085965+195335154+195797838+196610034+197421761+197273334
4417+195828222+194200561+193695191+194216252+194722712+194766306+194738525
4407+194982963+195467723+196072766+196672150+197131610+197424939+197593492
4397+197659981+197654760+197452131+196768857+195694866+194778170+194347702
4387+194329271+194655830+195125443+195165376+194537015+193816759+193598665
4377+193811357+194126385+194452096+194844825+195333232+195861890+196234706
4367+196230136+195757375+194885136+193901058+193195344+192892406+192798166
4357+192846799+193294411+194265158+195404715+196255391+196721464+196860056
4347+196568543+195947475+195562463+195755771+196067273+195908345+195407287
4337+194997368+194610101+193936648+193240043+193204695+193988277+194912252
4327+195200648+194795148+194305303+194302776+194809281+195392276+195628589
4317+195423645+195012606+194791955+195023062+195545909+195930513+196025101
4307+196070164+196249036+196481914+196666581+196848404+197041137+197061353
4297+196734039+196176873+195674196+195400917+195483581+196031139+196821001
4287+197357966+197440434+197253799+196970154+196685178+196522330+196508803
4277+196609444+196821909+196965645+196749443+196299394+196104573+196343065
4267+196748474+197051594+197163099+197087138+196892029+196695317+196617857
4257+196705818+196907721+197235913+197812327+198546186+199121556+199559953
4247+200233785+201125120+201743464+201793262+201334271+200565412+199979465
4237+200171079+201038098+201704303+201504322+200629722+199726296+199207308
4227+199085073+199310824+199933253+200722010+201024963+200444630+199378372
4217+198499535+198137781+198389497+199232487+200310200+201122518+201559099
4207+201904511+202375593+202934711+203453881+203776142+203713648+203290201
4197+202942700+203086558+203532763+203727054+203523260+203310629+203355131
4187+203529449+203800398+204396483+205267799+205885250+205772322+204891805
4177+203577613+202496177+202415071+203443062+204680687+205129797+204764245
4167+204296840+204288079+204843838+205680759+206211974+206002839+205263078
4157+204538040+204042249+203685033+203530039+203816029+204572813+205392379
4147+205637014+205058512+204231138+203996475+204446039+204941210+205158729
4137+205482730+206204182+206909654+206966050+206333528+205611698+205358453
4127+205608112+206047386+206362414+206339338+205974905+205641992+205764559
4117+206219646+206530150+206612330+206711307+206690410+206157167+205252561
4107+204607692+204589488+205126196+206095581+207377104+208625201+209393046
4097+209507003+209204065+208889703+208726311+208442787+207679285+206577588
4087+205839961+206067497+207124706+208290426+208969357+209073130+208812093
4077+208503208+208558893+209121597+209637076+209364477+208388010+207545429
4067+207375621+207707793+208147522+208454454+208537028+208432044+208255123
4057+208042825+207729946+207265386+206695555+206280642+206484179+207524623
4047+208949232+209999118+210370708+210311059+210120187+209905377+209658048
4037+209258676+208554520+207682493+207175836+207470618+208360652+209224327
4027+209793856+210359284+211094429+211612949+211527076+211116582+211013429
4017+211391420+211853150+211991500+211686640+211012884+210225655+209722222
4007+209773640+210319366+211034054+211509054+211487083+211075091+210626435
3997+210418918+210542590+210925347+211325657+211504469+211497645+211526577
3987+211633256+211601433+211266008+210799269+210634651+211075772+212015559
3977+213076900+213904924+214246780+214004173+213376584+212763642+212436993
3967+212494918+213084859+214272202+215620879+216359732+216151383+215343938
3957+214421522+213659472+213268574+213434418+214213339+215454521+216660052
3947+217200921+217043717+216809538+216854328+216799128+216228827+215368936
3937+214815598+215099727+216501592+218741832+220723334+221205099+220185431
3927+219035797+218978114+219788858+220380040+220497750+220912693+221974654
3917+222797049+222143434+219897943+217222257+215384294+214877850+215664686
3907+217935325+222087613+227567559+232160968+233658905+231959988+228503836
3897+224786375+222072950+221404505+222968371+225259317+225985157+225219990
3887+225264023+226890807+228128887+227751758+227235327+227238762+226336259
3878+224581355+224112407+225834127+228636481+231550220+234092611+234942939
3868+233825747+232775211+233083626+233485646+232352505+230114565+228211536
3858+227869544+230716325+238274980+247059292+248082758+240954842+232565303
3848+227265333+226189027+228395160+231715928+234429231+236725111+239501801
3838+241841169+241809620+239679796+237246490+235193052+233145469+231366052
3828+230619875+230920270+232233388+235627182+241137619+245009984+244430801
3818+242220870+240979674+239192872+235180961+230699180+228593779+230275764
3808+234608694+238428113+240547148+243055462+246556887+247994222+246041969
3798+243349820+241427467+239518749+237536112+236629312+237159165+238386788
3788+239933510+241985072+244140242+245705152+247096258+249214506+251611920
3778+252973580+253375116+254327765+257128742+262108661+268474284+274574587
3768+279366145+283174775+286597092+290241634+295397928+303113514+312162299
3758+319681596+325152661+331276812+340791866+353738558+366205240+373938501
3748+378605646+384417961+391502736+395320385+394559137+393509478+395366325
3738+400448564+407461584+414336360+418991248+420236893+418329900+415069674
3728+413068440+413911188+416544354+418464421+418666369+418109612+417991251
3718+418578968+419598909+421556018+425765489+431790557+436033589+436186178
3708+434351786+433592566+435176709+438486718+441695132+443347549+443677996
3698+443662683+444065611+445752831+449599079+455757669+462816932+467427030
3688+467064746+463496952+460058051+458435746+459151629+462244044+467495970
3678+474630316+481584201+483880080+481729405+480810333+482730855+482474008
3668+476556436+468849717+464138175+463491384+465258953+467559584+469888420
3658+472241346+473648024+473774313+475202629+481019515+490628688+498011074
3648+498037403+493425065+488474926+484622686+482165684+481078165+480766905
3638+480995243+482746743+486819089+492314576+497938320+503685660+509077162
3628+511412959+510446524+509058641+508809754+510172398+513521961+517749468
3618+520113047+519636155+518219460+518173339+520451090+524141905+526876151
3608+526873669+525088789+523953061+524493022+525837084+526763571+527084545
3598+527575601+529003917+531259636+533203339+534127829+535018302+537396165
3588+541184004+544541375+546191159+546302287+545477486+544394234+543626026
3578+543016277+541788911+539557825+537028161+535841529+537523756+542382438
3568+548886850+553630471+554010096+551208544+548474721+547486982+547519121
3558+547639873+548264874+550015920+552401168+554164924+554639213+554688180
3548+555765015+557687352+558540299+557664171+556403030+555257739+553149463
3538+549977001+547653915+547741982+549662624+551797714+553061941+553114236
3528+552444081+552374717+553691119+555327526+555644203+554819160+554271270
3518+554503330+554887313+554445164+552540501+549928580+548502988+549023762
3508+550361106+551695847+553369055+554953046+555267181+554656221+554543339
3498+555207078+555936549+556347466+556336814+555557287+553664184+550888598
3488+548394463+547803356+549533944+551949273+553159994+553418747+554313518
3478+555781600+555911793+554170311+552510964+552255055+552524037+552501521
3468+553126947+555491796+558882397+561326477+561431067+559312805+556189491
3458+553466442+552208026+552693029+553795104+553557172+551520318+549631574
3448+549461977+549837063+548863486+547191005+547000466+548468729+549376392
3438+548263301+546306705+545268910+545257349+545330042+545198396+545308494
3428+545562284+545495704+545610887+546793100+548503714+549340621+549538907
3418+550760705+553289946+555282736+554773099+551563474+547702700+545732062
3408+546055155+546887885+546939999+546795763+547208618+547813767+548196297
3398+548782622+550020096+551578303+552598909+552053985+549279609+545213527
3388+542188570+541658717+542966221+544494225+545281681+545172611+544416084
3378+543935682+545083213+548221053+552093509+555181475+556953160+557463403
3368+556846935+555668898+554811776+554654345+554883924+555252170+556272292
3358+558697185+562189834+565130295+566113375+565317445+564026041+563198637
3348+563010882+563370715+564161137+564829234+564370803+562387818+559908148
3338+558807283+560079924+562650807+564356760+564029854+562306832+560678051
3328+560090939+560627511+562023748+563614760+564243514+563587765+563032733
3318+563736117+564632703+563848152+561369512+558828770+557407052+557190849
3308+557923892+559366553+560969852+561933199+561965581+561687036+562018058
3298+563275627+564921175+566198597+566927341+567390494+567645494+567630907
3288+567686834+568129105+568713674+569117753+569476678+570005804+570446865
3278+570318063+569679564+569096205+568714824+568248827+567706263+567388254
3268+567438916+567754866+568180553+568452198+568318070+568086010+568240898
3258+568473140+567947040+566322132+564277833+562998777+563207232+565051429
3248+568188482+571306287+572504722+571184567+568794902+566992166+565986026
3238+565121640+564250717+563885134+564349981+565190762+565605129+565500781
3228+565650283+566467155+567071577+566209855+563953409+561759971+560703473
3218+560243467+559147808+556989355+554432514+552691394+552657499+554075768
3208+555783597+556808440+556802508+555650619+553653471+551869499+551233784
3198+551522679+551854125+552035040+552659678+553848549+554792831+554705127
3188+553513169+551644278+549800444+548736016+548625434+548826202+548557583
3178+547623228+546396951+545320358+544567039+544081854+543665792+543109791
3168+542619462+542725566+543165597+542601728+540455501+538072312+536909770
3158+536677528+536267942+535430006+534586381+533859512+533087430+532322611
3148+531735318+531284392+530755568+529859587+528390052+526606564+525131884
3138+524346062+524154192+524182095+523928850+523020098+521680938+520525599
3128+519832747+519583557+519826210+520331973+520418466+519796612+519107815
3118+518938279+518819101+517885291+516264620+515181006+515716609+517545553
3108+518850878+518055432+515551733+512866272+510772644+509380463+509004469
3098+509564586+510125005+510209924+510401977+510825847+510705459+509967816
3088+509546185+509708216+509496553+508219010+506551098+505594923+505472598
3078+505511124+505301307+504766521+503770368+502630493+502298230+503063927
3068+503829775+503420643+501884559+499994725+498335226+497172018+496487398
3058+496046247+495774934+495876378+496313897+496527164+496070155+495204135
3048+494455507+493919298+493361239+492744167+492342116+492445890+492953651
3038+493310276+492985276+491897213+490370207+488926578+488042582+487748814
3028+487553947+487054085+486419248+486062593+486085835+486232401+486217844
3018+485875413+485040746+483669174+482073441+480737459+479907240+479578972
3008+479724570+480148198+480302300+479712919+478533853+477412530+476889637
2998+476993259+477311389+477368739+476874324+475825089+474640939+473959980
2988+473950628+474025349+473467684+472224066+470964893+470386921+470557334
2978+471049540+471541987+471900428+471842443+471173620+470337470+470032929
2968+470311504+470607088+470572527+470435615+470434616+470258240+469297556
2958+467379516+465074830+463232510+462331808+462287169+462703776+463181425
2948+463410580+463190958+462550280+461760766+461097451+460555462+459897685
2938+459068707+458382119+458109778+458034997+457743590+457286581+457101247
2928+457274808+457309279+456688998+455432004+453977631+452688588+451719702
2918+451227618+451273649+451515182+451420820+450795970+449776846+448633098
2908+447917942+448182293+449084599+449496334+448994293+448415504+448443013
2898+448598719+448166042+447278868+446483422+445848464+445117963+444377083
2888+443946433+443741943+443340891+442729720+442451265+442822023+443405564
2878+443571015+443193235+442453898+441341019+439786535+438185414+437305957
2868+437508390+438310856+438907531+438923692+438574330+438285768+438197096
2858+437924785+436974784+435499560+434261571+433707598+433539060+433324674
2848+433077088+433014897+433103024+433086621+432797938+432245054+431567908
2838+431059451+430989452+431170185+430997108+430225692+429301778+428638886
2828+428062548+427232330+426223739+425466425+425264265+425495992+425822475
2818+426072270+426179493+425930516+425238571+424480471+424081204+424019860
2808+424066042+424068221+423743585+422717925+421078642+419497617+418614165
2798+418489177+418667065+418627329+418175949+417489180+416855705+416394913
2788+415986386+415417856+414615056+413818188+413434023+413548692+413720437
2778+413549146+413272810+413354340+413689931+413770553+413388658+412604108
2768+411343179+409726564+408438640+408075176+408408437+408724116+408577610
2758+407988017+407227132+406535763+405867484+404998408+403949172+403076797
2748+402734002+402963732+403381338+403348381+402569974+401471470+400671727
2738+400254060+399812153+399020430+398000762+397207313+396939663+397017168
2728+397051517+396878682+396542334+396096976+395617179+395168795+394709365
2718+394190830+393659252+393154033+392715485+392484120+392527185+392633743
2708+392523402+392159091+391679989+391184667+390711648+390277488+389865118
2698+389464066+389072184+388579252+387823482+386899961+386184593+385903263
2688+385908075+385944482+385828876+385344024+384374110+383229514+382497682
2678+382495019+383033497+383665702+383987978+383760245+382965677+381889295
2668+381017101+380660598+380689015+380745608+380652396+380469181+380273770
2658+380029059+379588786+378788104+377657006+376549272+375898032+375771530
2648+375756520+375382735+374637890+373958293+373738459+373980900+374377503
2638+374561293+374284534+373541746+372618377+371958754+371849079+372158402
2628+372429624+372285146+371712560+370931096+370136438+369495306+369260461
2618+369656670+370549171+371372157+371594956+371203892+370578254+370095673
2608+370016685+370382389+370783350+370625738+369869393+369085265+368637396
2598+368321899+367929230+367621118+367580958+367702617+367777338+367762236
2588+367799400+368049225+368448915+368648200+368357065+367722833+367149461
2578+366814111+366572185+366267976+365932475+365675811+365526612+365400655
2568+365161543+364718486+364142813+363676967+363534729+363688498+363959235
2558+364307205+364849527+365520377+365934079+365791357+365294824+364944917
2548+365009287+365349722+365671786+365797228+365728620+365526006+365182939
2538+364695304+364192325+363873257+363848410+364088612+364450291+364739973
2528+364848982+364835757+364880970+365194893+365819169+366410154+366438905
2518+365755555+364776955+364062434+363909815+364336923+365179883+366115146
2508+366752828+366889346+366642638+366240709+365776528+365294763+364947459
2498+364852341+364928121+365026840+365077320+365018851+364781524+364423265
2488+364163362+364198619+364515539+364902246+365132430+365133247+365005202
2478+364926154+365019789+365263107+365524766+365699356+365761154+365681984
2468+365386552+364870983+364351147+364193142+364587596+365284322+365769446
2458+365806004+365682559+365770535+366002898+366041515+365809031+365530939
2448+365348844+365209783+365097748+365097385+365209329+365308896+365335165
2438+365345424+365318822+365136576+364835030+364622702+364616467+364815389
2428+365241439+365809000+366238258+366369995+366351201+366358706+366403194
2418+366477763+366654835+366982861+367399861+367775068+368043051+368262552
2408+368459659+368519247+368406153+368364329+368673349+369307611+370022223
2398+370660783+371162037+371401966+371320830+371120122+371086651+371307362
2388+371691527+372069639+372127957+371483072+369991112+367842586+365293795
2378+362467638+359456784+356410219+353378271+350278593+347232784+344690893
2368+342964724+341929501+341341057+341080640+341107272+341533926+342505203
2358+343953644+346068638+349764235+355735494+362952066+368906166+371574983
2348+370591116+367090357+363123206+360431813+359315242+359141045+359295903
2338+359340935+359100159+358794013+358830239+359417502+360366262+361314781
2328+362141216+362937994+363677300+364286262+364990131+366154276+367740568
2318+369240457+370254526+370952795+371812369+373030324+374398385+375651263
2308+376690905+377508019+378103696+378529382+378911610+379361719+379892117
2298+380513305+381311838+382280875+383241044+384066118+384727345+385077494
2288+384994390+384747531+384798646+385229356+385658401+385692508+385289096
2278+384690545+384125798+383653324+383235113+382812544+382309897+381725025
2268+381218868+380986414+381047910+381236875+381380021+381450323+381553340
2258+381812275+382261930+382806430+383310136+383769324+384297694+384904356
2248+385441775+385804362+386010517+386088143+386015723+385750645+385254051
2238+384553845+383813600+383272307+383047116+382982201+382788061+382389975
2228+382016251+381907574+382117331+382584992+383204214+383847858+384455186
2218+385055916+385718807+386557560+387698221+389141851+390738916+392361432
2208+394036274+395849421+397781351+399757013+401816322+404049919+406399728
2198+408704717+410882145+412969963+415113072+417462064+419913800+422116317
2188+423881163+425360230+426771175+428165142+429419866+430359093+430998349
2178+431653221+432633849+433870930+434958206+435557454+435723449+435764759
2168+435807491+435676994+435226885+434556035+433791518+432812525+431404213
2158+429653530+427932748+426477558+425230551+424017530+422664207+421122585
2148+419567889+418234207+417465817+418058860+420798614+425422664+430791831
2138+436137696+441411805+446663127+451880250+457187468+462683379+468226955
2128+473485811+478196748+482522127+486923105+491458695+495567993+498676174
2118+500709185+502058150+503225594+504473510+505885090+507747323+510611642
2108+514992283+521232675+529535525+539729419+550796658+560915983+568498864
2098+573003282+574353276+572537285+568375571+563388329+558353452+552838475
2088+546088203+537776879+528144675+517784574+507296276+497103532+487391977
2078+478180496+469719490+462583297+456993207+452475624+448452334+444747205
2068+441564485+439278350+437907777+436808153+435437247+434043855+433018377
2058+432228409+431435294+430759540+430545335+431058513+432176537+433391828
2048+434472114+435900339+438391146+442295893+447568550+454106009+462163634
2038+472282717+484555350+498275365+512546084+526742084+540211517+552153552
2028+561955897+569287591+573977464+576083561+576042827+574626071+572591275
2018+570274242+567486611+563789501+559040675+553769864+548713016+543957593
2008+538950195+533306538+527179573+520907464+514724148+508809330+503372493
1998+498615890+494665838+491540557+489108069+487102083+485318050+483740203
1988+482380070+481258203+480632566+480786244+481523704+482334584+483030947
1978+483881442+485221540+487075300+489010650+490474435+491467320+492611885
1968+494365654+496481557+498456189+500216828+502000740+503816096+505541690
1958+507393513+509651926+512038445+514042675+515788273+517939402+520792039
1948+523973821+527115838+530375337+533854428+536850030+538588970+539526109
1938+540819995+542928634+545488623+548047825+550429622+552715847+555032941
1928+557285635+559395848+561579298+563866250+565911820+567792998+569999752
1918+572265640+573744980+574510828+575432412+576837364+578378926+579691938
1908+580549182+580914946+581267274+582323228+584096124+585631148+586110098
1898+585896983+585927004+586511816+587538172+589232504+591491855+592992380
1888+592491277+590620690+588975264+588367331+588676503+589325958+589572060
1878+589073197+588290583+587959682+588458848+589874635+592029759+593918806
1868+593810886+591050735+586969461+583259398+580617940+578862476+577469508
1858+576008387+574467672+573138379+572093078+571149038+570317821+569911685
1848+570367756+571911012+573627195+573262640+569923306+565685449+562644452
1838+560904422+559525557+558187729+557702545+558842026+560748444+561174917
1828+559300336+556668925+554387845+551936320+548906339+545925688+543663855
1818+542249763+541684562+542159094+543714637+545677830+546755392+546203386
1808+544757941+543842954+544294546+546076824+548494574+550431135+551097114
1798+550928062+551297821+553361126+557050366+560361495+560671272+558251464
1788+555946294+555670291+557267719+559759917+562617275+565486436+567814243
1778+569637014+571909620+575612238+580778095+585787490+588185024+587369423
1768+584802292+582290361+581478997+583281309+586798593+589695657+590822548
1758+590909828+590674559+590911583+593266204+598703827+605444112+609691594
1748+609948773+608471672+607993751+609580950+612677208+615771892+617495519
1738+618415106+621002635+626558285+631902576+632232932+628869024+625651531
1728+623701472+622792054+622870558+623847524+625917486+630241958+637884942
1718+647261359+653180475+652317602+647333386+642214498+639249826+639405078
1708+642630984+647562542+652005464+655648342+660863891+668880085+676341489
1698+679499061+679050979+675981111+671429664+668520797+669100404+672147211
1688+676150889+681739164+689782596+696644903+697333882+693945218+691184401
1678+691419669+694843559+699622104+703445473+706428424+709911450+713180815
1668+714388328+714530385+716121398+719159792+720919069+719744240+717687594
1658+717907670+722500337+732584435+745678117+751713747+747972513+744289386
1648+744997551+746915833+745142029+740311310+736196564+734705482+736422875
1638+741116803+745930575+745252733+738489508+732140409+730374292+732688965
1628+736160793+738450408+739828607+740998412+741281618+741176664+743444187
1618+749667208+756708555+758574057+754982809+750599324+748135149+747046329
1608+745369429+742497605+740156542+740378253+743293777+747203034+750555926
1598+753300401+756029502+758583862+760111866+760220572+759546302+759150939
1588+759436566+759778060+759504962+758894547+758780938+759850026+762653515
1578+767159568+771126869+771090674+768304920+767410997+769667261+771885030
1568+770905219+768373436+767395804+769041957+774129734+784551089+799015041
1558+806695250+802366420+795184470+790226160+787144912+785128456+784140655
1548+784623600+787327401+792907081+801371720+811716145+820545337+821889036
1538+816372062+812193461+813420343+817812120+819976202+818318489+816923766
1528+819283168+825330782+832872203+840091559+845906144+849438862+851466092
1518+853730891+856175818+857769554+859144606+862353384+868831406+878698394
1508+890150342+897131706+894609667+888695212+886482527+889171923+895154955
1498+901753667+905894439+906330960+905337712+905991888+909302169+913546079
1488+915709738+915300212+915006293+916610198+918880323+919995774+920620655
1478+922874438+927726221+934860536+942673420+947317656+945935340+940855976
1468+936111084+934225245+936278623+940631119+943576543+943760061+942801858
1458+942194349+941239415+938291569+933561325+928958368+926708459+927392535
1448+929132081+929683724+928972471+928622504+929811859+932519534+936541915
1438+941960836+946919630+947164341+942295853+936856898+934375170+935252630
1428+938456929+943187839+948452476+952807090+955890214+958350817+959654387
1418+958925460+957626915+958157010+960782489+963170642+962951050+960152706
1408+956630096+953632255+951049568+948949584+948522143+950518988+953693689
1398+956080026+957188154+957433107+956919959+956334966+956934486+958401176
1388+958251553+954695653+949771117+947279705+949057928+954604015+962030616
1378+968776893+972880199+974109260+973445158+971889191+970614795+971410422
1368+975409501+981706668+988559775+995575821+1002923737+1008728940+1009796334
1358+1005989973+1001306274+999794250+1002099420+1005868133+1008598202
1350+1009930280+1011009416+1012670095+1014812992+1016694534+1018315689
1341+1021549888+1027866484+1035123548+1039689341+1041152278+1041221279
1332+1040540350+1039805916+1040806669+1044044742+1048000664+1051646689
1324+1055112706+1058215078+1060614609+1062641900+1064743760+1067004806
1315+1069192736+1070290574+1069620541+1068736483+1069486171+1070969082
1307+1070481961+1067010496+1062693227+1060691721+1062350039+1066792115
1298+1071697221+1073741823+1069846064+1060526845+1051385091+1047502406
1290+1047133555+1043745375+1035380667+1027700277+1025672623+1027687687
1281+1028694009+1026047406+1020629393+1014621787+1010490578+1009738773
1273+1010485918+1008079123+1000304492+989828663+980071229+972094135+965852895
1263+961462025+958520838+955357516+950024725+942492081+934786693+928317085
1253+922446936+916379469+910471187+904362078+896378992+886305789+876082417
1243+867103421+859076937+851211940+843169174+835537145+829621540+825797203
1233+822566515+818436093+814054363+811141502+810094869+809869466+809600606
1223+809327326+809367879+809775286+810479518+811464171+812769375+814614056
1213+817254303+820383851+823141279+825096422+826690642+828589676+831235069
1203+834812758+838906017+842357871+844516021+846528240+849986934+854729284
1193+859163914+862442480+865381489+868822629+871898187+873359490+873950778
1183+875898718+880316038+886441248+893425094+901096707+909166891+917013973
1173+924218137+930728238+936495854+941559845+946252623+950878277+955399521
1163+959394726+962163594+963168100+962917457+962922360+964064807+965849748
1153+967388888+967850709+966447149+963750793+962332827+964180716+968258298
1143+972216702+975257457+977811333+979926811+981347501+982206379+982665597
1133+982862370+983343681+984632663+987099804+991031637+995394846+997266158
1123+994791815+990086387+987434215+989133995+993849168+998561012+1001164641
1113+1001679302+1002000519+1003712645+1005435546+1004097052+999862342+995795837
1103+993013230+990829658+990058242+992235397+997036519+1002546533+1006345327
1093+1006084335+1001494816+996046540+994459643+997836565+1000993652+996725047
1083+985365948+975535276+973296019+975860003+977123201+976102172+975852619
1073+976995005+976682989+972890791+967279456+963231108+962373320+963057154
1063+961815261+957079508+951670030+949259240+949427626+948689621+945833716
1053+943593672+944247182+946115045+946388809+945539857+945922509+947667502
1043+948829438+948953034+949857731+952650083+956453478+959778830+961987763
1033+963744256+965334360+964843486+960197435+952855814+946866185+945021020
1023+946744465+948856433+949557275+950756496+954704006+960045633+963326862
1013+963158052+959845955+953127399+943483392+933496500+925804549+920620595
1003+915390639+907537868+898066061+890493772+886035414+882448404+877740191
993+872433427+867823631+864041361+860295043+856213587+852432406+849979973
983+849123698+848924383+847997049+845470531+841280490+836130189+831236884
973+827591647+825417457+824135072+822491643+818975933+813215943+807116760
963+803424735+803135052+805009331+807232064+808990554+810751889+813378276
953+816851436+820094230+822419918+824690770+828596939+834949428+842599010
943+849309213+854256326+858837129+864519766+871285291+878407259+885129447
933+890323751+893445794+896235906+901560586+909806299+917505271+920475814
923+917839137+912136890+906576155+903137133+901955283+901620508+900694142
913+899229208+898348419+898610198+899234292+899422834+899520101+899933560
903+900527391+901385845+902822090+904612357+906226551+908069900+911819850
893+918550087+926346145+931010052+930228709+926025654+921986325+920083720
883+920638510+923434070+927739779+932502102+936962578+940402871+941858061
873+941003117+938714713+936094318+933691155+932266350+933102348+936555292
863+941166722+944154273+943506211+940808947+940254338+944043751+949458677
853+951362069+948273982+943829970+942224552+944725345+949589355+954100552
843+957229252+959834031+962297358+964047436+965809316+968422810+970544342
833+971103369+971074921+971541463+972209015+973133383+974593294+975272226
823+974661266+975143364+978398686+982448850+985172443+987862202+992195147
813+996218739+996806456+994426111+991091861+987195557+983539062+982712505
803+986132946+991477781+994913172+995605601+996013129+997560138+997984795
793+994094363+985844474+977215384+971859230+969640190+967788487+963752427
783+956843574+947449483+936972323+928244876+923917318+923993098+925861747
773+926984341+926782363+925622908+923972155+923730289+927501302+935715843
763+945713509+953586254+957544719+958939866+960353776+963021624+965453114
753+965522297+963546696+961835840+961585803+962037940+962722621+964319262
743+967149867+970251512+972508987+974075183+976070032+979258956+983038080
733+985197199+983132684+977429226+972329948+971132180+972459355+971866554
723+968001482+964377005+963896300+965180501+966736105+970326626+975951157
713+979024475+974922319+964625589+954518430+950406893+953330588+961085305
703+970631501+977338798+976689223+969476706+961714544+958349062+959000696
693+958985201+955700522+951170440+947402091+944848760+944776188+949699272
683+957586846+959681382+951959954+941538236+934198068+927741836+919963998
673+913641652+911090863+911170214+913401420+918390841+922883759+923145659
663+919685695+916656016+917339063+920470185+922767063+922896833+923188815
653+927133419+933357046+935823823+932643312+930071762+933129343+937659123
643+934796559+924560054+916787057+918183415+925996783+931598858+928856017
633+917377982+903641988+897819716+905386618+921585637+933096962+930508343
623+916168472+897584932+882744260+875418376+873267549+872246399+868971465
613+865899539+870392033+882972628+896141242+900704372+893240002+880006442
603+869586177+866086023+869552343
##END=
