##TITLE=<SNM>
##JCAMP-DX=4.24
##DATA TYPE=INFRARED SPECTRUM
##DATE=29/4/2025
##SAMPLING PROCEDURE=Instrument type and / or accessory
##ORIGIN=Admin
##XUNITS=1/CM
##YUNITS=ABSORBANCE
##RESOLUTION=4
##FIRSTX=4497.3318
##LASTX=599.83466
##DELTAX=-1.4281778
##MAXY=2.0938361
##MINY=0.37254542
##XFACTOR=1
##YFACTOR=1.9500368e-09
##NPOINTS=2730
##FIRSTY=0.3856712
##XYDATA=(X++(Y..Y))
4497+197776369+197804872+198668023+199440270+199350590+198361905+196862051
4487+195314912+194233016+194255009+195837329+198422747+200330487+200346932
4477+199160210+198351161+198443042+198639841+198097739+196931879+195962665
4467+195820992+196454058+197419650+198308827+198736521+198452197+197737917
4457+197323337+197596871+198137643+198205622+197599576+196956026+197103965
4447+198137811+199242631+199445787+198509401+197108458+196235695+196426594
4437+197371493+198185341+198196406+197519035+196804465+196478281+196325329
4427+195835556+194880127+194025550+194072484+195159056+196485296+197125698
4417+196907228+196276684+195696038+195505261+195915226+196668447+197074576
4407+196755132+196057022+195566362+195536545+195777114+195811608+195319665
4397+194551376+194033314+194002733+194442943+195258655+196046171+196214986
4387+195649746+194841553+194314016+194204391+194260434+194116820+193688408
4377+193213139+192805818+192286839+191598006+191059053+191045328+191619219
4367+192554658+193496745+194036401+193924866+193313579+192588647+192032913
4357+191815192+192068048+192719316+193441604+193989574+194425979+194799510
4347+194875848+194507972+194114986+194394863+195426569+196381158+196436238
4337+195691346+194866831+194392295+194131843+193845563+193670925+194025566
4327+194967103+195839836+195895175+195231757+194703930+194844671+195297062
4317+195434272+195129392+194638871+194103386+193525416+193026595+192854066
4307+193121976+193666569+194197361+194477437+194463774+194447222+194828868
4297+195507141+195840539+195583158+195432209+196198282+197785218+199284659
4287+199854866+199478279+198935230+198949275+199468788+199923533+199909671
4277+199462293+198977319+198898826+199194154+199290161+198780337+198003413
4267+197681844+198100368+198790439+199059786+198770999+198361905+198145040
4257+197994595+197823517+197926585+198519671+199253941+199678470+199960319
4247+200501351+201056748+201061853+200622942+200318398+200236879+200057213
4237+199766913+199519528+199166369+198621272+198308506+198668221+199519986
4227+200329142+200857917+201151564+201091731+200522151+199760356+199442593
4217+199794315+200505706+201278810+201957235+202195909+201672667+200687268
4207+200056143+200312851+201264107+202317271+202999655+203212715+203257540
4197+203534344+203942353+203839285+203006425+202259181+202495149+203518572
4187+204454592+204939612+205184506+205189672+204665161+203608375+202444945
4177+201750915+202118715+203847171+206273539+207862095+207664945+206386144
4167+205432930+205373556+205816655+206218077+206256926+205930192+205697891
4157+206050010+206748181+207021670+206543512+205648038+204763063+204215521
4147+204206764+204501710+204599108+204462845+204536402+204941201+205272551
4137+205350051+205642796+206516859+207335689+207088625+206005323+205446976
4127+205965847+206690687+206815916+206500246+206176599+206045823+206284604
4117+206986657+207908861+208618081+208853149+208680833+208285020+207695251
4107+206962968+206471132+206645174+207421090+208312835+208873322+208963675
4097+208804900+208822827+209240357+209765785+209905242+209685810+209733691
4087+210384378+211139968+211412004+211313612+211262399+211322752+211339869
4077+211339196+211478882+211748718+211895862+211672808+211026904+210050706
4067+209122465+209025846+210225237+211996638+212973846+212526712+211128903
4057+209719356+209062708+209318270+210089417+211003109+211958920+212844919
4047+213457979+213631104+213231210+212323862+211305054+210480279+209719814
4037+208875706+208284011+208465970+209472933+210732814+211496290+211486142
4027+211079967+210825123+211013898+211706935+212740658+213636499+213902040
4017+213521266+212860966+212180339+211565307+211209719+211385014+212092585
4007+212905943+213258552+213005359+212677891+212946107+213822111+214671369
3997+214966238+214704808+214195168+213786394+213713113+213942280+214232886
3987+214405522+214456659+214457255+214469604+214461198+214248306+213772838
3977+213451820+213856268+214948357+215975448+216238055+215707767+214854856
3967+214212040+214165473+214815029+215816139+216527163+216562298+216118680
3957+215673870+215641516+216333849+217784491+219474007+220596310+220707845
3947+220008054+219138622+218747990+218970189+219234202+218849071+217791552
3937+216795165+216871763+218520213+221036444+222783179+222679698+221384498
3927+220567166+221189029+222566100+223279111+223055980+222878896+223368180
3917+223981775+223761242+222446602+220733704+219567386+219391204+220269546
3907+222551245+226615884+231679447+235758529+237499670+236809003+233718897
3897+228859208+224398358+222680508+224216888+226908614+227875474+227295043
3887+227880946+230447978+232628870+232945182+233043864+233528670+232575533
3878+230245188+229145900+230347080+232442724+234362263+236028350+236461392
3868+235137537+233725789+233506295+233360037+231759224+229311063+227768845
3858+228490629+232762077+241340689+250061616+250386180+242924920+234506977
3848+228961328+227317158+229085686+232823759+237194775+241810181+246157249
3838+248343919+247122674+244075604+241275477+238998026+236605373+234372136
3828+233302619+233641106+235181154+238588489+243866319+247694164+247443845
3818+245479817+243836839+241199444+236878571+233010639+231845772+234249643
3808+239199914+243732150+246256711+248396386+250798407+250966474+248251518
3798+245317528+243197216+240753350+237901046+236159661+236306606+237652072
3788+239445939+241518032+243440659+244769741+246200408+248612930+251138438
3778+252129828+251797515+251786634+253320951+256815520+261872558+267291496
3768+272094592+276061466+279082387+281717137+285664785+291923858+299102934
3758+305077041+310014596+315926868+324610703+336390865+348332507+355965639
3748+359831432+364026542+369716783+373366872+373267105+372852478+375380279
3738+382252503+393020659+403872351+409118591+407366095+403139136+401322298
3728+403219677+406718740+408917070+409263474+408825801+407675636+405802863
3718+404862014+406829694+412334889+420580715+429108084+434517699+435879961
3708+435303335+435086439+436627114+440272404+444732948+447725381+448225745
3698+447273678+447290092+450725302+458083311+467427309+475713421+479973269
3688+478819100+474018480+468797303+465545947+464955047+466016845+467991556
3678+472059756+478366114+482305387+481127591+479383286+480400428+481277241
3668+478814302+474945544+472510083+471906896+472208917+473011792+474804146
3658+477949134+481881132+486067530+491621509+500607366+512912497+522493503
3648+521723304+512725801+503165549+497416224+495798279+496692087+498721113
3638+501556040+504901601+507873524+510241159+513339992+518205351+522529021
3628+522539474+519406347+517225041+517800230+521025239+526128890+530943082
3618+533156053+533700310+534587822+535688500+536150656+536762830+538915343
3608+541937883+543409265+542419357+540634859+540396383+542728440+547036093
3598+552056116+556258317+557796210+555720784+551720441+549482588+551901941
3588+558365286+564508300+566615269+565043753+562522799+561738478+563299968
3578+565172986+565414518+564421737+563397045+562977742+564043025+567064404
3568+570106996+570346510+568012987+565408588+563939101+564096944+565792496
3558+567955951+569349939+570079303+571318445+573891728+577631038+581671851
3548+585122192+587148528+586924847+584494858+581237082+578645399+577388223
3538+577702624+579256717+580949334+581986313+582671234+583575496+584530497
3528+584781566+583436421+580126133+576147002+573930791+574420579+575880651
3518+576197864+575477181+574922716+574486907+573570724+572910256+573793611
3508+576166504+578765156+580186043+579612259+577950697+577769991+580514687
3498+584423517+586330340+585393984+583500243+582222710+581419866+580819185
3488+581629487+584984707+589429846+592102345+591895903+589810880+587090637
3478+584547981+582812877+582069025+582156321+583296857+585413546+586586972
3468+584798744+581355250+579767840+581346936+584101413+585750933+585932128
3458+585156548+583618411+581683100+580037553+579032180+578642036+579083164
3448+580665438+582852123+584508857+585400036+586228984+586820312+585775630
3438+582795882+579753535+578848051+580444080+582471578+582167019+578900135
3428+574616140+571365088+569720459+569802131+572196787+576639297+580793448
3418+582198135+581277368+580687079+581681816+582817706+582452871+581006676
3408+580137871+580523735+581034858+580352505+579103215+579083775+580553751
3398+581916379+582169770+582150819+583006053+584732049+586313835+586794636
3388+586108432+584972175+584155087+583736640+583175633+582113896+580893643
3378+580203343+580528136+582057226+584704906+587968673+590955940+592838372
3368+593265561+592364417+590881910+590228044+591534614+594163465+596212054
3358+596993991+597852709+599822071+601700835+601584195+599335278+596829118
3348+596144320+597496861+598957117+598750247+597419346+596625672+596838288
3338+597492154+598204951+598497039+597441292+594926574+592416440+591596663
3328+592835866+595335546+597992762+599659766+599542698+598044724+596566068
3318+596118889+596608555+597512205+598444465+599052482+599165576+599194125
3308+599893778+601492559+603299676+604357807+604304989+603577520+602984909
3298+602962168+603246981+603264709+602411614+600197053+596932553+594297466
3288+594284201+597083732+600563783+602453490+602489496+601929590+601621669
3278+601324385+600911745+601327625+603346320+605700995+605868007+603238667
3268+600011090+598505353+599152433+601173695+603702657+605826804+606659175
3258+606131730+605339706+605427491+606111495+605924982+604176612+602184938
3248+602028807+603935080+605742809+605513382+603770269+602304206+601778656
3238+601562249+600972694+599830385+598471180+597633857+597734542+598340358
3228+598918787+599747184+601340096+603114691+603626120+602368944+600589275
3218+599798168+600061830+600132620+598936454+596613201+594132349+592359955
3208+591677296+592036017+592956662+593638221+593548846+592848642+591991941
3198+591075759+589798837+588078649+586464280+585863354+586806251+588618932
3188+589490855+588099067+585106359+582378719+581216481+581758842+583217508
3178+584268303+583999017+582831033+581992549+582067619+582473901+582253460
3168+580860816+578306912+575250810+572802603+571487536+570732680+569763190
3158+568695584+568200661+568487858+569015487+568943902+567723955+565526022
3148+563139436+561309272+560289532+559864360+559625579+559414491+559286114
3138+558933200+558028755+557235264+557465853+558061888+557382531+555236743
3128+553081357+551949563+551603618+551488873+551429942+551504707+551832984
3118+552446259+553145118+553488006+553061734+551832006+550218982+548838198
3108+548191546+548383989+548899146+548938760+548111280+546635068+544997408
3098+543712601+543297699+543878513+544835042+545423925+545684652+546062875
3088+546330449+545783074+544256491+542088695+539682975+537868277+537556016
3078+538306225+538504720+537484247+536071552+534943364+534091248+533743958
3068+534285036+535283441+535735571+535227077+534179094+533211439+532748365
3058+533045344+533889513+534372882+533750316+532321726+530799605+529240561
3048+527355317+525496298+524496732+524711182+525710687+526735746+527248764
3038+527219543+526978011+526722786+526157500+524745966+522506830+520357007
3028+519294720+519298999+519359764+518663045+517486869+516879157+517531434
3018+518852370+519352612+518315449+516515790+514873056+513447584+512105893
3008+511089241+510631944+510636468+510707992+510345695+509399282+508269291
2998+507438754+507036996+506895904+506828812+506830371+507010220+507189428
2988+506773885+505452490+503778732+502628750+502345680+502553895+502485824
2978+501498179+499569011+497390549+495908591+495721436+496683926+497965188
2968+498727899+498728357+498168329+497328928+496543842+496082144+495768202
2958+495104891+493977804+493043037+493100990+493938771+494189962+492897330
2948+490809984+489336126+488780255+488464111+488022923+487711579+487759109
2938+488005531+487997095+487342587+486144740+484851496+483635676+482411756
2928+481426525+481204617+481845431+482771884+483288111+483265798+483051867
2918+482824029+482499694+482107748+481741690+481284394+480563008+479532111
2908+478234161+476983129+476271340+476126427+476149688+476298575+476735392
2898+477005625+476376456+474840764+473095818+471877155+471531088+471675756
2888+471357382+470127899+468684271+467909150+467758918+467619721+467343497
2878+467315529+467624490+467723279+467065928+465755415+464409934+463694447
2868+464047698+465366922+466786067+467229853+466473041+465308175+464442273
2858+463682221+462553972+461270999+460507035+460488970+460874742+461266903
2848+461396992+461108266+460502480+459817315+459090672+458334104+457806965
2838+457532360+456950141+455710602+454295675+453317383+452802225+452489108
2828+452220984+451880205+451422847+450922391+450352887+449605856+448744631
2818+447938028+447254910+446748892+446573138+446798470+447153645+447051586
2808+446072499+444554687+443365918+442872737+442582117+442037249+441494734
2798+441346918+441430363+441300427+440786706+439991717+439064256+438174818
2788+437514900+437182099+437047273+436739810+435936141+434790194+433843324
2778+433352557+432991635+432380164+431612899+431069834+430956251+431185007
2768+431446681+431275604+430355264+428963751+427847057+427469231+427607664
2758+427706178+427395965+426688517+425875280+425258644+424923122+424758524
2748+424554833+424037047+423098215+422061144+421389764+421156302+421089332
2738+420981770+420738619+420192284+419202345+417950733+416899877+416331718
2728+416079916+415871579+415686777+415524931+415205609+414737033+414437120
2718+414401970+414244769+413600379+412600323+411654920+411001085+410618980
2708+410389124+410098259+409431770+408284387+407039437+406242798+406031863
2698+406084008+406019453+405698052+405195977+404611495+403985383+403414932
2688+403025125+402730072+402290412+401690037+401146850+400722014+400251208
2678+399699371+399293058+399170642+399054247+398525059+397677008+397158794
2668+397374925+397936665+398131768+397700880+396970080+396456236+396428971
2658+396649841+396543288+395778896+394614060+393589215+393044439+392954575
2648+393006721+392761215+391938381+390710946+389668649+389365465+389805523
2638+390398593+390556833+390277063+389909324+389528259+388983086+388466675
2628+388449986+388951786+389324140+388959733+387953871+386867742+386053924
2618+385497411+385175766+385170692+385386915+385491145+385269206+384876739
2608+384639487+384671520+384740171+384543785+384075913+383565859+383109724
2598+382606273+382071064+381734839+381722185+381834392+381788971+381540532
2588+381269198+381189329+381396108+381716439+381770938+381417412+380978455
2578+380793562+380781213+380658430+380327157+379862616+379372523+379005243
2568+378915684+379126620+379488612+379797725+379919041+379806528+379518414
2558+379282903+379387683+379867965+380430531+380704279+380414851+379498637
2548+378345294+377682595+377885980+378583250+379106293+379100914+378666389
2538+378226637+378244763+378774531+379391168+379731947+379829972+379769421
2528+379470486+379048432+378889734+379094801+379249800+378985986+378471684
2518+378172963+378300912+378647744+378937814+379175556+379471159+379673352
2508+379542958+379178337+378860666+378640836+378406395+378176784+378083711
2498+378195735+378475321+378801551+379046537+379183992+379230422+379153793
2488+378989776+378853299+378672410+378223397+377615166+377384057+377876138
2478+378783884+379467949+379596601+379356720+379149391+379206488+379444230
2468+379585414+379440746+379123349+378944692+379064754+379304452+379354703
2458+379148260+378929011+378893066+378915623+378816101+378707042+378771016
2448+378901227+378924273+378963031+379238613+379687474+380022017+380052217
2438+379842412+379650092+379742645+380183069+380749822+381103562+381085467
2428+380836110+380588434+380430684+380344243+380335899+380431998+380649138
2418+380997223+381398920+381664324+381672240+381488356+381257278+381129420
2408+381292245+381857011+382681343+383475384+384082912+384520219+384797360
2398+384870504+384750502+384555645+384458170+384579883+384913113+385364938
2388+385841338+386169891+386005324+385031311+383258427+380942724+378248492
2378+375204708+371966953+368868059+366127826+363693587+361473402+359503185
2368+357694997+355739727+353623832+351983605+351518300+352237118+353739952
2358+356100832+359828834+364954462+370745234+376155736+380119309+381768339
2348+380831311+377969639+374685791+372288018+370819723+369808756+369487172
2338+370330088+371927707+373043943+372878062+371927095+371394087+371909673
2328+373005491+373790240+373975042+374137683+375039561+376847565+379067352
2318+381041024+382378435+383075643+383436871+383870785+384610694+385584646
2308+386602246+387604594+388628521+389632214+390528590+391324190+392086290
2298+392822928+393488592+394084597+394688060+395337035+395918674+396306769
2288+396596198+396994471+397494285+397869818+397951704+397715246+397200638
2278+396534821+395929188+395499615+395155290+394769365+394397959+394191975
2268+394089671+393792417+393202098+392698494+392727471+393243331+393828210
2258+394262154+394667489+395178459+395814627+396600630+397450392+398012530
2248+398002474+397616640+397288454+397144642+396980319+396628139+396098768
2238+395469508+394827624+394244151+393692375+393073507+392405489+391904575
2228+391787905+392013115+392273383+392288483+392105210+392059483+392399896
2218+393015615+393604162+394024688+394363419+394718075+395086731+395467032
2208+395922250+396490715+397104509+397658057+398146714+398713039+399511696
2198+400487421+401357969+401909194+402224298+402550925+403082956+403909366
2188+404943839+405848651+406312213+406458074+406705138+407242914+407911727
2178+408527294+409024693+409339033+409452952+409527655+409706893+409872224
2168+409870024+409875250+410228073+410968960+411790846+412426587+412897057
2158+413375230+413974261+414738898+415703741+416824532+417988940+419225056
2148+420698058+422419835+424274727+426341074+428750707+431273403+433557685
2138+435733244+438280454+441335944+444519659+447478255+450328862+453417058
2128+456785238+460153479+463387902+466605422+469750012+472501739+474755638
2118+476786682+478756685+480437107+481703972+483027353+485159662+488582432
2108+493523411+500226148+508887273+519392225+531020169+542149460+550661515
2098+555317070+556514398+555420077+552915140+549381171+544780574+538864114
2088+531643836+523533783+514901237+505779851+496171397+486468677+477464358
2078+469889698+463875306+458896975+454374963+450290349+447048865+444842527
2068+443405684+442359688+441546207+440961971+440537655+440120033+439661575
2058+439293592+439106131+438970632+438760644+438637464+438918915+439764032
2048+441159212+443142084+445889439+449568046+454217518+459943583+467192165
2038+476532954+488043586+501131816+515008829+529035830+542559594+554753924
2028+564792685+572100871+576474119+578172055+577955587+576688080+574658932
2018+571611572+567567030+563128371+558793636+554462692+549754625+544438174
2008+538563957+532488372+526708970+521467406+516617391+511945453+507415463
1998+503090693+499135251+495924241+493780256+492514828+491491817+490233297
1988+488822283+487742298+487442201+487993824+489056143+490144319+490993165
1978+491754165+492826600+494398085+496224887+497994011+499714138+501550355
1968+503482334+505319987+506922833+508288762+509525336+510836400+512498176
1958+514687643+517253773+519815318+522178369+524469895+526826771+529231085
1948+531686872+534353503+537432285+540818926+543884748+546049731+547619230
1938+549433744+551807798+554354916+556738874+559155903+561942903+564907307
1928+567439326+569439131+571489064+573783524+575829973+577591180+579577109
1918+581399081+581856592+581026788+580588779+581775898+584088881+585953463
1908+586393184+585957314+585956764+587039164+588674440+589909547+590437481
1898+590752249+591345533+592187318+593209381+594709739+596610511+597838771
1888+597455291+596016799+594728690+593978908+593443149+592954462+592696608
1878+592824923+593231083+593629785+593902555+594399495+595578911+596994113
1868+596983537+594438864+590396829+586732710+584329863+582922242+581889725
1858+580803841+579514265+578113796+576848673+575951870+575428153+575088138
1848+575047975+575706915+576473630+575404557+571994746+568500268+566713691
1838+566050778+564892207+562861897+561437098+562145433+564377477+565373254
1828+563434825+559853723+556410168+553559041+551283776+549780056+548962112
1818+548281898+547456863+547037988+547818397+549707798+551472062+551847717
1808+550824799+549519695+549191418+550545854+553308401+556139721+557536950
1798+557400992+557368287+559328479+563537160+567535853+568148760+565780147
1788+563544129+563236513+564571326+566748536+569531745+572626910+575213581
1778+577002664+578989387+582542002+587934500+593344421+595982748+595135645
1768+592150211+588758618+586862737+587662464+590236052+592269969+593125936
1758+594105696+595742561+597733258+600763501+605868130+612058398+616335791
1748+617309927+616556600+615890813+616079466+617425344+619696085+621861802
1738+623789899+627370940+633612254+638749466+637801250+632996045+628996190
1728+627201849+627256929+628626037+630718457+633445975+637854679+645061448
1718+653870604+659714928+659459213+655595499+652091546+651107507+653277870
1708+658254427+664360029+669029766+672004562+676223269+683375691+690044011
1698+692209850+690969057+688123127+684644910+682617901+683570335+687053320
1688+692228923+699981354+710752780+719068296+718457712+712751179+708636824
1678+708887770+713400827+719947005+725695352+730174480+734061913+735923988
1668+734393003+732277475+733078241+736611782+739590124+739901102+739521596
1658+741601667+747877826+758543310+769710075+772201258+767382971+765641814
1648+769324823+773083818+770842787+764757970+760248399+759048809+760719725
1638+764599884+768788941+769016779+763904203+758234594+755972045+757239857
1628+759817114+761495610+761967486+761730723+760705420+759566962+760290457
1618+763683946+766679404+764755892+759090623+754205213+752008747+751648253
1608+751652899+751375971+750824685+750161282+749698453+749813198+750785377
1598+752661574+754927608+756576210+757061047+756957856+757161853+757726161
1588+757990556+757776350+757791205+758560977+759746506+761106628+763370339
1578+767044850+770236298+769638857+766133069+763975544+765035937+767397337
1568+767817373+765965140+763990460+763956593+767924109+778131839+792905198
1558+800200546+793908677+784226620+777624567+774467109+773568716+773994254
1548+775829615+780095943+787381449+796738529+806346556+813475014+813576921
1538+807369230+802430268+802717771+806093776+807709123+806767876+807419664
1528+812422691+820584644+829141265+837223685+844663061+849244279+849958237
1518+849619628+850265241+851356444+852999301+856870534+863961947+874116002
1508+886690450+897567328+899551300+894768653+890957084+891201244+895055789
1498+900565355+904764377+905657513+904773547+905181296+907899766+911091459
1488+912551959+912684187+913059231+913959702+914950466+916760884+921054172
1478+927757459+934365563+939191798+943136267+946145970+946302651+944791839
1468+944878952+946884075+947370257+943650630+938683731+937689117+942812024
1458+950850858+953786713+949302083+943748869+940407465+938479918+937687099
1448+938974291+941859835+944038084+944373820+943950298+944498590+947376370
1438+953045490+959546614+962850788+961961259+959652372+958011533+957298980
1428+957559341+959195778+961888146+964423282+966535631+969759417+974848641
1418+979224395+980023388+977931641+974677166+971484985+969857350+970343104
1408+971475815+971650041+971081393+971038234+972449217+975397788+978826733
1398+981308134+982550149+982671557+981030657+978199092+976020782+974405557
1388+971245593+966186385+962006803+961295289+964596469+971143747+979193523
1378+986643536+992152796+995026419+994980448+993499958+993496534+996288119
1368+1000691566+1005158345+1009227034+1012748899+1015653883+1018393444
1360+1020598347+1020831809+1019137113+1017779925+1018431713+1020405109
1351+1022384985+1024245837+1026485218+1028913129+1031360480+1034182080
1342+1037431114+1041079583+1045412362+1049846741+1052540209+1052727395
1334+1052181243+1053126096+1055788998+1058836542+1061601044+1064718400
1325+1068669716+1072523466+1073741823+1070791479+1066355388+1064662893
1317+1066296457+1068495735+1069134318+1068035413+1065845549+1063507501
1308+1062119565+1062058922+1063127995+1065171265+1067069285+1066838085
1300+1064156843+1060635284+1057999158+1057658898+1059994256+1061961967
1291+1058618179+1049683153+1040329007+1034345425+1030798068+1027005205
1283+1021890123+1016319547+1012030906+1009197874+1004768324+996690916+988231496
1273+984288371+985426890+987160711+984265325+976005927+966467591+959437738
1263+954583750+949403684+942992302+936135635+929554551+923488563+917764118
1253+911960814+906375200+901868257+897577598+890788238+880829315+870543887
1243+862517157+856435153+850651289+844205367+836786899+828454388+820078229
1233+813013714+808054028+805243799+804461128+805188780+806117372+806260910
1223+806142131+806824240+808272513+809576272+810319879+811021122+812547033
1213+815571836+820093878+825004780+828745681+830942758+832846464+835863930
1203+840254295+845137627+849079223+850946127+851021258+851068697+852514403
1193+854978565+857356287+859618898+862353507+865345421+868126735+871130936
1183+875202131+880695375+887492499+895074678+902694698+910374627+918846763
1173+927543130+934396313+938925141+943282005+948759966+952967363+953136576
1163+951319739+952094646+956348992+960854774+963648498+966621215+971661350
1153+977619135+982120148+983723697+982007360+977999375+974368389+973362771
1143+974660661+975951764+975474019+973721370+972194664+972128825+974396877
1133+978901130+984599532+990514647+995522993+997492477+995174664+990566853
1123+986627825+984314536+984152659+987346613+993338325+998478288+999104156
1113+996050744+993862592+995174664+997702464+997432201+994280733+992180550
1103+994176198+999257230+1003091478+1002244497+997477683+992691000+991489516
1093+994230789+998434151+1001985298+1005116959+1007397114+1005920047+998880780
1083+988653794+979653785+974416133+972511327+971941517+970374526+966534897
1073+961741368+958914022+960177066+964976892+969357353+968326243+961481803
1063+954052331+950593370+951023861+952665617+952869614+950339918+946579761
1053+944290436+944195315+944950843+945281077+945171284+944846796+943878041
1043+942251323+941263433+942362399+946096331+951885208+957153548+958071809
1033+953522746+947046441+942840206+942166166+944316784+948100965+951524347
1023+952666656+951930690+951539752+953017736+956053053+959237959+961130050
1013+961049906+959250247+955218298+947248299+935517226+923200265+913518942
1003+907449897+903621212+899536323+893052988+884026753+874879416+868182793
993+863989517+860717009+857756823+855617271+854252808+852715832+850197263
983+846850846+843530166+840976078+839594622+839624148+840401073+839723549
973+835827374+829732226+823888269+819394347+815682056+812006812+808393065
963+805423832+803536509+802700593+802864060+804211344+806741651+810187529
953+814294731+818786330+823361252+828008309+833049666+838686692+844643009
943+850211201+854621494+857810313+861085634+866350611+874037754+882335664
933+889359771+895501929+902086681+908345173+912144454+913409944+913696897
923+912867766+909089575+902453839+896147481+893541003+895611538+900642870
913+904962994+905061477+901109367+896897446+895585863+896938893+898766001
903+899967241+900846561+901529465+902512464+905666866+911931410+918957717
893+923524814+925300815+925762300+925235466+923756076+922828584+923763900
883+925426075+926106716+926696333+929407223+933818678+936623467+935852962
873+933168358+931082418+930053875+929699372+931132424+935809313+942235429
863+946437813+947326609+947933036+949633418+949840104+947316155+945207841
853+945902726+947551574+947950092+948132815+949468362+950312898+948918053
843+947204834+947958467+950763500+954217264+959591974+967819949+975004099
833+976587902+974254195+972729323+973283850+974125574+974880857+976722453
823+979171394+980540074+981066113+982749378+986234686+990118023+992867366
813+994521654+996261771+998846241+1001103594+1000452112+996719709+992552292
803+988866900+984377746+979943550+978483416+980148647+981833562+982056449
793+981817973+980631588+977169755+973197715+971288079+969543439+964282985
783+956729110+951243507+949140451+948142718+945357920+938876174+929103031
773+919561210+914327471+914551703+918553636+924918375+932687984+940032788
763+945341964+949130303+953353900+958566304+963635415+966990085+967116383
753+963499519+958618388+955944605+955825153+956265914+956168286+956723180
743+959347997+963162561+966250757+968297266+969903688+971154629+971187212
733+969418668+968609895+973585780+985048729+996519625+999537275+991825802
723+978631722+966881331+960194183+960150963+967316406+978756309+989426623
713+995952322+997225453+993065983+984738424+975692688+970042763+969394949
703+970243703+967373993+960540006+954372723+951792410+950304339+946512761
693+941457893+937352097+933862754+930582176+928722180+929372561+931565298
683+934696348+939694057+944284139+943271919+936395506+930076555+929372378
673+931835256+929353733+916702075+899835685+890161820+889533385+893589114
663+899140128+903674397+907231473+913458727+922736519+929111956+929024477
653+926802946+925102259+918168078+902885796+887495617+881367764+885015744
643+891375164+894500467+894806860+894114236+891937088+889943641+893977790
633+905748477+915985611+915091802+906469954+899729866+899686585+902052203
623+899105405+889120134+877712570+871676170+872782717+878329635+885200484
613+891733275+896959922+895636296+880950356+861444049+851745854+855262217
603+864864313+870442041+866342603
##END=
